1.26774193548387,1.28064516129032,1.3,1.29354838709677,1.32258064516129,1.31612903225806,1.31935483870968,1.32903225806452,1.32903225806452,1.3258064516129,1.31935483870968,1.30322580645161,1.32903225806452,1.31935483870968,1.31935483870968,1.3258064516129,1.31935483870968,1.32258064516129,1.30967741935484,1.3258064516129,1.34516129032258,1.30645161290323,1.3258064516129,1.29677419354839,1.30322580645161,1.32258064516129,1.3258064516129,1.32258064516129,1.31935483870968,1.32258064516129,1.32903225806452,1.34193548387097,1.33548387096774,1.32258064516129,1.36129032258065,1.35161290322581,1.33548387096774,1.30322580645161,1.34838709677419,1.34516129032258,1.33870967741935,1.33870967741935,1.33870967741935,1.31612903225806,1.31612903225806,1.33225806451613,1.34193548387097,1.32258064516129,1.32258064516129,1.31935483870968,1.35483870967742,1.35161290322581,1.35161290322581,1.33548387096774,1.33225806451613,1.33225806451613,1.35806451612903,1.36129032258065,1.35806451612903,1.35483870967742,1.35806451612903,1.34838709677419,1.34193548387097,1.36129032258065,1.37096774193548,1.38387096774194,1.35806451612903,1.37096774193548,1.37741935483871,1.37096774193548,1.36774193548387,1.39354838709677,1.39677419354839,1.39354838709677,1.36451612903226,1.37741935483871,1.38064516129032,1.39032258064516,1.43870967741935,1.41290322580645,1.37096774193548,1.35806451612903,1.35161290322581,1.34516129032258,1.35161290322581,1.35483870967742,1.37741935483871,1.38387096774194,1.37741935483871,1.36451612903226,1.3741935483871,1.36774193548387,1.38064516129032,1.36774193548387,1.36451612903226,1.39032258064516,1.39354838709677,1.37096774193548,1.33548387096774,1.30645161290323,1.35161290322581,1.54838709677419,1.95483870967742,2.39032258064516,2.51935483870968,2.03870967741935,1.53225806451613,1.32903225806452,1.35161290322581,1.36451612903226,1.38709677419355,1.38387096774194,1.38064516129032,1.38064516129032,1.36451612903226,1.39677419354839,1.40967741935484,1.4,1.38709677419355,1.38064516129032,1.38387096774194,1.39677419354839,1.40967741935484,1.40645161290323,1.40645161290323,1.39677419354839,1.4,1.40645161290323,1.41612903225806,1.42258064516129,1.42258064516129,1.41612903225806,1.41935483870968,1.42258064516129,1.45806451612903,1.4258064516129,1.41612903225806,1.40645161290323,1.40967741935484,1.40645161290323,1.4258064516129,1.42258064516129,1.4258064516129,1.42903225806452,1.41290322580645,1.42258064516129,1.41935483870968,1.41290322580645,1.42258064516129,1.39354838709677,1.39677419354839,1.4,1.39677419354839,1.38064516129032,1.39677419354839,1.4,1.38709677419355,1.38387096774194,1.41935483870968,1.39032258064516,1.38709677419355,1.38387096774194,1.4,1.39032258064516,1.39032258064516,1.3741935483871,1.37741935483871,1.3741935483871,1.38387096774194,1.38064516129032,1.38709677419355,1.35806451612903,1.37096774193548,1.36774193548387,1.36774193548387,1.37096774193548,1.35483870967742,1.36451612903226,1.35161290322581,1.36129032258065,1.35161290322581,1.35161290322581,1.36451612903226,1.36129032258065,1.34838709677419,1.36129032258065,1.34516129032258,1.36451612903226,1.36451612903226,1.35483870967742,1.34516129032258,1.34516129032258,1.36774193548387,1.3741935483871,1.36451612903226,1.36129032258065,1.37096774193548,1.38064516129032,1.39354838709677,1.36774193548387,1.33225806451613,1.37096774193548,1.38709677419355,1.4,1.40967741935484,1.36774193548387,1.33548387096774,1.34838709677419,1.31290322580645,1.33548387096774,1.32903225806452,1.31612903225806,1.32258064516129,1.35161290322581,1.34193548387097,1.35483870967742,1.34516129032258,1.33548387096774,1.33870967741935,1.34193548387097,1.33548387096774,1.33870967741935,1.33225806451613,1.3258064516129,1.29354838709677,1.29354838709677,1.43225806451613,1.73548387096774,2.14516129032258,2.56774193548387,2.34838709677419,1.76129032258065,1.32258064516129,1.21290322580645,1.28064516129032,1.32258064516129,1.34516129032258,1.34838709677419,1.36774193548387,1.35161290322581,1.33870967741935,1.34838709677419,1.36774193548387,1.37096774193548,1.35483870967742,1.3741935483871,1.37096774193548,1.35483870967742,1.38387096774194,1.3741935483871,1.37741935483871,1.37741935483871,1.38709677419355,1.4,1.38709677419355,1.4,1.38709677419355,1.38387096774194,1.38387096774194,1.41935483870968,1.4,1.40967741935484,1.39032258064516,1.39032258064516,1.37741935483871,1.41290322580645,1.41935483870968,1.38709677419355,1.38709677419355,1.39677419354839,1.39354838709677,1.38709677419355,1.4,1.37741935483871,1.39354838709677,1.37741935483871,1.39354838709677,1.36129032258065,1.35806451612903,1.3741935483871,1.39032258064516,1.33870967741935,1.40967741935484,1.39677419354839,1.36451612903226,1.38064516129032,1.36129032258065,1.38709677419355,1.37096774193548,1.39032258064516,1.36774193548387,1.36774193548387,1.37741935483871,1.34193548387097,1.36451612903226,1.36774193548387,1.38709677419355,1.36451612903226,1.3741935483871,1.35161290322581,1.36129032258065,1.35483870967742,1.36129032258065,1.34516129032258,1.37096774193548,1.36774193548387,1.35483870967742,1.35806451612903,1.36129032258065,1.36774193548387,1.34516129032258,1.35161290322581,1.36774193548387,1.37096774193548,1.38709677419355,1.38064516129032,1.37741935483871,1.39032258064516,1.38387096774194,1.40645161290323,1.42903225806452,1.39354838709677,1.34516129032258,1.35483870967742,1.33870967741935,1.32903225806452,1.34193548387097,1.35161290322581,1.35806451612903,1.35161290322581,1.35483870967742,1.35483870967742,1.34193548387097,1.35483870967742,1.34516129032258,1.37096774193548,1.36129032258065,1.35806451612903,1.3741935483871,1.36451612903226,1.37096774193548,1.32258064516129,1.30967741935484,1.41612903225806,1.74838709677419,2.1741935483871,2.53225806451613,2.28064516129032,1.73548387096774,1.30322580645161,1.19677419354839,1.29677419354839,1.35161290322581,1.36129032258065,1.39354838709677,1.40322580645161,1.36774193548387,1.37096774193548,1.37741935483871,1.36451612903226,1.37741935483871,1.38709677419355,1.39032258064516,1.37096774193548,1.39354838709677,1.41612903225806,1.35483870967742,1.38387096774194,1.39032258064516,1.38064516129032,1.38387096774194,1.39677419354839,1.41612903225806,1.41290322580645,1.40645161290323,1.40322580645161,1.4258064516129,1.40967741935484,1.41290322580645,1.40322580645161,1.41612903225806,1.39677419354839,1.38709677419355,1.4,1.41290322580645,1.41612903225806,1.40645161290323,1.40322580645161,1.40322580645161,1.39354838709677,1.39677419354839,1.39032258064516,1.4,1.35161290322581,1.41612903225806,1.39032258064516,1.38709677419355,1.38709677419355,1.38064516129032,1.3741935483871,1.38064516129032,1.42258064516129,1.38709677419355,1.38387096774194,1.38064516129032,1.39032258064516,1.39032258064516,1.38709677419355,1.36451612903226,1.39354838709677,1.4,1.38709677419355,1.36451612903226,1.37096774193548,1.37741935483871,1.37741935483871,1.37096774193548,1.37096774193548,1.3258064516129,1.40967741935484,1.3741935483871,1.36451612903226,1.36129032258065,1.36451612903226,1.36451612903226,1.36129032258065,1.35806451612903,1.33548387096774,1.30645161290323,1.43225806451613,1.36129032258065,1.35806451612903,1.36129032258065,1.35161290322581,1.34838709677419,1.36451612903226,1.34193548387097,1.35483870967742,1.35483870967742,1.35483870967742,1.35483870967742,1.34516129032258,1.35483870967742,1.36129032258065,1.32903225806452,1.37096774193548,1.37096774193548,1.36129032258065,1.40322580645161,1.37096774193548,1.37096774193548,1.37741935483871,1.36774193548387,1.40967741935484,1.40322580645161,1.40645161290323,1.35806451612903,1.35806451612903,1.34838709677419,1.34838709677419,1.34516129032258,1.33870967741935,1.31935483870968,1.35806451612903,1.36451612903226,1.34838709677419,1.35483870967742,1.34838709677419,1.34516129032258,1.36451612903226,1.37096774193548,1.36451612903226,1.36774193548387,1.34193548387097,1.3,1.35483870967742,1.3741935483871,1.56451612903226,1.92903225806452,2.4,2.48709677419355,2.00322580645161,1.49032258064516,1.26774193548387,1.33870967741935,1.38709677419355,1.3741935483871,1.36129032258065,1.35806451612903,1.35806451612903,1.37096774193548,1.36129032258065,1.35483870967742,1.37096774193548,1.35161290322581,1.3741935483871,1.36451612903226,1.39354838709677,1.42258064516129,1.39677419354839,1.36129032258065,1.3741935483871,1.37741935483871,1.39354838709677,1.39032258064516,1.4,1.39354838709677,1.40322580645161,1.42258064516129,1.40645161290323,1.41612903225806,1.40322580645161,1.42258064516129,1.4258064516129,1.40967741935484,1.41612903225806,1.41612903225806,1.41290322580645,1.42258064516129,1.41935483870968,1.40967741935484,1.40322580645161,1.39032258064516,1.39677419354839,1.38709677419355,1.38709677419355,1.39677419354839,1.39032258064516,1.38064516129032,1.3741935483871,1.39032258064516,1.41290322580645,1.3741935483871,1.39032258064516,1.37096774193548,1.36451612903226,1.38709677419355,1.38709677419355,1.39677419354839,1.36774193548387,1.38387096774194,1.37096774193548,1.38387096774194,1.35806451612903,1.35483870967742,1.40645161290323,1.39354838709677,1.34838709677419,1.36774193548387,1.35806451612903,1.36129032258065,1.35806451612903,1.36774193548387,1.35483870967742,1.36451612903226,1.39032258064516,1.36451612903226,1.35161290322581,1.35806451612903,1.35161290322581,1.34516129032258,1.30645161290323,1.38387096774194,1.3741935483871,1.34838709677419,1.3741935483871,1.34193548387097,1.35806451612903,1.36451612903226,1.36451612903226,1.37096774193548,1.36129032258065,1.34193548387097,1.37741935483871,1.3741935483871,1.39677419354839,1.39032258064516,1.37741935483871,1.35161290322581,1.37096774193548,1.39354838709677,1.39677419354839,1.41290322580645,1.36451612903226,1.36774193548387,1.36129032258065,1.33548387096774,1.32903225806452,1.33548387096774,1.32258064516129,1.35806451612903,1.35483870967742,1.35806451612903,1.35806451612903,1.34193548387097,1.34516129032258,1.36451612903226,1.36129032258065,1.36129032258065,1.35806451612903,1.35161290322581,1.3258064516129,1.33548387096774,1.30322580645161,1.39032258064516,1.61612903225806,1.98064516129032,2.46129032258065,2.4741935483871,1.9258064516129,1.43870967741935,1.28709677419355,1.33548387096774,1.35483870967742,1.34516129032258,1.36129032258065,1.36129032258065,1.36451612903226,1.36451612903226,1.35806451612903,1.35161290322581,1.36451612903226,1.35806451612903,1.36129032258065,1.37096774193548,1.39354838709677,1.3741935483871,1.35806451612903,1.37741935483871,1.39354838709677,1.37741935483871,1.39354838709677,1.39677419354839,1.38709677419355,1.39677419354839,1.37741935483871,1.41290322580645,1.42258064516129,1.40967741935484,1.41935483870968,1.43225806451613,1.40967741935484,1.38064516129032,1.41935483870968,1.39677419354839,1.40322580645161,1.39677419354839,1.41935483870968,1.41612903225806,1.38064516129032,1.41290322580645,1.39677419354839,1.41290322580645,1.36451612903226,1.36129032258065,1.39032258064516,1.38709677419355,1.37096774193548,1.38387096774194,1.3741935483871,1.3741935483871,1.38709677419355,1.39032258064516,1.39032258064516,1.3741935483871,1.35483870967742,1.38709677419355,1.38709677419355,1.37741935483871,1.38387096774194,1.38064516129032,1.39032258064516,1.3741935483871,1.37096774193548,1.35806451612903,1.36774193548387,1.35483870967742,1.34193548387097,1.37741935483871,1.38387096774194,1.36451612903226,1.35483870967742,1.34838709677419,1.37741935483871,1.36129032258065,1.36129032258065,1.35483870967742,1.36129032258065,1.35161290322581,1.37741935483871,1.37096774193548,1.34838709677419,1.35161290322581,1.36451612903226,1.34838709677419,1.36451612903226,1.37096774193548,1.36774193548387,1.35483870967742,1.3741935483871,1.37741935483871,1.39032258064516,1.38709677419355,1.37741935483871,1.35806451612903,1.3741935483871,1.38064516129032,1.43870967741935,1.40967741935484,1.36451612903226,1.36129032258065,1.34516129032258,1.33548387096774,1.33225806451613,1.35483870967742,1.35161290322581,1.35161290322581,1.37096774193548,1.36451612903226,1.35161290322581,1.35161290322581,1.37096774193548,1.3741935483871,1.35483870967742,1.36774193548387,1.35161290322581,1.35483870967742,1.35806451612903,1.32258064516129,1.29032258064516,1.45483870967742,1.71612903225806,2.14516129032258,2.53870967741935,2.36129032258065,1.76129032258065,1.31612903225806,1.17741935483871,1.27096774193548,1.35161290322581,1.35483870967742,1.34516129032258,1.34838709677419,1.36451612903226,1.38709677419355,1.37741935483871,1.35161290322581,1.39354838709677,1.38064516129032,1.38387096774194,1.36774193548387,1.39032258064516,1.38064516129032,1.39354838709677,1.37741935483871,1.41290322580645,1.38064516129032,1.38387096774194,1.40645161290323,1.40645161290323,1.40322580645161,1.40967741935484,1.41290322580645,1.43225806451613,1.40967741935484,1.41612903225806,1.42258064516129,1.41612903225806,1.42903225806452,1.40645161290323,1.39677419354839,1.38709677419355,1.40645161290323,1.39032258064516,1.38387096774194,1.4258064516129,1.38709677419355,1.39677419354839,1.4,1.38709677419355,1.37096774193548,1.38064516129032,1.37741935483871,1.38064516129032,1.37096774193548,1.38064516129032,1.33870967741935,1.4,1.38709677419355,1.41290322580645,1.4,1.38709677419355,1.38709677419355,1.39032258064516,1.35483870967742,1.39354838709677,1.3741935483871,1.38387096774194,1.34838709677419,1.3741935483871,1.39354838709677,1.35483870967742,1.38064516129032,1.36451612903226,1.35806451612903,1.36451612903226,1.35483870967742,1.33870967741935,1.36451612903226,1.35806451612903,1.34838709677419,1.35483870967742,1.39032258064516,1.35161290322581,1.35806451612903,1.35483870967742,1.36774193548387,1.36451612903226,1.35483870967742,1.35483870967742,1.3741935483871,1.36774193548387,1.36774193548387,1.3741935483871,1.36774193548387,1.37096774193548,1.37096774193548,1.41290322580645,1.38064516129032,1.35483870967742,1.37741935483871,1.38387096774194,1.37741935483871,1.43548387096774,1.36451612903226,1.35483870967742,1.34516129032258,1.33548387096774,1.32903225806452,1.36129032258065,1.39354838709677,1.32258064516129,1.33870967741935,1.34516129032258,1.34838709677419,1.34516129032258,1.35161290322581,1.34193548387097,1.30322580645161,1.37741935483871,1.36129032258065,1.36451612903226,1.33548387096774,1.30967741935484,1.3,1.3741935483871,1.65161290322581,2.03548387096774,2.44516129032258,2.40967741935484,1.85806451612903,1.39354838709677,1.2,1.25806451612903,1.3258064516129,1.36129032258065,1.35483870967742,1.38064516129032,1.36451612903226,1.35806451612903,1.36129032258065,1.3741935483871,1.36129032258065,1.36451612903226,1.36129032258065,1.36774193548387,1.36774193548387,1.40645161290323,1.39032258064516,1.37741935483871,1.3741935483871,1.36451612903226,1.40322580645161,1.40645161290323,1.40322580645161,1.40967741935484,1.41612903225806,1.4,1.40322580645161,1.43548387096774,1.40967741935484,1.39677419354839,1.40322580645161,1.39677419354839,1.40967741935484,1.40645161290323,1.41290322580645,1.37741935483871,1.38064516129032,1.39354838709677,1.40967741935484,1.40967741935484,1.41612903225806,1.37096774193548,1.38387096774194,1.38064516129032,1.37096774193548,1.35806451612903,1.39032258064516,1.39354838709677,1.40967741935484,1.38064516129032,1.38064516129032,1.39354838709677,1.39032258064516,1.39354838709677,1.37096774193548,1.36129032258065,1.38387096774194,1.38387096774194,1.38709677419355,1.37096774193548,1.36774193548387,1.36451612903226,1.36451612903226,1.39032258064516,1.3741935483871,1.36774193548387,1.36129032258065,1.36129032258065,1.3741935483871,1.37741935483871,1.36774193548387,1.35483870967742,1.35161290322581,1.37096774193548,1.37096774193548,1.35483870967742,1.35806451612903,1.34838709677419,1.34838709677419,1.32258064516129,1.36774193548387,1.35806451612903,1.36129032258065,1.37096774193548,1.3741935483871,1.38064516129032,1.36451612903226,1.40645161290323,1.39354838709677,1.40967741935484,1.41935483870968,1.36451612903226,1.34193548387097,1.36129032258065,1.36451612903226,1.33225806451613,1.33870967741935,1.34516129032258,1.34193548387097,1.34838709677419,1.34516129032258,1.33225806451613,1.36774193548387,1.38387096774194,1.33225806451613,1.35483870967742,1.35483870967742,1.35483870967742,1.3741935483871,1.33548387096774,1.36774193548387,1.30645161290323,1.32903225806452,1.51290322580645,1.88064516129032,2.27096774193548,2.49032258064516,2.10645161290323,1.58709677419355,1.32258064516129,1.30967741935484,1.37741935483871,1.38709677419355,1.39677419354839,1.3741935483871,1.38064516129032,1.36451612903226,1.35483870967742,1.37096774193548,1.37096774193548,1.36129032258065,1.39354838709677,1.37741935483871,1.37741935483871,1.3741935483871,1.41290322580645,1.39032258064516,1.39677419354839,1.37741935483871,1.39677419354839,1.39677419354839,1.39677419354839,1.39677419354839,1.41290322580645,1.41935483870968,1.40645161290323,1.41612903225806,1.40645161290323,1.42258064516129,1.41290322580645,1.41612903225806,1.4,1.40322580645161,1.40967741935484,1.41290322580645,1.41935483870968,1.41612903225806,1.41612903225806,1.39354838709677,1.41612903225806,1.40322580645161,1.39032258064516,1.37741935483871,1.39354838709677,1.39032258064516,1.37096774193548,1.38064516129032,1.38064516129032,1.4,1.37741935483871,1.38387096774194,1.39677419354839,1.38387096774194,1.39032258064516,1.39677419354839,1.38709677419355,1.39677419354839,1.39032258064516,1.38709677419355,1.36451612903226,1.38064516129032,1.36774193548387,1.39354838709677,1.38064516129032,1.36129032258065,1.36774193548387,1.38709677419355,1.37096774193548,1.37096774193548,1.35161290322581,1.36451612903226,1.36451612903226,1.36774193548387,1.34838709677419,1.36774193548387,1.3741935483871,1.35161290322581,1.35483870967742,1.33870967741935,1.33870967741935,1.36451612903226,1.36129032258065,1.36129032258065,1.34838709677419,1.35483870967742,1.34838709677419,1.34193548387097,1.35806451612903,1.36129032258065,1.34193548387097,1.33870967741935,1.35806451612903,1.36129032258065,1.35161290322581,1.33870967741935,1.33548387096774,1.35161290322581,1.37096774193548,1.36451612903226,1.35483870967742,1.33870967741935,1.39677419354839,1.38064516129032,1.35161290322581,1.34838709677419,1.37096774193548,1.40645161290323,1.4,1.39032258064516,1.33548387096774,1.34516129032258,1.3258064516129,1.30322580645161,1.3258064516129,1.32258064516129,1.30967741935484,1.32258064516129,1.34516129032258,1.35161290322581,1.34193548387097,1.30967741935484,1.32903225806452,1.33870967741935,1.31612903225806,1.35161290322581,1.36774193548387,1.34193548387097,1.31290322580645,1.28064516129032,1.3258064516129,1.57096774193548,1.85806451612903,2.34516129032258,2.52903225806452,2.10645161290323,1.56774193548387,1.26451612903226,1.28064516129032,1.36129032258065,1.36129032258065,1.35483870967742,1.36129032258065,1.36129032258065,1.35483870967742,1.36129032258065,1.35483870967742,1.39032258064516,1.35806451612903,1.36451612903226,1.38064516129032,1.37741935483871,1.4,1.38064516129032,1.39032258064516,1.38709677419355,1.39032258064516,1.39677419354839,1.41612903225806,1.40322580645161,1.41290322580645,1.40645161290323,1.40645161290323,1.40322580645161,1.43548387096774,1.43870967741935,1.4258064516129,1.40967741935484,1.41612903225806,1.42258064516129,1.41612903225806,1.41612903225806,1.43225806451613,1.4258064516129,1.42258064516129,1.42258064516129,1.42903225806452,1.43548387096774,1.41612903225806,1.38387096774194,1.40967741935484,1.41935483870968,1.39354838709677,1.41612903225806,1.39032258064516,1.41935483870968,1.40967741935484,1.38709677419355,1.41612903225806,1.42258064516129,1.40967741935484,1.39677419354839,1.40645161290323,1.39032258064516,1.41935483870968,1.40967741935484,1.41612903225806,1.39354838709677,1.39354838709677,1.40967741935484,1.42903225806452,1.39354838709677,1.37096774193548,1.40322580645161,1.38387096774194,1.40645161290323,1.39032258064516,1.38064516129032,1.38387096774194,1.37741935483871,1.38709677419355,1.37741935483871,1.38709677419355,1.38064516129032,1.3741935483871,1.40645161290323,1.37096774193548,1.36774193548387,1.39354838709677,1.37741935483871,1.38387096774194,1.36774193548387,1.38387096774194,1.40645161290323,1.36774193548387,1.39677419354839,1.40645161290323,1.40645161290323,1.39677419354839,1.40322580645161,1.39032258064516,1.36129032258065,1.3741935483871,1.41935483870968,1.42258064516129,1.40967741935484,1.3741935483871,1.33225806451613,1.3258064516129,1.3258064516129,1.32258064516129,1.3258064516129,1.33548387096774,1.33548387096774,1.32258064516129,1.33225806451613,1.31935483870968,1.32903225806452,1.31612903225806,1.30967741935484,1.30645161290323,1.31290322580645,1.29032258064516,1.30322580645161,1.28387096774194,1.25161290322581,1.24838709677419,1.3741935483871,1.66774193548387,2.07741935483871,2.4258064516129,2.2,1.6258064516129,1.17741935483871,1.07741935483871,1.14838709677419,1.22258064516129,1.23870967741935,1.19354838709677
1.30322580645161,1.32903225806452,1.31935483870968,1.33548387096774,1.31935483870968,1.35806451612903,1.3258064516129,1.32903225806452,1.35483870967742,1.35483870967742,1.35161290322581,1.36129032258065,1.36451612903226,1.38387096774194,1.36451612903226,1.3741935483871,1.38064516129032,1.3741935483871,1.39032258064516,1.36774193548387,1.35806451612903,1.35161290322581,1.37096774193548,1.35483870967742,1.35161290322581,1.39354838709677,1.35806451612903,1.36774193548387,1.37096774193548,1.35806451612903,1.34516129032258,1.35483870967742,1.35161290322581,1.35806451612903,1.34838709677419,1.35806451612903,1.31935483870968,1.38064516129032,1.36774193548387,1.39677419354839,1.38387096774194,1.37096774193548,1.37096774193548,1.3741935483871,1.34193548387097,1.38387096774194,1.36451612903226,1.3741935483871,1.33870967741935,1.36451612903226,1.38387096774194,1.34838709677419,1.3741935483871,1.35806451612903,1.35161290322581,1.36129032258065,1.35161290322581,1.33548387096774,1.36129032258065,1.35806451612903,1.34838709677419,1.35483870967742,1.39354838709677,1.35483870967742,1.35806451612903,1.35806451612903,1.37096774193548,1.36774193548387,1.35806451612903,1.35806451612903,1.37741935483871,1.3741935483871,1.3741935483871,1.38387096774194,1.37741935483871,1.38064516129032,1.38064516129032,1.42258064516129,1.39032258064516,1.36451612903226,1.38709677419355,1.39354838709677,1.38709677419355,1.44838709677419,1.37741935483871,1.36774193548387,1.35806451612903,1.34838709677419,1.34193548387097,1.3741935483871,1.40645161290323,1.33548387096774,1.35161290322581,1.35806451612903,1.36451612903226,1.36129032258065,1.36451612903226,1.35483870967742,1.31935483870968,1.39032258064516,1.3741935483871,1.37741935483871,1.35161290322581,1.3258064516129,1.31612903225806,1.38709677419355,1.66451612903226,2.05161290322581,2.46129032258065,2.4258064516129,1.8741935483871,1.40645161290323,1.21612903225806,1.2741935483871,1.34193548387097,1.37741935483871,1.37096774193548,1.39677419354839,1.37741935483871,1.3741935483871,1.37741935483871,1.38709677419355,1.3741935483871,1.37741935483871,1.3741935483871,1.38064516129032,1.38064516129032,1.41935483870968,1.40322580645161,1.39032258064516,1.38709677419355,1.37741935483871,1.41612903225806,1.41612903225806,1.41612903225806,1.42258064516129,1.4258064516129,1.41290322580645,1.41290322580645,1.44516129032258,1.41935483870968,1.40645161290323,1.41290322580645,1.40645161290323,1.41612903225806,1.41612903225806,1.42258064516129,1.38709677419355,1.39032258064516,1.4,1.41935483870968,1.41612903225806,1.42258064516129,1.37741935483871,1.38709677419355,1.38387096774194,1.3741935483871,1.36129032258065,1.39354838709677,1.4,1.41290322580645,1.38387096774194,1.38387096774194,1.39354838709677,1.39032258064516,1.39354838709677,1.37096774193548,1.36129032258065,1.38709677419355,1.38387096774194,1.38709677419355,1.37096774193548,1.36774193548387,1.36451612903226,1.36451612903226,1.39032258064516,1.37096774193548,1.36451612903226,1.35806451612903,1.35806451612903,1.37096774193548,1.3741935483871,1.36451612903226,1.35161290322581,1.34838709677419,1.36774193548387,1.36774193548387,1.34838709677419,1.35483870967742,1.34193548387097,1.34193548387097,1.31612903225806,1.36129032258065,1.34838709677419,1.35483870967742,1.36451612903226,1.36451612903226,1.3741935483871,1.35806451612903,1.39677419354839,1.38709677419355,1.4,1.40967741935484,1.35483870967742,1.33225806451613,1.35161290322581,1.35483870967742,1.32258064516129,1.32903225806452,1.33225806451613,1.33225806451613,1.33870967741935,1.33548387096774,1.32258064516129,1.35483870967742,1.37096774193548,1.32258064516129,1.34516129032258,1.34193548387097,1.34193548387097,1.36129032258065,1.3258064516129,1.35483870967742,1.29677419354839,1.31612903225806,1.5,1.86774193548387,2.25806451612903,2.47741935483871,2.09677419354839,1.5741935483871,1.30967741935484,1.3,1.36451612903226,1.37741935483871,1.38387096774194,1.36451612903226,1.37096774193548,1.35483870967742,1.34516129032258,1.36129032258065,1.35806451612903,1.35161290322581,1.38064516129032,1.36774193548387,1.36774193548387,1.36451612903226,1.40322580645161,1.37741935483871,1.38709677419355,1.36774193548387,1.38709677419355,1.38709677419355,1.38709677419355,1.38709677419355,1.40645161290323,1.40967741935484,1.39677419354839,1.40967741935484,1.4,1.41290322580645,1.40322580645161,1.40967741935484,1.39354838709677,1.39677419354839,1.40322580645161,1.40645161290323,1.41290322580645,1.40967741935484,1.41290322580645,1.39032258064516,1.40967741935484,1.4,1.38387096774194,1.3741935483871,1.39032258064516,1.38709677419355,1.36774193548387,1.38064516129032,1.37741935483871,1.4,1.3741935483871,1.38387096774194,1.39677419354839,1.38387096774194,1.39032258064516,1.4,1.38709677419355,1.39677419354839,1.39354838709677,1.38709677419355,1.36774193548387,1.38387096774194,1.3741935483871,1.4,1.38387096774194,1.36774193548387,1.3741935483871,1.39032258064516,1.37741935483871,1.37741935483871,1.35806451612903,1.37096774193548,1.3741935483871,1.3741935483871,1.35806451612903,1.37741935483871,1.38387096774194,1.36129032258065,1.36451612903226,1.34838709677419,1.34838709677419,1.3741935483871,1.37096774193548,1.37096774193548,1.36129032258065,1.36774193548387,1.36129032258065,1.35483870967742,1.37096774193548,1.37741935483871,1.35483870967742,1.35483870967742,1.37096774193548,1.3741935483871,1.36451612903226,1.35483870967742,1.35161290322581,1.36451612903226,1.38709677419355,1.38064516129032,1.37096774193548,1.35483870967742,1.41290322580645,1.39677419354839,1.36774193548387,1.36774193548387,1.38709677419355,1.42258064516129,1.41612903225806,1.40645161290323,1.35161290322581,1.36129032258065,1.34193548387097,1.32258064516129,1.34193548387097,1.33870967741935,1.32903225806452,1.33870967741935,1.36129032258065,1.37096774193548,1.35806451612903,1.3258064516129,1.34516129032258,1.35483870967742,1.33225806451613,1.36774193548387,1.38387096774194,1.35806451612903,1.3258064516129,1.29354838709677,1.34193548387097,1.58387096774194,1.87096774193548,2.35806451612903,2.54193548387097,2.11935483870968,1.58064516129032,1.27741935483871,1.29032258064516,1.3741935483871,1.37096774193548,1.36451612903226,1.37096774193548,1.37096774193548,1.36129032258065,1.37096774193548,1.36451612903226,1.39677419354839,1.36451612903226,1.37096774193548,1.38709677419355,1.38387096774194,1.40322580645161,1.38387096774194,1.39354838709677,1.39032258064516,1.39032258064516,1.39677419354839,1.41612903225806,1.40322580645161,1.41290322580645,1.40322580645161,1.40322580645161,1.39677419354839,1.43225806451613,1.43225806451613,1.41935483870968,1.40322580645161,1.40967741935484,1.41612903225806,1.40645161290323,1.40322580645161,1.41935483870968,1.41290322580645,1.40967741935484,1.40967741935484,1.41290322580645,1.41935483870968,1.39677419354839,1.36451612903226,1.39032258064516,1.4,1.37096774193548,1.39354838709677,1.36774193548387,1.39677419354839,1.38709677419355,1.36451612903226,1.39032258064516,1.39677419354839,1.38064516129032,1.37096774193548,1.38064516129032,1.36129032258065,1.38709677419355,1.38064516129032,1.38387096774194,1.36451612903226,1.36129032258065,1.37741935483871,1.39677419354839,1.36129032258065,1.33548387096774,1.36774193548387,1.35161290322581,1.37096774193548,1.35483870967742,1.34516129032258,1.34838709677419,1.33870967741935,1.35161290322581,1.34193548387097,1.35161290322581,1.34516129032258,1.33870967741935,1.37096774193548,1.33548387096774,1.33225806451613,1.35806451612903,1.34516129032258,1.34838709677419,1.33225806451613,1.35161290322581,1.37741935483871,1.33870967741935,1.36774193548387,1.38064516129032,1.38064516129032,1.37096774193548,1.38064516129032,1.36774193548387,1.34193548387097,1.35483870967742,1.4,1.40967741935484,1.39677419354839,1.36451612903226,1.3258064516129,1.32258064516129,1.32258064516129,1.32258064516129,1.32903225806452,1.34193548387097,1.34838709677419,1.33548387096774,1.35161290322581,1.33870967741935,1.35483870967742,1.34516129032258,1.34516129032258,1.34516129032258,1.35483870967742,1.33870967741935,1.35806451612903,1.34516129032258,1.31290322580645,1.31612903225806,1.45161290322581,1.75161290322581,2.16774193548387,2.51935483870968,2.30322580645161,1.73225806451613,1.29354838709677,1.20322580645161,1.28064516129032,1.36451612903226,1.38709677419355,1.35161290322581,1.35483870967742,1.34838709677419,1.4,1.38064516129032,1.37096774193548,1.36451612903226,1.37741935483871,1.39032258064516,1.39354838709677,1.38064516129032,1.37096774193548,1.40645161290323,1.39354838709677,1.4,1.39032258064516,1.40967741935484,1.4,1.39677419354839,1.40645161290323,1.4258064516129,1.41612903225806,1.41612903225806,1.4258064516129,1.39354838709677,1.43225806451613,1.4258064516129,1.40967741935484,1.39032258064516,1.41935483870968,1.40645161290323,1.43225806451613,1.40645161290323,1.40645161290323,1.40645161290323,1.40322580645161,1.40967741935484,1.39032258064516,1.37741935483871,1.39032258064516,1.37741935483871,1.38709677419355,1.36774193548387,1.39032258064516,1.41290322580645,1.39354838709677,1.39677419354839,1.3741935483871,1.35806451612903,1.40967741935484,1.41935483870968,1.38387096774194,1.40645161290323,1.38709677419355,1.4,1.38709677419355,1.40322580645161,1.38387096774194,1.3741935483871,1.36451612903226,1.3741935483871,1.4,1.38387096774194,1.36451612903226,1.35806451612903,1.35806451612903,1.36451612903226,1.38064516129032,1.38064516129032,1.36774193548387,1.35806451612903,1.35161290322581,1.36451612903226,1.3741935483871,1.35161290322581,1.34516129032258,1.35483870967742,1.35806451612903,1.35483870967742,1.38064516129032,1.34193548387097,1.35806451612903,1.35161290322581,1.35806451612903,1.36129032258065,1.36774193548387,1.39032258064516,1.39032258064516,1.3741935483871,1.35483870967742,1.37096774193548,1.3741935483871,1.37096774193548,1.42258064516129,1.39677419354839,1.36774193548387,1.35161290322581,1.33225806451613,1.33225806451613,1.3258064516129,1.33870967741935,1.33870967741935,1.32903225806452,1.33870967741935,1.34193548387097,1.37096774193548,1.37096774193548,1.34838709677419,1.36129032258065,1.34516129032258,1.35483870967742,1.35806451612903,1.35806451612903,1.30967741935484,1.30645161290323,1.32903225806452,1.56129032258065,1.90645161290323,2.34193548387097,2.5,2.04516129032258,1.51935483870968,1.23870967741935,1.25483870967742,1.30967741935484,1.39677419354839,1.37096774193548,1.35483870967742,1.35483870967742,1.36129032258065,1.3741935483871,1.38387096774194,1.36451612903226,1.38064516129032,1.36129032258065,1.37096774193548,1.39354838709677,1.37741935483871,1.36774193548387,1.39354838709677,1.38064516129032,1.41290322580645,1.40967741935484,1.39032258064516,1.39677419354839,1.38387096774194,1.40967741935484,1.40967741935484,1.42258064516129,1.41935483870968,1.41612903225806,1.41612903225806,1.40967741935484,1.4,1.39354838709677,1.39677419354839,1.40322580645161,1.39677419354839,1.40645161290323,1.40322580645161,1.40967741935484,1.39354838709677,1.39677419354839,1.38387096774194,1.38064516129032,1.38709677419355,1.4,1.36451612903226,1.37741935483871,1.39032258064516,1.37741935483871,1.37741935483871,1.37096774193548,1.39032258064516,1.37741935483871,1.4,1.38709677419355,1.38064516129032,1.39032258064516,1.38064516129032,1.39354838709677,1.37741935483871,1.38064516129032,1.37741935483871,1.37096774193548,1.36774193548387,1.38064516129032,1.37741935483871,1.36451612903226,1.36774193548387,1.35806451612903,1.36774193548387,1.38387096774194,1.35483870967742,1.36451612903226,1.37096774193548,1.37741935483871,1.36451612903226,1.36774193548387,1.34193548387097,1.36451612903226,1.35483870967742,1.33870967741935,1.38387096774194,1.38064516129032,1.35161290322581,1.36129032258065,1.3741935483871,1.36774193548387,1.36129032258065,1.3741935483871,1.37741935483871,1.37096774193548,1.3741935483871,1.38709677419355,1.39354838709677,1.38709677419355,1.38064516129032,1.36774193548387,1.35806451612903,1.4,1.39677419354839,1.41290322580645,1.38064516129032,1.34838709677419,1.34516129032258,1.35161290322581,1.33870967741935,1.33870967741935,1.34516129032258,1.34516129032258,1.36129032258065,1.35483870967742,1.34516129032258,1.35806451612903,1.35806451612903,1.38387096774194,1.34516129032258,1.34193548387097,1.35806451612903,1.36451612903226,1.33870967741935,1.31290322580645,1.3,1.42258064516129,1.69677419354839,2.08387096774194,2.49032258064516,2.30322580645161,1.77741935483871,1.36774193548387,1.26774193548387,1.34838709677419,1.3741935483871,1.36451612903226,1.35483870967742,1.36129032258065,1.35806451612903,1.35483870967742,1.36451612903226,1.36451612903226,1.35483870967742,1.34516129032258,1.35483870967742,1.35806451612903,1.38709677419355,1.38064516129032,1.37741935483871,1.36774193548387,1.36451612903226,1.36129032258065,1.38064516129032,1.37741935483871,1.39032258064516,1.37741935483871,1.37741935483871,1.40322580645161,1.4,1.40967741935484,1.40322580645161,1.38064516129032,1.4,1.39677419354839,1.39677419354839,1.38387096774194,1.39032258064516,1.38387096774194,1.39032258064516,1.40645161290323,1.38387096774194,1.38064516129032,1.38387096774194,1.35483870967742,1.37096774193548,1.35483870967742,1.35806451612903,1.36451612903226,1.34516129032258,1.36774193548387,1.37741935483871,1.35161290322581,1.36774193548387,1.3741935483871,1.3741935483871,1.37096774193548,1.35483870967742,1.38064516129032,1.37096774193548,1.36451612903226,1.37741935483871,1.35483870967742,1.36451612903226,1.35483870967742,1.37096774193548,1.38709677419355,1.38387096774194,1.41290322580645,1.42903225806452,1.44193548387097,1.39354838709677,1.35806451612903,1.33225806451613,1.33225806451613,1.32903225806452,1.33870967741935,1.34193548387097,1.34516129032258,1.35161290322581,1.34838709677419,1.34193548387097,1.35161290322581,1.34516129032258,1.33870967741935,1.34838709677419,1.34838709677419,1.34838709677419,1.35161290322581,1.35161290322581,1.34193548387097,1.35483870967742,1.35161290322581,1.31935483870968,1.3,1.34516129032258,1.56129032258065,1.92258064516129,2.36774193548387,2.48064516129032,1.98387096774194,1.47096774193548,1.26129032258065,1.2741935483871,1.3258064516129,1.33870967741935,1.38064516129032,1.36451612903226,1.36451612903226,1.36774193548387,1.37096774193548,1.36129032258065,1.36451612903226,1.36451612903226,1.37741935483871,1.36451612903226,1.36451612903226,1.37096774193548,1.39032258064516,1.38064516129032,1.39354838709677,1.37741935483871,1.38709677419355,1.40645161290323,1.40645161290323,1.4,1.40645161290323,1.41935483870968,1.41612903225806,1.43225806451613,1.4258064516129,1.41935483870968,1.41935483870968,1.4258064516129,1.41612903225806,1.41290322580645,1.42903225806452,1.43548387096774,1.43225806451613,1.4258064516129,1.41612903225806,1.39032258064516,1.38709677419355,1.40322580645161,1.38709677419355,1.37741935483871,1.36774193548387,1.38064516129032,1.38064516129032,1.38387096774194,1.40322580645161,1.39032258064516,1.37096774193548,1.38064516129032,1.38709677419355,1.38387096774194,1.37741935483871,1.36774193548387,1.4,1.38709677419355,1.37741935483871,1.37096774193548,1.36129032258065,1.35161290322581,1.3741935483871,1.35806451612903,1.36451612903226,1.36451612903226,1.35806451612903,1.35161290322581,1.36774193548387,1.37096774193548,1.37741935483871,1.34838709677419,1.37741935483871,1.37741935483871,1.36774193548387,1.3741935483871,1.35806451612903,1.35483870967742,1.39354838709677,1.34838709677419,1.36129032258065,1.36129032258065,1.38387096774194,1.37096774193548,1.35161290322581,1.36774193548387,1.34516129032258,1.36129032258065,1.35161290322581,1.37741935483871,1.36129032258065,1.35806451612903,1.36774193548387,1.35806451612903,1.38709677419355,1.38709677419355,1.36129032258065,1.37096774193548,1.38709677419355,1.36451612903226,1.35161290322581,1.36451612903226,1.36129032258065,1.36774193548387,1.35483870967742,1.35483870967742,1.37741935483871,1.37741935483871,1.38709677419355,1.39354838709677,1.40967741935484,1.36451612903226,1.37096774193548,1.38064516129032,1.3741935483871,1.39032258064516,1.39032258064516,1.39354838709677,1.38387096774194,1.40645161290323,1.38387096774194,1.37741935483871,1.40322580645161,1.39354838709677,1.46129032258065,1.43225806451613,1.39677419354839,1.35806451612903,1.34838709677419,1.3258064516129,1.35161290322581,1.38387096774194,1.35483870967742,1.35161290322581,1.36129032258065,1.35483870967742,1.36451612903226,1.36774193548387,1.36451612903226,1.37096774193548,1.37741935483871,1.35806451612903,1.38387096774194,1.35483870967742,1.31612903225806,1.31935483870968,1.51290322580645,1.85483870967742,2.29677419354839,2.57096774193548,2.19354838709677,1.63870967741935,1.24516129032258,1.25161290322581,1.34838709677419,1.37096774193548,1.3741935483871,1.38387096774194,1.38709677419355,1.38064516129032,1.40645161290323,1.38064516129032,1.3741935483871,1.38064516129032,1.37741935483871,1.38709677419355,1.38387096774194,1.38064516129032,1.39354838709677,1.41935483870968,1.4,1.38709677419355,1.39354838709677,1.39354838709677,1.41612903225806,1.41612903225806,1.41612903225806,1.4258064516129,1.40645161290323,1.41612903225806,1.41935483870968,1.40645161290323,1.41935483870968,1.41612903225806,1.41290322580645,1.39677419354839,1.40967741935484,1.4,1.40645161290323,1.38709677419355,1.42258064516129,1.41290322580645,1.40645161290323,1.4,1.41612903225806,1.38064516129032,1.39677419354839,1.4,1.3741935483871,1.4,1.38709677419355,1.37741935483871,1.4,1.38709677419355,1.38387096774194,1.37741935483871,1.39354838709677,1.39354838709677,1.38387096774194,1.39677419354839,1.37096774193548,1.38387096774194,1.38064516129032,1.37741935483871,1.37096774193548,1.39677419354839,1.35806451612903,1.36129032258065,1.36774193548387,1.35161290322581,1.36774193548387,1.35483870967742,1.35161290322581,1.33870967741935,1.34838709677419,1.35806451612903,1.35161290322581,1.34516129032258,1.35483870967742,1.32903225806452,1.35161290322581,1.37096774193548,1.35161290322581,1.34193548387097,1.35161290322581,1.36774193548387,1.33870967741935,1.36129032258065,1.33548387096774,1.34193548387097,1.34193548387097,1.34516129032258,1.31935483870968,1.36129032258065,1.36451612903226,1.36129032258065,1.35483870967742,1.34838709677419,1.36774193548387,1.36129032258065,1.41290322580645,1.3741935483871,1.34193548387097,1.35483870967742,1.36774193548387,1.39032258064516,1.4258064516129,1.39032258064516,1.33870967741935,1.33225806451613,1.31935483870968,1.32258064516129,1.34838709677419,1.33548387096774,1.34516129032258,1.34838709677419,1.33225806451613,1.36451612903226,1.35161290322581,1.36451612903226,1.34193548387097,1.35806451612903,1.35806451612903,1.34838709677419,1.35483870967742,1.33870967741935,1.31290322580645,1.28064516129032,1.35806451612903,1.61612903225806,1.97096774193548,2.43225806451613,2.43548387096774,1.9258064516129,1.4258064516129,1.28064516129032,1.32258064516129,1.34516129032258,1.36129032258065,1.36129032258065,1.3741935483871,1.35806451612903,1.35161290322581,1.35161290322581,1.3741935483871,1.38387096774194,1.37096774193548,1.35806451612903,1.35806451612903,1.39032258064516,1.38064516129032,1.37741935483871,1.39032258064516,1.38709677419355,1.37096774193548,1.39032258064516,1.40322580645161,1.39677419354839,1.39032258064516,1.40967741935484,1.41612903225806,1.40322580645161,1.4,1.39677419354839,1.42258064516129,1.40967741935484,1.39677419354839,1.39677419354839,1.4,1.41612903225806,1.39032258064516,1.39677419354839,1.41290322580645,1.39032258064516,1.4,1.38709677419355,1.39677419354839,1.39354838709677,1.38387096774194,1.39032258064516,1.36451612903226,1.39354838709677,1.40322580645161,1.38709677419355,1.39354838709677,1.38387096774194,1.39032258064516,1.38387096774194,1.40322580645161,1.39032258064516,1.38064516129032,1.39677419354839,1.38064516129032,1.40322580645161,1.40322580645161,1.40645161290323,1.39354838709677,1.38387096774194,1.39677419354839,1.39354838709677,1.39354838709677,1.38709677419355,1.38064516129032,1.35806451612903,1.41290322580645,1.40322580645161,1.40645161290323,1.39032258064516,1.37741935483871,1.40322580645161,1.38387096774194,1.39032258064516,1.36774193548387,1.40322580645161,1.39677419354839,1.38709677419355,1.39032258064516,1.37741935483871,1.38064516129032,1.39032258064516,1.39354838709677,1.38387096774194,1.37741935483871,1.39032258064516,1.41612903225806,1.41290322580645,1.38064516129032,1.41612903225806,1.4258064516129,1.40967741935484,1.4,1.39677419354839,1.41935483870968,1.41935483870968,1.44193548387097,1.4741935483871,1.40967741935484,1.40322580645161,1.38387096774194,1.36129032258065,1.39677419354839,1.41290322580645,1.40322580645161,1.39677419354839,1.41290322580645,1.39677419354839,1.38387096774194,1.43548387096774,1.41935483870968,1.4,1.40645161290323
1.27741935483871,1.27741935483871,1.29032258064516,1.28387096774194,1.30967741935484,1.29354838709677,1.30967741935484,1.31290322580645,1.31612903225806,1.31290322580645,1.3258064516129,1.31290322580645,1.32903225806452,1.3258064516129,1.33548387096774,1.34838709677419,1.36129032258065,1.32903225806452,1.36774193548387,1.35806451612903,1.35806451612903,1.34516129032258,1.35483870967742,1.36129032258065,1.36451612903226,1.36451612903226,1.35161290322581,1.35161290322581,1.37096774193548,1.37096774193548,1.35161290322581,1.36129032258065,1.36129032258065,1.34838709677419,1.33548387096774,1.33870967741935,1.34193548387097,1.33870967741935,1.35806451612903,1.35161290322581,1.31935483870968,1.37741935483871,1.39677419354839,1.38387096774194,1.33548387096774,1.36129032258065,1.35161290322581,1.35806451612903,1.33225806451613,1.36774193548387,1.40645161290323,1.36774193548387,1.34516129032258,1.35806451612903,1.35806451612903,1.35483870967742,1.36451612903226,1.38387096774194,1.38064516129032,1.32258064516129,1.35161290322581,1.36129032258065,1.35806451612903,1.37096774193548,1.37741935483871,1.35806451612903,1.38387096774194,1.39032258064516,1.35161290322581,1.3741935483871,1.37096774193548,1.35161290322581,1.38709677419355,1.35806451612903,1.3741935483871,1.38064516129032,1.38064516129032,1.3741935483871,1.31935483870968,1.39354838709677,1.3741935483871,1.35806451612903,1.37096774193548,1.35806451612903,1.35806451612903,1.40322580645161,1.36451612903226,1.3741935483871,1.36129032258065,1.36451612903226,1.36129032258065,1.39354838709677,1.40322580645161,1.37741935483871,1.37096774193548,1.36451612903226,1.3741935483871,1.4,1.40322580645161,1.39677419354839,1.39354838709677,1.38387096774194,1.4258064516129,1.4258064516129,1.4,1.39354838709677,1.4,1.42903225806452,1.42258064516129,1.43548387096774,1.40967741935484,1.37741935483871,1.36774193548387,1.36451612903226,1.3741935483871,1.37741935483871,1.35806451612903,1.37741935483871,1.35483870967742,1.39677419354839,1.38387096774194,1.37741935483871,1.3741935483871,1.38064516129032,1.37741935483871,1.37096774193548,1.38709677419355,1.38709677419355,1.34516129032258,1.32258064516129,1.37741935483871,1.5741935483871,1.91935483870968,2.38709677419355,2.51612903225806,2.05161290322581,1.53870967741935,1.33870967741935,1.35806451612903,1.35806451612903,1.38064516129032,1.38387096774194,1.3741935483871,1.36129032258065,1.38064516129032,1.39032258064516,1.38064516129032,1.38709677419355,1.38064516129032,1.3741935483871,1.3741935483871,1.38709677419355,1.38709677419355,1.38387096774194,1.38064516129032,1.40645161290323,1.38709677419355,1.40645161290323,1.4,1.39032258064516,1.40322580645161,1.40645161290323,1.39032258064516,1.41612903225806,1.41612903225806,1.43225806451613,1.40967741935484,1.41612903225806,1.41290322580645,1.41612903225806,1.40967741935484,1.41935483870968,1.40645161290323,1.40645161290323,1.40322580645161,1.41612903225806,1.40645161290323,1.41612903225806,1.4,1.38709677419355,1.38387096774194,1.35806451612903,1.39677419354839,1.39032258064516,1.36774193548387,1.38387096774194,1.38064516129032,1.4,1.39032258064516,1.38387096774194,1.38387096774194,1.39354838709677,1.38709677419355,1.36774193548387,1.4,1.38064516129032,1.38387096774194,1.37741935483871,1.38064516129032,1.38064516129032,1.35806451612903,1.36774193548387,1.35483870967742,1.35161290322581,1.37741935483871,1.35806451612903,1.36774193548387,1.34838709677419,1.35806451612903,1.36774193548387,1.36451612903226,1.35161290322581,1.36451612903226,1.35806451612903,1.36129032258065,1.32258064516129,1.34838709677419,1.35483870967742,1.35483870967742,1.35161290322581,1.34516129032258,1.36129032258065,1.3741935483871,1.33548387096774,1.35161290322581,1.35806451612903,1.37096774193548,1.38709677419355,1.36774193548387,1.35161290322581,1.35483870967742,1.39032258064516,1.40322580645161,1.4,1.37741935483871,1.35161290322581,1.33870967741935,1.31612903225806,1.33225806451613,1.34838709677419,1.31612903225806,1.33548387096774,1.3258064516129,1.34193548387097,1.34516129032258,1.32903225806452,1.31612903225806,1.35161290322581,1.34193548387097,1.33870967741935,1.34516129032258,1.35483870967742,1.33548387096774,1.33225806451613,1.29677419354839,1.30967741935484,1.46129032258065,1.76774193548387,2.19354838709677,2.58064516129032,2.29032258064516,1.71612903225806,1.28064516129032,1.21290322580645,1.30967741935484,1.34516129032258,1.36129032258065,1.35483870967742,1.35483870967742,1.36129032258065,1.36774193548387,1.35161290322581,1.34838709677419,1.36129032258065,1.36451612903226,1.3741935483871,1.3741935483871,1.38064516129032,1.36129032258065,1.36451612903226,1.36774193548387,1.39032258064516,1.37741935483871,1.3741935483871,1.39354838709677,1.38387096774194,1.40645161290323,1.4,1.4,1.41935483870968,1.41935483870968,1.4,1.43548387096774,1.40322580645161,1.39677419354839,1.41290322580645,1.39354838709677,1.39354838709677,1.40967741935484,1.41290322580645,1.40645161290323,1.41290322580645,1.39032258064516,1.40645161290323,1.38387096774194,1.3741935483871,1.37096774193548,1.39032258064516,1.35806451612903,1.39032258064516,1.38709677419355,1.3741935483871,1.3741935483871,1.37741935483871,1.39677419354839,1.38387096774194,1.38064516129032,1.40967741935484,1.39032258064516,1.35806451612903,1.38709677419355,1.40322580645161,1.38387096774194,1.3741935483871,1.34838709677419,1.37741935483871,1.36129032258065,1.3741935483871,1.38064516129032,1.35161290322581,1.36451612903226,1.35806451612903,1.35161290322581,1.38064516129032,1.35483870967742,1.35161290322581,1.33548387096774,1.35806451612903,1.35806451612903,1.35806451612903,1.34516129032258,1.35483870967742,1.34516129032258,1.34516129032258,1.36451612903226,1.34516129032258,1.34516129032258,1.36774193548387,1.35806451612903,1.37096774193548,1.38064516129032,1.3741935483871,1.36774193548387,1.39032258064516,1.37741935483871,1.38387096774194,1.39032258064516,1.39677419354839,1.43225806451613,1.39032258064516,1.35806451612903,1.36129032258065,1.34516129032258,1.3258064516129,1.37096774193548,1.35806451612903,1.34838709677419,1.34838709677419,1.35161290322581,1.35806451612903,1.3741935483871,1.3741935483871,1.36451612903226,1.35483870967742,1.36129032258065,1.38709677419355,1.34516129032258,1.35806451612903,1.3258064516129,1.29677419354839,1.39032258064516,1.64193548387097,2.03870967741935,2.47096774193548,2.43548387096774,1.90645161290323,1.42258064516129,1.2,1.26451612903226,1.34193548387097,1.38064516129032,1.37096774193548,1.38064516129032,1.37741935483871,1.38387096774194,1.38064516129032,1.39677419354839,1.39032258064516,1.36451612903226,1.38387096774194,1.37096774193548,1.37741935483871,1.38387096774194,1.38064516129032,1.38387096774194,1.40967741935484,1.39032258064516,1.4,1.39032258064516,1.40322580645161,1.4,1.41290322580645,1.41935483870968,1.41612903225806,1.40645161290323,1.40967741935484,1.40967741935484,1.40322580645161,1.41290322580645,1.39354838709677,1.38064516129032,1.38709677419355,1.38064516129032,1.41612903225806,1.40322580645161,1.40967741935484,1.38387096774194,1.38387096774194,1.38387096774194,1.37741935483871,1.40645161290323,1.38064516129032,1.39354838709677,1.3741935483871,1.38387096774194,1.37741935483871,1.37741935483871,1.39032258064516,1.38387096774194,1.38709677419355,1.37096774193548,1.38064516129032,1.4,1.38387096774194,1.37741935483871,1.38064516129032,1.38064516129032,1.3741935483871,1.34838709677419,1.37096774193548,1.37741935483871,1.37741935483871,1.37741935483871,1.37096774193548,1.33225806451613,1.37096774193548,1.38709677419355,1.3741935483871,1.33870967741935,1.37096774193548,1.36129032258065,1.3741935483871,1.36129032258065,1.34193548387097,1.37096774193548,1.36774193548387,1.3741935483871,1.36129032258065,1.35806451612903,1.35161290322581,1.36129032258065,1.34193548387097,1.36129032258065,1.35483870967742,1.37096774193548,1.37096774193548,1.33225806451613,1.37096774193548,1.38387096774194,1.4,1.40322580645161,1.36129032258065,1.35806451612903,1.4,1.4,1.4,1.40645161290323,1.35483870967742,1.33870967741935,1.34193548387097,1.35806451612903,1.34516129032258,1.33870967741935,1.33225806451613,1.35483870967742,1.37096774193548,1.34838709677419,1.36451612903226,1.34516129032258,1.34838709677419,1.36451612903226,1.37096774193548,1.35806451612903,1.35483870967742,1.34516129032258,1.33870967741935,1.27741935483871,1.35483870967742,1.55806451612903,1.90322580645161,2.36451612903226,2.49677419354839,2.03225806451613,1.51612903225806,1.30322580645161,1.31612903225806,1.35161290322581,1.37096774193548,1.34516129032258,1.37096774193548,1.37096774193548,1.38387096774194,1.36129032258065,1.37096774193548,1.38709677419355,1.3741935483871,1.35806451612903,1.36774193548387,1.38387096774194,1.39677419354839,1.39354838709677,1.38064516129032,1.39354838709677,1.41290322580645,1.4,1.39354838709677,1.38387096774194,1.4,1.39354838709677,1.40645161290323,1.39677419354839,1.41935483870968,1.41935483870968,1.38064516129032,1.40322580645161,1.4,1.4,1.38064516129032,1.39677419354839,1.3741935483871,1.39354838709677,1.40322580645161,1.4,1.4,1.38064516129032,1.38387096774194,1.38064516129032,1.37741935483871,1.33870967741935,1.38387096774194,1.39032258064516,1.39032258064516,1.37096774193548,1.3741935483871,1.37741935483871,1.38387096774194,1.36774193548387,1.38709677419355,1.36451612903226,1.38387096774194,1.38387096774194,1.37741935483871,1.38064516129032,1.38064516129032,1.40322580645161,1.38064516129032,1.3741935483871,1.36129032258065,1.36774193548387,1.35806451612903,1.36129032258065,1.36451612903226,1.35806451612903,1.38709677419355,1.37096774193548,1.36774193548387,1.34193548387097,1.38709677419355,1.35806451612903,1.35483870967742,1.36129032258065,1.35806451612903,1.34838709677419,1.35483870967742,1.36451612903226,1.35483870967742,1.37096774193548,1.35483870967742,1.34838709677419,1.35483870967742,1.36451612903226,1.35161290322581,1.37096774193548,1.3741935483871,1.38387096774194,1.39354838709677,1.38064516129032,1.3741935483871,1.36451612903226,1.40645161290323,1.40645161290323,1.40322580645161,1.36774193548387,1.34838709677419,1.34838709677419,1.34193548387097,1.33225806451613,1.32903225806452,1.34516129032258,1.38387096774194,1.32903225806452,1.32903225806452,1.34516129032258,1.34193548387097,1.34516129032258,1.33870967741935,1.34838709677419,1.35806451612903,1.36129032258065,1.35483870967742,1.34838709677419,1.33225806451613,1.30967741935484,1.44193548387097,1.74516129032258,2.14838709677419,2.52903225806452,2.33548387096774,1.76451612903226,1.29354838709677,1.28709677419355,1.35806451612903,1.36451612903226,1.36129032258065,1.39032258064516,1.35806451612903,1.35483870967742,1.36129032258065,1.35483870967742,1.36451612903226,1.37096774193548,1.39032258064516,1.36451612903226,1.36129032258065,1.37741935483871,1.37741935483871,1.36129032258065,1.36774193548387,1.38709677419355,1.39032258064516,1.37096774193548,1.38064516129032,1.3741935483871,1.41612903225806,1.40645161290323,1.39677419354839,1.40322580645161,1.4,1.41290322580645,1.40322580645161,1.40322580645161,1.39354838709677,1.42258064516129,1.41935483870968,1.40322580645161,1.41612903225806,1.3741935483871,1.39032258064516,1.42258064516129,1.4,1.39677419354839,1.38064516129032,1.37741935483871,1.3741935483871,1.36774193548387,1.38709677419355,1.37741935483871,1.38709677419355,1.38064516129032,1.39032258064516,1.39032258064516,1.38709677419355,1.39677419354839,1.37741935483871,1.3741935483871,1.3741935483871,1.38709677419355,1.3741935483871,1.39354838709677,1.38064516129032,1.3741935483871,1.38064516129032,1.38709677419355,1.35483870967742,1.34193548387097,1.37096774193548,1.36129032258065,1.36774193548387,1.35161290322581,1.3741935483871,1.36774193548387,1.36129032258065,1.35161290322581,1.33225806451613,1.36774193548387,1.36774193548387,1.37096774193548,1.34193548387097,1.34516129032258,1.35161290322581,1.35806451612903,1.38387096774194,1.37096774193548,1.38709677419355,1.38387096774194,1.38387096774194,1.35806451612903,1.43548387096774,1.41290322580645,1.39677419354839,1.3741935483871,1.35806451612903,1.34193548387097,1.33225806451613,1.33870967741935,1.33548387096774,1.34838709677419,1.34838709677419,1.33225806451613,1.32903225806452,1.35161290322581,1.35483870967742,1.33548387096774,1.34193548387097,1.35483870967742,1.34193548387097,1.3258064516129,1.34193548387097,1.37096774193548,1.36451612903226,1.28709677419355,1.31935483870968,1.51612903225806,1.86129032258065,2.32903225806452,2.54838709677419,2.13548387096774,1.57096774193548,1.21612903225806,1.21290322580645,1.31935483870968,1.3741935483871,1.36774193548387,1.35161290322581,1.36451612903226,1.36129032258065,1.36451612903226,1.37741935483871,1.3741935483871,1.35806451612903,1.38387096774194,1.38709677419355,1.38709677419355,1.37741935483871,1.4,1.38709677419355,1.38709677419355,1.3741935483871,1.39032258064516,1.39354838709677,1.40645161290323,1.38709677419355,1.41935483870968,1.4258064516129,1.4258064516129,1.4,1.41935483870968,1.44193548387097,1.42258064516129,1.41290322580645,1.40322580645161,1.40645161290323,1.39354838709677,1.40645161290323,1.40967741935484,1.40967741935484,1.40322580645161,1.41290322580645,1.38387096774194,1.38709677419355,1.40322580645161,1.37741935483871,1.37741935483871,1.36129032258065,1.37741935483871,1.38387096774194,1.38064516129032,1.39677419354839,1.38387096774194,1.39354838709677,1.35806451612903,1.37096774193548,1.39677419354839,1.36774193548387,1.39354838709677,1.37096774193548,1.38064516129032,1.3741935483871,1.38064516129032,1.38709677419355,1.34516129032258,1.38709677419355,1.36451612903226,1.36451612903226,1.36129032258065,1.36129032258065,1.35161290322581,1.38387096774194,1.35483870967742,1.3741935483871,1.35483870967742,1.36774193548387,1.34838709677419,1.36129032258065,1.35483870967742,1.36774193548387,1.34838709677419,1.36129032258065,1.36774193548387,1.38387096774194,1.36451612903226,1.33225806451613,1.3741935483871,1.33870967741935,1.38064516129032,1.34838709677419,1.35483870967742,1.35483870967742,1.34838709677419,1.4,1.36774193548387,1.3741935483871,1.38064516129032,1.39677419354839,1.37741935483871,1.39032258064516,1.36129032258065,1.35161290322581,1.4258064516129,1.4,1.40322580645161,1.35806451612903,1.33870967741935,1.35161290322581,1.31612903225806,1.36774193548387,1.36774193548387,1.38387096774194,1.36129032258065,1.3741935483871,1.34838709677419,1.32258064516129,1.35161290322581,1.38064516129032,1.32903225806452,1.33548387096774,1.35483870967742,1.37741935483871,1.35161290322581,1.34193548387097,1.31935483870968,1.38064516129032,1.63225806451613,1.97741935483871,2.35806451612903,2.38709677419355,1.81935483870968,1.39677419354839,1.21290322580645,1.25483870967742,1.35806451612903,1.39032258064516,1.38387096774194,1.3741935483871,1.36451612903226,1.39032258064516,1.37741935483871,1.38709677419355,1.40322580645161,1.3741935483871,1.38709677419355,1.4,1.39354838709677,1.39354838709677,1.38709677419355,1.39677419354839,1.40967741935484,1.37741935483871,1.39032258064516,1.4258064516129,1.39032258064516,1.4,1.41935483870968,1.41290322580645,1.42903225806452,1.40322580645161,1.43225806451613,1.42258064516129,1.43870967741935,1.40322580645161,1.39677419354839,1.39032258064516,1.4,1.40967741935484,1.41612903225806,1.41612903225806,1.4,1.38709677419355,1.40322580645161,1.4,1.38387096774194,1.34838709677419,1.36451612903226,1.41290322580645,1.39032258064516,1.36774193548387,1.38709677419355,1.38709677419355,1.37741935483871,1.35483870967742,1.39677419354839,1.3741935483871,1.39677419354839,1.38709677419355,1.38064516129032,1.38064516129032,1.40645161290323,1.38064516129032,1.37096774193548,1.36451612903226,1.37096774193548,1.39032258064516,1.36774193548387,1.38387096774194,1.38709677419355,1.36451612903226,1.37096774193548,1.37096774193548,1.34838709677419,1.36129032258065,1.38064516129032,1.34838709677419,1.34516129032258,1.36451612903226,1.36774193548387,1.35483870967742,1.35806451612903,1.37096774193548,1.35161290322581,1.36451612903226,1.36774193548387,1.3741935483871,1.36451612903226,1.35483870967742,1.36451612903226,1.36129032258065,1.39032258064516,1.39677419354839,1.39032258064516,1.36774193548387,1.38709677419355,1.35483870967742,1.39677419354839,1.40967741935484,1.39032258064516,1.35483870967742,1.33548387096774,1.37096774193548,1.34193548387097,1.33225806451613,1.34516129032258,1.36129032258065,1.33225806451613,1.35161290322581,1.35161290322581,1.36129032258065,1.35806451612903,1.34193548387097,1.33870967741935,1.35483870967742,1.36129032258065,1.36451612903226,1.35806451612903,1.36129032258065,1.33225806451613,1.29354838709677,1.36774193548387,1.6,1.93870967741935,2.35161290322581,2.39354838709677,1.90645161290323,1.43225806451613,1.21935483870968,1.29677419354839,1.36129032258065,1.34838709677419,1.36451612903226,1.3741935483871,1.36774193548387,1.38064516129032,1.38709677419355,1.38709677419355,1.38064516129032,1.38709677419355,1.38064516129032,1.39032258064516,1.38064516129032,1.38709677419355,1.39354838709677,1.40645161290323,1.4,1.4,1.40322580645161,1.39032258064516,1.39677419354839,1.39032258064516,1.36774193548387,1.4258064516129,1.41935483870968,1.41612903225806,1.39677419354839,1.40322580645161,1.42903225806452,1.40967741935484,1.39677419354839,1.38387096774194,1.39677419354839,1.40645161290323,1.39354838709677,1.41290322580645,1.39354838709677,1.40967741935484,1.39032258064516,1.38387096774194,1.40967741935484,1.38709677419355,1.39032258064516,1.37741935483871,1.3741935483871,1.40967741935484,1.39032258064516,1.37096774193548,1.38709677419355,1.38064516129032,1.38709677419355,1.40967741935484,1.39354838709677,1.38709677419355,1.36451612903226,1.4,1.40322580645161,1.38709677419355,1.38064516129032,1.37096774193548,1.3741935483871,1.38387096774194,1.36451612903226,1.38387096774194,1.35806451612903,1.36451612903226,1.36451612903226,1.37741935483871,1.3741935483871,1.3741935483871,1.35806451612903,1.36451612903226,1.36774193548387,1.32258064516129,1.40967741935484,1.39032258064516,1.35806451612903,1.34838709677419,1.35483870967742,1.35161290322581,1.36129032258065,1.35483870967742,1.36129032258065,1.34838709677419,1.34516129032258,1.35806451612903,1.38064516129032,1.36129032258065,1.33225806451613,1.37096774193548,1.39354838709677,1.40645161290323,1.38064516129032,1.36774193548387,1.35483870967742,1.36129032258065,1.41935483870968,1.39032258064516,1.38709677419355,1.34838709677419,1.34193548387097,1.33225806451613,1.33225806451613,1.32903225806452,1.34193548387097,1.35161290322581,1.31935483870968,1.34516129032258,1.33870967741935,1.34516129032258,1.35483870967742,1.35161290322581,1.34516129032258,1.34193548387097,1.38387096774194,1.36451612903226,1.33870967741935,1.33548387096774,1.29354838709677,1.33548387096774,1.50967741935484,1.82903225806452,2.2741935483871,2.52258064516129,2.14193548387097,1.60322580645161,1.28387096774194,1.26774193548387,1.34838709677419,1.35806451612903,1.36129032258065,1.33225806451613,1.34838709677419,1.36774193548387,1.36451612903226,1.35161290322581,1.35806451612903,1.36129032258065,1.38387096774194,1.3741935483871,1.36451612903226,1.36774193548387,1.36129032258065,1.37096774193548,1.37096774193548,1.4,1.3741935483871,1.38709677419355,1.38387096774194,1.38709677419355,1.4,1.4,1.41935483870968,1.40322580645161,1.39354838709677,1.41935483870968,1.40322580645161,1.39677419354839,1.38387096774194,1.40322580645161,1.40645161290323,1.39677419354839,1.39677419354839,1.39354838709677,1.38064516129032,1.40645161290323,1.40322580645161,1.39032258064516,1.3741935483871,1.38064516129032,1.38387096774194,1.3741935483871,1.38387096774194,1.4,1.39354838709677,1.38064516129032,1.4,1.39354838709677,1.4,1.41612903225806,1.39677419354839,1.39354838709677,1.4,1.39354838709677,1.39677419354839,1.38709677419355,1.38387096774194,1.4,1.39354838709677,1.39032258064516,1.39354838709677,1.37741935483871,1.38064516129032,1.37741935483871,1.38387096774194,1.39032258064516,1.38709677419355,1.36774193548387,1.39032258064516,1.38387096774194,1.37741935483871,1.38064516129032,1.37741935483871,1.3741935483871,1.4,1.40322580645161,1.38064516129032,1.38387096774194,1.37741935483871,1.39354838709677,1.37741935483871,1.40322580645161,1.38709677419355,1.39354838709677,1.39032258064516,1.41290322580645,1.39354838709677,1.39354838709677,1.42258064516129,1.4258064516129,1.41290322580645,1.42258064516129,1.40645161290323,1.4258064516129,1.44838709677419,1.46129032258065,1.43548387096774,1.41935483870968,1.41290322580645,1.37741935483871,1.39032258064516,1.39677419354839,1.40967741935484,1.40322580645161,1.40967741935484
1.21612903225806,1.24193548387097,1.23225806451613,1.23548387096774,1.23548387096774,1.26129032258065,1.25483870967742,1.25483870967742,1.26451612903226,1.26774193548387,1.27741935483871,1.2741935483871,1.26451612903226,1.2741935483871,1.27096774193548,1.25161290322581,1.24516129032258,1.22903225806452,1.38387096774194,1.7,2.11290322580645,2.4741935483871,2.23225806451613,1.61290322580645,1.2,1.13870967741935,1.23870967741935,1.30322580645161,1.3,1.29354838709677,1.29677419354839,1.30645161290323,1.30967741935484,1.33225806451613,1.33225806451613,1.31612903225806,1.31612903225806,1.32258064516129,1.33225806451613,1.33870967741935,1.34838709677419,1.35806451612903,1.35483870967742,1.35806451612903,1.35806451612903,1.35483870967742,1.35483870967742,1.38064516129032,1.39354838709677,1.3741935483871,1.39032258064516,1.40967741935484,1.39032258064516,1.36774193548387,1.38387096774194,1.38709677419355,1.39032258064516,1.36774193548387,1.39032258064516,1.39354838709677,1.4,1.38709677419355,1.38387096774194,1.38387096774194,1.4,1.3741935483871,1.39032258064516,1.36451612903226,1.36774193548387,1.34838709677419,1.3741935483871,1.37096774193548,1.3741935483871,1.37096774193548,1.38387096774194,1.37096774193548,1.4,1.38064516129032,1.38387096774194,1.37096774193548,1.41290322580645,1.38709677419355,1.37741935483871,1.38387096774194,1.36774193548387,1.39354838709677,1.40322580645161,1.36129032258065,1.38387096774194,1.35806451612903,1.35806451612903,1.37741935483871,1.38387096774194,1.36129032258065,1.35483870967742,1.35806451612903,1.36129032258065,1.34516129032258,1.36774193548387,1.36451612903226,1.36129032258065,1.36451612903226,1.3741935483871,1.36774193548387,1.37096774193548,1.36129032258065,1.37741935483871,1.34838709677419,1.38709677419355,1.41290322580645,1.38387096774194,1.39032258064516,1.37741935483871,1.40322580645161,1.44193548387097,1.40645161290323,1.4258064516129,1.37096774193548,1.35806451612903,1.36129032258065,1.36451612903226,1.34838709677419,1.34516129032258,1.36129032258065,1.35806451612903,1.35483870967742,1.37096774193548,1.38387096774194,1.3741935483871,1.36129032258065,1.35483870967742,1.35806451612903,1.37096774193548,1.37741935483871,1.38064516129032,1.38064516129032,1.37096774193548,1.30322580645161,1.33870967741935,1.51290322580645,1.88064516129032,2.30967741935484,2.51935483870968,2.11290322580645,1.58064516129032,1.26129032258065,1.24193548387097,1.34193548387097,1.37741935483871,1.40322580645161,1.38064516129032,1.39032258064516,1.39354838709677,1.39032258064516,1.40967741935484,1.39677419354839,1.39677419354839,1.39677419354839,1.39354838709677,1.41935483870968,1.40645161290323,1.39354838709677,1.4,1.41290322580645,1.40967741935484,1.39354838709677,1.42258064516129,1.42258064516129,1.4258064516129,1.41612903225806,1.41935483870968,1.41935483870968,1.43225806451613,1.4258064516129,1.4258064516129,1.43225806451613,1.40967741935484,1.41290322580645,1.40322580645161,1.43870967741935,1.4258064516129,1.4,1.40322580645161,1.41290322580645,1.40645161290323,1.39032258064516,1.39032258064516,1.38387096774194,1.39032258064516,1.37096774193548,1.39677419354839,1.39677419354839,1.3741935483871,1.39032258064516,1.38709677419355,1.38709677419355,1.3741935483871,1.37741935483871,1.40645161290323,1.38387096774194,1.38709677419355,1.3741935483871,1.38709677419355,1.38387096774194,1.36451612903226,1.3741935483871,1.37741935483871,1.36774193548387,1.37096774193548,1.38064516129032,1.3741935483871,1.34193548387097,1.35483870967742,1.3741935483871,1.35161290322581,1.35806451612903,1.35161290322581,1.36451612903226,1.36774193548387,1.35483870967742,1.36451612903226,1.35483870967742,1.36774193548387,1.36129032258065,1.35161290322581,1.36451612903226,1.33548387096774,1.34838709677419,1.35483870967742,1.36129032258065,1.34193548387097,1.34838709677419,1.35161290322581,1.33548387096774,1.33870967741935,1.34516129032258,1.34516129032258,1.34193548387097,1.36451612903226,1.33225806451613,1.34838709677419,1.35483870967742,1.3741935483871,1.38387096774194,1.36451612903226,1.35483870967742,1.35806451612903,1.37096774193548,1.39032258064516,1.39677419354839,1.38709677419355,1.35161290322581,1.33548387096774,1.33870967741935,1.31935483870968,1.33548387096774,1.34516129032258,1.34838709677419,1.34838709677419,1.33870967741935,1.36774193548387,1.35483870967742,1.35483870967742,1.35161290322581,1.35806451612903,1.35806451612903,1.36451612903226,1.35806451612903,1.35483870967742,1.33225806451613,1.29677419354839,1.36451612903226,1.57096774193548,1.9258064516129,2.3741935483871,2.4741935483871,1.99677419354839,1.49032258064516,1.29677419354839,1.32258064516129,1.35161290322581,1.36774193548387,1.3741935483871,1.36129032258065,1.3741935483871,1.39032258064516,1.38064516129032,1.36451612903226,1.36774193548387,1.36774193548387,1.38387096774194,1.37096774193548,1.38387096774194,1.38709677419355,1.38064516129032,1.39354838709677,1.4,1.38387096774194,1.39677419354839,1.39354838709677,1.4,1.41612903225806,1.40645161290323,1.40322580645161,1.4,1.40967741935484,1.40967741935484,1.41290322580645,1.40967741935484,1.39677419354839,1.40967741935484,1.40967741935484,1.40322580645161,1.40322580645161,1.40645161290323,1.4,1.39677419354839,1.39032258064516,1.4,1.39354838709677,1.39354838709677,1.38709677419355,1.3741935483871,1.37741935483871,1.38387096774194,1.36774193548387,1.38387096774194,1.38387096774194,1.36774193548387,1.38387096774194,1.38387096774194,1.38387096774194,1.38709677419355,1.38709677419355,1.39677419354839,1.37741935483871,1.36774193548387,1.36451612903226,1.36451612903226,1.38387096774194,1.36451612903226,1.37741935483871,1.35806451612903,1.36451612903226,1.37096774193548,1.35483870967742,1.35483870967742,1.36774193548387,1.35161290322581,1.35806451612903,1.34516129032258,1.36774193548387,1.37096774193548,1.36129032258065,1.35483870967742,1.36129032258065,1.35483870967742,1.3741935483871,1.35806451612903,1.36129032258065,1.36129032258065,1.36774193548387,1.35806451612903,1.35161290322581,1.35483870967742,1.36451612903226,1.3741935483871,1.34516129032258,1.36451612903226,1.38709677419355,1.39032258064516,1.39032258064516,1.36451612903226,1.36129032258065,1.36451612903226,1.39354838709677,1.41290322580645,1.40645161290323,1.36451612903226,1.35161290322581,1.35161290322581,1.34193548387097,1.34193548387097,1.34516129032258,1.35483870967742,1.35483870967742,1.35161290322581,1.35161290322581,1.36451612903226,1.36129032258065,1.35161290322581,1.36774193548387,1.35161290322581,1.36451612903226,1.35483870967742,1.36774193548387,1.35161290322581,1.3258064516129,1.29677419354839,1.42903225806452,1.66774193548387,2.07096774193548,2.45483870967742,2.34193548387097,1.82258064516129,1.37741935483871,1.29677419354839,1.34516129032258,1.36129032258065,1.38387096774194,1.36774193548387,1.36774193548387,1.37741935483871,1.38064516129032,1.38064516129032,1.38064516129032,1.38387096774194,1.38709677419355,1.39354838709677,1.3741935483871,1.39032258064516,1.39032258064516,1.37096774193548,1.38387096774194,1.39677419354839,1.40645161290323,1.39032258064516,1.39032258064516,1.40645161290323,1.40967741935484,1.40645161290323,1.41612903225806,1.4258064516129,1.41935483870968,1.41290322580645,1.41290322580645,1.4258064516129,1.4,1.39677419354839,1.41612903225806,1.4,1.40967741935484,1.40645161290323,1.42258064516129,1.40322580645161,1.40322580645161,1.40322580645161,1.39677419354839,1.37741935483871,1.39677419354839,1.38064516129032,1.4,1.38064516129032,1.38387096774194,1.37741935483871,1.38387096774194,1.38709677419355,1.38387096774194,1.39354838709677,1.36774193548387,1.38064516129032,1.38064516129032,1.38064516129032,1.36129032258065,1.37096774193548,1.36774193548387,1.37096774193548,1.36774193548387,1.36129032258065,1.36451612903226,1.36129032258065,1.34516129032258,1.36451612903226,1.34838709677419,1.35806451612903,1.36774193548387,1.36129032258065,1.36451612903226,1.34516129032258,1.35806451612903,1.36451612903226,1.35806451612903,1.35161290322581,1.35161290322581,1.35483870967742,1.35806451612903,1.35483870967742,1.36129032258065,1.35161290322581,1.34516129032258,1.35161290322581,1.35161290322581,1.35806451612903,1.35483870967742,1.35806451612903,1.3741935483871,1.36451612903226,1.36774193548387,1.38387096774194,1.39677419354839,1.38709677419355,1.36774193548387,1.35806451612903,1.37741935483871,1.41290322580645,1.41612903225806,1.39677419354839,1.36774193548387,1.35483870967742,1.32903225806452,1.32258064516129,1.3258064516129,1.33548387096774,1.33870967741935,1.36129032258065,1.32258064516129,1.34193548387097,1.34516129032258,1.34516129032258,1.34193548387097,1.36451612903226,1.36451612903226,1.35806451612903,1.34838709677419,1.35483870967742,1.35806451612903,1.30967741935484,1.32258064516129,1.49677419354839,1.85161290322581,2.31612903225806,2.55806451612903,2.16451612903226,1.60645161290323,1.27741935483871,1.27741935483871,1.34838709677419,1.37096774193548,1.38709677419355,1.38064516129032,1.37096774193548,1.37096774193548,1.38387096774194,1.3741935483871,1.37741935483871,1.34838709677419,1.36451612903226,1.38064516129032,1.38387096774194,1.40322580645161,1.39032258064516,1.39354838709677,1.4,1.39354838709677,1.40322580645161,1.40645161290323,1.40322580645161,1.40645161290323,1.40967741935484,1.41935483870968,1.41935483870968,1.41612903225806,1.41612903225806,1.41290322580645,1.4258064516129,1.41290322580645,1.41612903225806,1.40967741935484,1.41612903225806,1.41612903225806,1.4258064516129,1.40645161290323,1.40967741935484,1.4258064516129,1.4,1.39032258064516,1.39354838709677,1.39677419354839,1.38709677419355,1.39677419354839,1.39032258064516,1.38709677419355,1.36774193548387,1.38387096774194,1.38709677419355,1.39354838709677,1.4,1.4,1.39354838709677,1.38064516129032,1.38709677419355,1.37741935483871,1.37096774193548,1.36774193548387,1.37096774193548,1.37096774193548,1.36451612903226,1.37096774193548,1.36451612903226,1.3741935483871,1.33870967741935,1.35806451612903,1.36129032258065,1.35483870967742,1.35483870967742,1.34516129032258,1.35483870967742,1.34193548387097,1.34838709677419,1.34516129032258,1.36129032258065,1.33548387096774,1.34838709677419,1.34193548387097,1.35161290322581,1.35806451612903,1.33548387096774,1.33870967741935,1.34838709677419,1.35161290322581,1.35806451612903,1.35483870967742,1.37096774193548,1.36451612903226,1.3741935483871,1.37096774193548,1.37096774193548,1.35483870967742,1.36129032258065,1.37741935483871,1.38387096774194,1.40322580645161,1.36774193548387,1.35161290322581,1.34838709677419,1.31290322580645,1.32903225806452,1.33870967741935,1.33870967741935,1.34193548387097,1.33870967741935,1.32258064516129,1.33870967741935,1.34838709677419,1.34516129032258,1.33870967741935,1.34193548387097,1.33548387096774,1.33870967741935,1.34516129032258,1.35161290322581,1.3258064516129,1.29677419354839,1.35806451612903,1.56451612903226,1.96774193548387,2.41290322580645,2.4741935483871,1.94193548387097,1.44193548387097,1.19032258064516,1.21935483870968,1.32903225806452,1.35483870967742,1.36451612903226,1.33870967741935,1.34193548387097,1.37096774193548,1.35806451612903,1.36129032258065,1.34516129032258,1.37741935483871,1.35483870967742,1.3741935483871,1.37096774193548,1.37741935483871,1.38064516129032,1.39032258064516,1.36451612903226,1.37096774193548,1.39032258064516,1.39677419354839,1.39354838709677,1.40967741935484,1.38709677419355,1.38064516129032,1.40967741935484,1.40645161290323,1.41612903225806,1.4,1.40967741935484,1.39677419354839,1.39677419354839,1.39354838709677,1.3741935483871,1.40645161290323,1.4,1.40322580645161,1.39354838709677,1.38387096774194,1.38709677419355,1.3741935483871,1.37741935483871,1.36451612903226,1.36451612903226,1.36129032258065,1.38709677419355,1.37741935483871,1.38709677419355,1.39032258064516,1.41935483870968,1.43870967741935,1.46451612903226,1.43548387096774,1.39354838709677,1.35806451612903,1.34516129032258,1.33548387096774,1.35806451612903,1.35483870967742,1.34838709677419,1.35161290322581,1.34516129032258,1.35806451612903,1.36451612903226,1.34838709677419,1.35161290322581,1.35161290322581,1.37096774193548,1.34516129032258,1.32258064516129,1.33870967741935,1.34838709677419,1.34516129032258,1.34838709677419,1.35806451612903,1.34838709677419,1.34516129032258,1.29354838709677,1.32903225806452,1.50645161290323,1.83225806451613,2.26774193548387,2.49354838709677,2.10967741935484,1.54516129032258,1.22258064516129,1.20322580645161,1.31290322580645,1.33225806451613,1.34193548387097,1.36451612903226,1.36451612903226,1.36129032258065,1.36129032258065,1.35483870967742,1.35806451612903,1.37096774193548,1.37096774193548,1.36129032258065,1.37096774193548,1.37741935483871,1.37096774193548,1.38709677419355,1.39677419354839,1.38709677419355,1.37741935483871,1.39677419354839,1.41290322580645,1.40645161290323,1.40645161290323,1.4,1.41612903225806,1.41290322580645,1.40645161290323,1.41290322580645,1.41290322580645,1.39354838709677,1.40322580645161,1.4,1.40322580645161,1.40967741935484,1.4258064516129,1.40967741935484,1.40967741935484,1.40967741935484,1.40645161290323,1.38064516129032,1.39354838709677,1.38064516129032,1.39032258064516,1.38709677419355,1.38064516129032,1.38064516129032,1.38709677419355,1.39032258064516,1.38709677419355,1.39032258064516,1.38064516129032,1.39032258064516,1.4,1.38709677419355,1.39354838709677,1.39354838709677,1.38064516129032,1.38387096774194,1.38064516129032,1.37741935483871,1.38709677419355,1.38709677419355,1.38387096774194,1.36774193548387,1.37741935483871,1.38387096774194,1.36129032258065,1.36129032258065,1.37741935483871,1.35161290322581,1.36129032258065,1.37096774193548,1.35806451612903,1.36774193548387,1.37096774193548,1.35806451612903,1.36451612903226,1.35806451612903,1.37096774193548,1.36774193548387,1.3741935483871,1.35806451612903,1.36129032258065,1.35806451612903,1.35806451612903,1.36451612903226,1.37096774193548,1.36451612903226,1.35161290322581,1.36129032258065,1.36129032258065,1.36451612903226,1.3741935483871,1.37741935483871,1.35161290322581,1.36451612903226,1.36129032258065,1.35806451612903,1.37096774193548,1.36774193548387,1.37096774193548,1.37096774193548,1.36774193548387,1.36774193548387,1.38387096774194,1.36451612903226,1.37741935483871,1.38064516129032,1.36451612903226,1.35806451612903,1.36774193548387,1.37096774193548,1.37741935483871,1.38387096774194,1.38709677419355,1.38387096774194,1.39032258064516,1.41290322580645,1.39677419354839,1.39032258064516,1.38064516129032,1.4,1.40645161290323,1.41612903225806,1.40967741935484,1.38387096774194,1.3741935483871,1.35483870967742,1.33870967741935,1.35161290322581,1.35806451612903,1.35806451612903,1.35806451612903,1.37096774193548,1.36774193548387,1.37096774193548,1.37096774193548,1.37096774193548,1.37741935483871,1.38387096774194,1.37741935483871,1.37096774193548,1.37096774193548,1.34516129032258,1.30967741935484,1.37741935483871,1.59354838709677,1.94838709677419,2.38709677419355,2.45806451612903,1.98387096774194,1.47741935483871,1.3,1.3258064516129,1.35161290322581,1.36774193548387,1.37096774193548,1.38064516129032,1.36451612903226,1.37096774193548,1.3741935483871,1.36129032258065,1.3741935483871,1.38387096774194,1.36451612903226,1.37096774193548,1.3741935483871,1.37741935483871,1.38709677419355,1.38064516129032,1.38709677419355,1.38709677419355,1.39677419354839,1.39354838709677,1.4,1.39677419354839,1.40645161290323,1.40322580645161,1.41612903225806,1.4258064516129,1.4,1.40645161290323,1.39677419354839,1.41612903225806,1.39032258064516,1.40645161290323,1.40967741935484,1.4,1.40645161290323,1.39032258064516,1.39677419354839,1.40645161290323,1.40645161290323,1.39354838709677,1.38709677419355,1.38709677419355,1.39354838709677,1.4,1.39354838709677,1.39677419354839,1.4,1.39677419354839,1.4,1.39354838709677,1.38709677419355,1.39032258064516,1.39354838709677,1.4,1.38064516129032,1.38709677419355,1.39032258064516,1.38387096774194,1.38064516129032,1.37741935483871,1.3741935483871,1.38064516129032,1.38709677419355,1.38064516129032,1.37096774193548,1.36451612903226,1.36129032258065,1.35483870967742,1.35806451612903,1.35483870967742,1.34193548387097,1.35806451612903,1.35806451612903,1.36129032258065,1.36451612903226,1.35806451612903,1.35483870967742,1.35161290322581,1.35161290322581,1.35483870967742,1.37096774193548,1.35483870967742,1.36129032258065,1.35806451612903,1.35806451612903,1.35806451612903,1.36451612903226,1.35806451612903,1.36451612903226,1.38064516129032,1.36451612903226,1.35483870967742,1.36129032258065,1.39032258064516,1.38709677419355,1.38064516129032,1.35806451612903,1.36129032258065,1.38709677419355,1.4,1.41612903225806,1.38709677419355,1.35161290322581,1.35483870967742,1.33225806451613,1.33225806451613,1.34516129032258,1.33870967741935,1.34838709677419,1.34838709677419,1.35806451612903,1.35806451612903,1.34516129032258,1.34838709677419,1.35806451612903,1.33225806451613,1.34838709677419,1.34838709677419,1.35806451612903,1.35483870967742,1.34838709677419,1.29032258064516,1.34193548387097,1.54516129032258,1.89354838709677,2.33548387096774,2.46451612903226,2.00967741935484,1.51612903225806,1.3,1.31935483870968,1.34838709677419,1.37741935483871,1.36451612903226,1.36451612903226,1.36774193548387,1.37096774193548,1.36451612903226,1.37096774193548,1.3741935483871,1.38387096774194,1.37096774193548,1.37096774193548,1.37741935483871,1.38709677419355,1.37741935483871,1.38709677419355,1.38387096774194,1.37741935483871,1.39677419354839,1.40322580645161,1.4,1.4,1.41290322580645,1.40967741935484,1.40645161290323,1.4,1.41290322580645,1.40322580645161,1.40645161290323,1.41290322580645,1.40967741935484,1.39354838709677,1.39677419354839,1.40967741935484,1.39677419354839,1.40967741935484,1.39677419354839,1.4,1.40967741935484,1.39032258064516,1.38709677419355,1.39032258064516,1.38387096774194,1.39677419354839,1.38709677419355,1.38709677419355,1.38709677419355,1.39677419354839,1.38387096774194,1.38709677419355,1.39677419354839,1.39677419354839,1.40322580645161,1.39677419354839,1.39354838709677,1.39354838709677,1.40645161290323,1.38064516129032,1.36451612903226,1.36774193548387,1.37096774193548,1.3741935483871,1.38064516129032,1.3741935483871,1.36774193548387,1.37741935483871,1.37741935483871,1.3741935483871,1.36451612903226,1.3741935483871,1.37741935483871,1.35806451612903,1.35483870967742,1.35161290322581,1.35483870967742,1.37096774193548,1.37096774193548,1.37096774193548,1.35161290322581,1.35161290322581,1.3741935483871,1.35806451612903,1.34193548387097,1.35161290322581,1.34516129032258,1.35483870967742,1.35483870967742,1.36129032258065,1.3741935483871,1.35806451612903,1.35806451612903,1.36451612903226,1.4,1.38709677419355,1.37741935483871,1.36129032258065,1.36451612903226,1.40967741935484,1.4,1.41612903225806,1.36774193548387,1.35806451612903,1.34516129032258,1.3258064516129,1.32903225806452,1.33225806451613,1.34193548387097,1.34838709677419,1.33548387096774,1.34516129032258,1.33225806451613,1.35806451612903,1.35483870967742,1.37096774193548,1.35161290322581,1.35806451612903,1.34838709677419,1.34838709677419,1.33870967741935,1.31612903225806,1.29354838709677,1.43548387096774,1.71290322580645,2.1258064516129,2.54516129032258,2.36451612903226,1.78064516129032,1.31290322580645,1.2,1.29354838709677,1.35483870967742,1.36451612903226,1.36774193548387,1.35806451612903,1.36451612903226,1.35483870967742,1.35483870967742,1.36774193548387,1.37096774193548,1.36774193548387,1.35483870967742,1.37096774193548,1.36774193548387,1.36774193548387,1.39032258064516,1.37741935483871,1.38709677419355,1.37096774193548,1.39677419354839,1.4,1.39032258064516,1.37741935483871,1.38709677419355,1.40645161290323,1.40322580645161,1.40322580645161,1.40645161290323,1.40967741935484,1.39032258064516,1.39354838709677,1.39032258064516,1.38709677419355,1.38387096774194,1.38709677419355,1.41290322580645,1.38387096774194,1.38709677419355,1.39032258064516,1.39032258064516,1.3741935483871,1.38387096774194,1.36774193548387,1.37096774193548,1.38064516129032,1.3741935483871,1.37741935483871,1.37096774193548,1.38709677419355,1.38387096774194,1.38709677419355,1.38064516129032,1.38709677419355,1.39032258064516,1.37741935483871,1.38387096774194,1.38064516129032,1.39354838709677,1.38709677419355,1.38709677419355,1.39354838709677,1.39032258064516,1.38709677419355,1.39032258064516,1.39354838709677,1.38387096774194,1.39354838709677,1.38387096774194,1.38387096774194,1.39677419354839,1.3741935483871,1.4,1.38709677419355,1.40322580645161,1.4,1.39354838709677,1.40322580645161,1.40322580645161,1.39032258064516,1.40322580645161,1.4,1.41935483870968,1.43225806451613,1.41290322580645,1.42903225806452,1.43870967741935,1.45483870967742,1.44838709677419
1.24838709677419,1.24516129032258,1.24193548387097,1.23548387096774,1.2,1.21290322580645,1.38387096774194,1.68387096774194,2.10645161290323,2.38709677419355,2.07096774193548,1.54193548387097,1.21290322580645,1.18387096774194,1.25806451612903,1.27741935483871,1.28064516129032,1.28387096774194,1.28387096774194,1.28064516129032,1.29032258064516,1.29032258064516,1.28064516129032,1.29354838709677,1.29032258064516,1.29677419354839,1.3,1.31290322580645,1.30967741935484,1.32903225806452,1.32258064516129,1.32258064516129,1.3258064516129,1.33870967741935,1.34516129032258,1.35161290322581,1.35483870967742,1.35806451612903,1.36774193548387,1.36774193548387,1.3741935483871,1.36451612903226,1.36451612903226,1.35806451612903,1.36774193548387,1.36774193548387,1.37096774193548,1.3741935483871,1.37741935483871,1.3741935483871,1.38064516129032,1.37096774193548,1.37741935483871,1.37096774193548,1.36774193548387,1.36451612903226,1.36774193548387,1.36774193548387,1.37096774193548,1.37096774193548,1.3741935483871,1.37741935483871,1.38064516129032,1.3741935483871,1.3741935483871,1.37741935483871,1.3741935483871,1.38709677419355,1.37741935483871,1.37096774193548,1.3741935483871,1.3741935483871,1.37096774193548,1.3741935483871,1.37096774193548,1.37096774193548,1.3741935483871,1.37741935483871,1.38709677419355,1.37741935483871,1.38064516129032,1.3741935483871,1.38064516129032,1.37741935483871,1.38064516129032,1.39032258064516,1.36774193548387,1.38387096774194,1.38709677419355,1.39354838709677,1.38387096774194,1.38064516129032,1.36129032258065,1.37741935483871,1.38064516129032,1.38387096774194,1.38064516129032,1.3741935483871,1.38387096774194,1.37741935483871,1.38387096774194,1.37741935483871,1.37741935483871,1.38387096774194,1.38387096774194,1.38064516129032,1.38709677419355,1.39032258064516,1.3741935483871,1.36451612903226,1.37096774193548,1.37741935483871,1.38064516129032,1.38064516129032,1.38064516129032,1.38064516129032,1.37741935483871,1.38387096774194,1.3741935483871,1.37741935483871,1.38064516129032,1.38387096774194,1.38387096774194,1.38064516129032,1.39032258064516,1.38387096774194,1.38387096774194,1.37741935483871,1.39354838709677,1.40322580645161,1.40322580645161,1.39032258064516,1.4,1.41290322580645,1.41935483870968,1.41290322580645,1.39677419354839,1.38387096774194,1.40322580645161,1.41935483870968,1.44838709677419,1.43870967741935,1.38709677419355,1.37741935483871,1.36774193548387,1.36129032258065,1.35483870967742,1.3741935483871,1.39032258064516,1.3741935483871,1.38064516129032,1.36774193548387,1.37741935483871,1.39354838709677,1.38709677419355,1.38387096774194,1.36451612903226,1.35161290322581,1.41612903225806,1.36774193548387,1.34516129032258,1.31612903225806,1.4258064516129,1.69032258064516,2.10322580645161,2.51612903225806,2.39032258064516,1.81935483870968,1.36774193548387,1.27741935483871,1.33225806451613,1.35483870967742,1.38387096774194,1.3741935483871,1.37096774193548,1.37741935483871,1.37096774193548,1.37741935483871,1.37741935483871,1.37096774193548,1.37096774193548,1.38064516129032,1.3741935483871,1.38709677419355,1.36774193548387,1.38387096774194,1.37741935483871,1.37741935483871,1.38387096774194,1.38709677419355,1.39677419354839,1.4,1.38709677419355,1.38709677419355,1.4,1.39354838709677,1.40322580645161,1.41935483870968,1.40645161290323,1.40322580645161,1.4,1.39677419354839,1.4,1.4,1.38709677419355,1.39354838709677,1.39354838709677,1.38709677419355,1.39354838709677,1.38387096774194,1.38064516129032,1.38064516129032,1.3741935483871,1.37096774193548,1.37096774193548,1.37741935483871,1.37741935483871,1.38064516129032,1.38064516129032,1.36129032258065,1.37096774193548,1.3741935483871,1.37741935483871,1.37741935483871,1.38064516129032,1.37741935483871,1.3741935483871,1.37741935483871,1.37096774193548,1.3741935483871,1.37741935483871,1.34516129032258,1.35483870967742,1.36129032258065,1.35483870967742,1.35483870967742,1.35806451612903,1.35161290322581,1.35161290322581,1.34193548387097,1.35483870967742,1.35161290322581,1.37096774193548,1.40967741935484,1.44516129032258,1.4258064516129,1.39354838709677,1.33548387096774,1.32258064516129,1.31935483870968,1.31935483870968,1.3258064516129,1.3258064516129,1.33870967741935,1.33870967741935,1.33548387096774,1.3258064516129,1.33225806451613,1.33225806451613,1.32903225806452,1.33548387096774,1.33225806451613,1.33870967741935,1.34193548387097,1.34193548387097,1.33870967741935,1.33225806451613,1.32903225806452,1.28709677419355,1.30322580645161,1.48387096774194,1.8,2.23870967741935,2.48387096774194,2.10967741935484,1.58709677419355,1.26774193548387,1.25161290322581,1.33548387096774,1.35483870967742,1.36451612903226,1.36451612903226,1.37096774193548,1.37096774193548,1.37096774193548,1.37096774193548,1.3741935483871,1.37741935483871,1.37096774193548,1.38064516129032,1.37096774193548,1.38064516129032,1.37096774193548,1.3741935483871,1.38387096774194,1.39032258064516,1.39032258064516,1.38709677419355,1.40322580645161,1.41612903225806,1.4,1.40645161290323,1.4,1.40967741935484,1.40967741935484,1.40967741935484,1.40967741935484,1.40967741935484,1.40645161290323,1.40322580645161,1.4,1.4,1.40645161290323,1.40967741935484,1.4,1.40322580645161,1.40322580645161,1.39354838709677,1.39354838709677,1.38709677419355,1.36451612903226,1.38387096774194,1.38064516129032,1.38064516129032,1.38387096774194,1.37741935483871,1.39354838709677,1.38064516129032,1.38387096774194,1.39354838709677,1.38709677419355,1.39354838709677,1.38387096774194,1.37741935483871,1.38709677419355,1.37741935483871,1.38387096774194,1.37741935483871,1.38064516129032,1.3741935483871,1.37741935483871,1.37741935483871,1.38387096774194,1.38709677419355,1.37741935483871,1.37741935483871,1.3741935483871,1.36774193548387,1.36774193548387,1.36129032258065,1.37096774193548,1.37096774193548,1.3741935483871,1.3741935483871,1.3741935483871,1.37741935483871,1.37741935483871,1.36774193548387,1.38387096774194,1.37741935483871,1.3741935483871,1.3741935483871,1.37096774193548,1.37096774193548,1.36774193548387,1.37096774193548,1.37096774193548,1.36129032258065,1.36774193548387,1.36774193548387,1.37096774193548,1.3741935483871,1.36774193548387,1.36451612903226,1.36129032258065,1.36451612903226,1.36129032258065,1.37096774193548,1.37741935483871,1.3741935483871,1.37741935483871,1.37096774193548,1.37096774193548,1.38064516129032,1.37741935483871,1.37741935483871,1.37741935483871,1.37741935483871,1.3741935483871,1.37741935483871,1.36774193548387,1.3741935483871,1.37096774193548,1.37741935483871,1.37096774193548,1.3741935483871,1.39677419354839,1.40322580645161,1.3741935483871,1.36451612903226,1.3741935483871,1.40322580645161,1.41290322580645,1.4258064516129,1.39032258064516,1.37741935483871,1.36129032258065,1.34193548387097,1.35161290322581,1.35806451612903,1.35483870967742,1.36129032258065,1.35483870967742,1.37741935483871,1.37096774193548,1.37096774193548,1.37096774193548,1.38064516129032,1.37096774193548,1.36451612903226,1.38064516129032,1.38387096774194,1.36129032258065,1.31290322580645,1.3741935483871,1.6,1.96451612903226,2.41935483870968,2.51612903225806,2.00645161290323,1.48387096774194,1.2741935483871,1.30645161290323,1.37096774193548,1.38064516129032,1.38709677419355,1.38709677419355,1.3741935483871,1.37741935483871,1.38064516129032,1.38387096774194,1.38709677419355,1.39032258064516,1.38387096774194,1.37741935483871,1.38387096774194,1.39354838709677,1.39354838709677,1.39677419354839,1.39354838709677,1.4,1.4,1.39354838709677,1.39677419354839,1.40645161290323,1.40645161290323,1.39677419354839,1.40967741935484,1.41612903225806,1.40967741935484,1.41612903225806,1.41612903225806,1.41290322580645,1.40967741935484,1.40645161290323,1.4,1.4,1.40322580645161,1.40967741935484,1.40322580645161,1.4,1.40322580645161,1.40322580645161,1.39354838709677,1.39677419354839,1.39032258064516,1.39354838709677,1.39354838709677,1.39677419354839,1.39354838709677,1.39677419354839,1.39354838709677,1.39354838709677,1.39032258064516,1.37741935483871,1.38709677419355,1.38064516129032,1.37741935483871,1.38064516129032,1.3741935483871,1.37096774193548,1.37096774193548,1.36129032258065,1.36774193548387,1.36774193548387,1.35483870967742,1.35483870967742,1.35806451612903,1.35161290322581,1.35806451612903,1.35161290322581,1.35161290322581,1.35161290322581,1.35483870967742,1.35161290322581,1.35161290322581,1.35483870967742,1.35806451612903,1.35483870967742,1.35161290322581,1.35483870967742,1.35483870967742,1.34516129032258,1.35161290322581,1.35483870967742,1.36451612903226,1.36129032258065,1.35483870967742,1.35483870967742,1.36129032258065,1.36774193548387,1.36451612903226,1.36451612903226,1.35806451612903,1.37741935483871,1.39354838709677,1.38064516129032,1.36129032258065,1.36129032258065,1.39354838709677,1.40322580645161,1.4258064516129,1.39032258064516,1.35161290322581,1.34516129032258,1.32903225806452,1.33548387096774,1.33548387096774,1.34193548387097,1.34516129032258,1.34193548387097,1.34516129032258,1.34838709677419,1.34516129032258,1.35161290322581,1.35161290322581,1.35161290322581,1.35483870967742,1.35483870967742,1.35161290322581,1.35483870967742,1.33548387096774,1.28709677419355,1.33870967741935,1.55483870967742,1.93225806451613,2.39032258064516,2.5,2,1.46774193548387,1.24516129032258,1.26774193548387,1.34193548387097,1.35806451612903,1.36774193548387,1.36451612903226,1.37096774193548,1.36774193548387,1.36774193548387,1.36451612903226,1.36129032258065,1.36774193548387,1.36129032258065,1.36451612903226,1.36774193548387,1.3741935483871,1.37741935483871,1.38064516129032,1.38064516129032,1.39032258064516,1.39354838709677,1.38709677419355,1.39354838709677,1.39677419354839,1.39677419354839,1.4,1.40967741935484,1.4,1.41290322580645,1.40322580645161,1.41290322580645,1.40322580645161,1.39354838709677,1.39354838709677,1.39032258064516,1.39677419354839,1.40322580645161,1.39677419354839,1.4,1.39677419354839,1.39354838709677,1.38709677419355,1.38387096774194,1.38387096774194,1.3741935483871,1.36774193548387,1.37096774193548,1.38064516129032,1.38064516129032,1.37741935483871,1.38064516129032,1.38064516129032,1.38709677419355,1.39677419354839,1.38387096774194,1.38709677419355,1.38387096774194,1.38387096774194,1.37741935483871,1.37741935483871,1.3741935483871,1.38064516129032,1.36774193548387,1.36451612903226,1.36451612903226,1.36774193548387,1.36774193548387,1.37096774193548,1.36451612903226,1.36451612903226,1.36129032258065,1.37096774193548,1.36774193548387,1.36451612903226,1.35806451612903,1.3741935483871,1.36774193548387,1.36774193548387,1.37096774193548,1.36774193548387,1.36451612903226,1.36129032258065,1.36774193548387,1.37096774193548,1.3741935483871,1.36451612903226,1.3741935483871,1.3741935483871,1.3741935483871,1.36129032258065,1.3741935483871,1.3741935483871,1.38064516129032,1.3741935483871,1.38387096774194,1.40322580645161,1.39032258064516,1.36774193548387,1.37741935483871,1.40645161290323,1.42258064516129,1.42903225806452,1.4,1.37741935483871,1.35483870967742,1.33225806451613,1.34193548387097,1.34193548387097,1.34838709677419,1.34838709677419,1.35806451612903,1.36451612903226,1.35806451612903,1.35806451612903,1.36451612903226,1.36451612903226,1.36451612903226,1.35483870967742,1.36129032258065,1.36451612903226,1.36451612903226,1.33870967741935,1.30322580645161,1.3741935483871,1.60967741935484,2,2.44838709677419,2.47741935483871,1.94516129032258,1.45161290322581,1.2741935483871,1.31612903225806,1.35806451612903,1.3741935483871,1.37096774193548,1.37096774193548,1.3741935483871,1.37741935483871,1.3741935483871,1.37096774193548,1.38064516129032,1.38387096774194,1.3741935483871,1.37741935483871,1.37096774193548,1.38709677419355,1.38387096774194,1.39032258064516,1.39354838709677,1.39032258064516,1.39354838709677,1.39354838709677,1.40645161290323,1.40967741935484,1.40967741935484,1.41290322580645,1.41612903225806,1.41612903225806,1.41290322580645,1.41612903225806,1.40967741935484,1.40322580645161,1.40967741935484,1.41290322580645,1.40645161290323,1.4,1.40645161290323,1.40322580645161,1.40322580645161,1.4,1.39677419354839,1.39677419354839,1.39354838709677,1.38387096774194,1.38387096774194,1.38064516129032,1.38064516129032,1.39032258064516,1.38064516129032,1.38709677419355,1.39032258064516,1.39032258064516,1.38709677419355,1.38387096774194,1.39032258064516,1.39032258064516,1.38064516129032,1.38387096774194,1.38709677419355,1.38387096774194,1.38387096774194,1.38387096774194,1.38064516129032,1.37096774193548,1.35806451612903,1.36774193548387,1.36129032258065,1.36129032258065,1.35483870967742,1.35161290322581,1.35483870967742,1.35483870967742,1.35161290322581,1.34838709677419,1.35483870967742,1.34516129032258,1.35483870967742,1.35161290322581,1.34516129032258,1.34193548387097,1.34838709677419,1.34516129032258,1.35806451612903,1.34193548387097,1.33870967741935,1.34516129032258,1.34838709677419,1.33870967741935,1.34838709677419,1.35161290322581,1.35483870967742,1.35483870967742,1.35161290322581,1.36129032258065,1.37741935483871,1.36451612903226,1.33870967741935,1.35161290322581,1.38709677419355,1.40322580645161,1.40645161290323,1.38709677419355,1.35161290322581,1.34193548387097,1.32903225806452,1.32258064516129,1.31935483870968,1.3258064516129,1.32903225806452,1.34516129032258,1.34193548387097,1.34193548387097,1.34516129032258,1.34838709677419,1.34838709677419,1.36129032258065,1.35806451612903,1.35483870967742,1.35483870967742,1.34838709677419,1.33225806451613,1.29354838709677,1.36774193548387,1.60322580645161,1.99677419354839,2.45483870967742,2.50645161290323,1.95483870967742,1.43548387096774,1.21290322580645,1.27741935483871,1.34838709677419,1.35806451612903,1.36451612903226,1.36774193548387,1.3741935483871,1.36774193548387,1.36774193548387,1.36129032258065,1.3741935483871,1.37741935483871,1.37741935483871,1.38064516129032,1.37741935483871,1.36774193548387,1.38709677419355,1.38387096774194,1.38387096774194,1.38709677419355,1.39032258064516,1.4,1.39354838709677,1.40322580645161,1.41290322580645,1.41612903225806,1.41935483870968,1.41935483870968,1.41935483870968,1.41612903225806,1.41290322580645,1.40967741935484,1.40645161290323,1.40967741935484,1.40322580645161,1.40645161290323,1.41290322580645,1.41290322580645,1.40322580645161,1.40322580645161,1.39354838709677,1.39677419354839,1.38387096774194,1.38387096774194,1.39032258064516,1.36451612903226,1.38709677419355,1.38387096774194,1.38387096774194,1.38064516129032,1.37741935483871,1.38064516129032,1.37741935483871,1.38387096774194,1.39032258064516,1.38387096774194,1.37741935483871,1.38709677419355,1.37096774193548,1.37741935483871,1.38709677419355,1.37741935483871,1.3741935483871,1.36774193548387,1.36451612903226,1.37096774193548,1.36129032258065,1.35806451612903,1.36451612903226,1.35806451612903,1.35161290322581,1.36129032258065,1.36774193548387,1.33870967741935,1.34838709677419,1.35161290322581,1.3741935483871,1.3741935483871,1.37741935483871,1.38064516129032,1.36451612903226,1.38387096774194,1.40645161290323,1.41612903225806,1.39032258064516,1.33548387096774,1.36129032258065,1.32903225806452,1.33225806451613,1.32903225806452,1.35161290322581,1.33870967741935,1.33548387096774,1.3258064516129,1.34193548387097,1.33870967741935,1.33548387096774,1.34838709677419,1.34838709677419,1.34838709677419,1.34516129032258,1.35806451612903,1.35483870967742,1.34193548387097,1.32258064516129,1.28064516129032,1.34193548387097,1.56774193548387,1.96774193548387,2.44193548387097,2.54516129032258,2.02903225806452,1.47096774193548,1.19354838709677,1.24193548387097,1.32903225806452,1.34516129032258,1.35483870967742,1.35806451612903,1.37096774193548,1.37096774193548,1.37741935483871,1.3741935483871,1.35806451612903,1.38709677419355,1.38064516129032,1.38064516129032,1.38709677419355,1.38064516129032,1.38709677419355,1.38387096774194,1.4,1.39354838709677,1.39354838709677,1.40322580645161,1.40322580645161,1.40322580645161,1.39032258064516,1.41612903225806,1.43225806451613,1.4258064516129,1.41612903225806,1.41612903225806,1.41290322580645,1.41935483870968,1.39354838709677,1.40967741935484,1.41290322580645,1.40322580645161,1.40645161290323,1.41612903225806,1.41612903225806,1.40322580645161,1.39677419354839,1.38709677419355,1.37096774193548,1.38709677419355,1.4,1.38709677419355,1.38064516129032,1.35483870967742,1.37096774193548,1.3741935483871,1.38709677419355,1.37741935483871,1.38064516129032,1.37741935483871,1.3741935483871,1.37741935483871,1.38064516129032,1.38064516129032,1.36774193548387,1.37096774193548,1.35806451612903,1.37741935483871,1.36451612903226,1.36451612903226,1.35806451612903,1.36129032258065,1.35483870967742,1.35161290322581,1.34838709677419,1.35161290322581,1.37096774193548,1.34193548387097,1.34516129032258,1.35483870967742,1.35161290322581,1.35161290322581,1.36129032258065,1.36129032258065,1.36774193548387,1.36129032258065,1.33870967741935,1.35806451612903,1.34516129032258,1.35806451612903,1.36451612903226,1.33548387096774,1.35806451612903,1.35161290322581,1.34193548387097,1.35161290322581,1.34193548387097,1.35483870967742,1.36774193548387,1.35483870967742,1.35806451612903,1.36129032258065,1.35161290322581,1.36451612903226,1.37741935483871,1.38064516129032,1.37096774193548,1.3741935483871,1.37741935483871,1.39677419354839,1.40322580645161,1.40645161290323,1.37741935483871,1.36451612903226,1.33870967741935,1.33225806451613,1.33548387096774,1.35161290322581,1.34193548387097,1.34516129032258,1.35161290322581,1.34193548387097,1.35161290322581,1.36129032258065,1.35161290322581,1.35806451612903,1.36774193548387,1.38064516129032,1.35161290322581,1.35806451612903,1.37096774193548,1.34193548387097,1.3,1.4,1.67741935483871,2.07096774193548,2.53870967741935,2.48387096774194,1.90322580645161,1.40322580645161,1.21612903225806,1.28387096774194,1.35806451612903,1.36774193548387,1.38064516129032,1.3741935483871,1.38064516129032,1.3741935483871,1.37741935483871,1.39032258064516,1.39677419354839,1.38387096774194,1.37741935483871,1.38387096774194,1.38064516129032,1.39354838709677,1.38064516129032,1.39354838709677,1.40322580645161,1.39354838709677,1.4,1.40322580645161,1.41935483870968,1.41290322580645,1.40645161290323,1.41935483870968,1.41290322580645,1.43225806451613,1.4258064516129,1.41290322580645,1.40322580645161,1.42903225806452,1.41935483870968,1.4,1.40322580645161,1.41290322580645,1.42903225806452,1.40967741935484,1.41935483870968,1.41290322580645,1.41290322580645,1.39354838709677,1.4,1.39354838709677,1.4,1.39677419354839,1.4,1.38709677419355,1.39677419354839,1.40322580645161,1.40967741935484,1.41935483870968,1.39354838709677,1.38387096774194,1.39677419354839,1.39032258064516,1.39354838709677,1.40967741935484,1.40322580645161,1.39354838709677,1.38709677419355,1.39032258064516,1.38387096774194,1.38387096774194,1.39032258064516,1.36774193548387,1.36129032258065,1.36774193548387,1.38387096774194,1.37096774193548,1.36129032258065,1.36451612903226,1.36774193548387,1.37096774193548,1.35806451612903,1.35161290322581,1.36129032258065,1.35806451612903,1.35806451612903,1.35806451612903,1.36451612903226,1.36129032258065,1.36451612903226,1.35161290322581,1.35483870967742,1.35161290322581,1.36451612903226,1.34838709677419,1.34838709677419,1.35806451612903,1.36774193548387,1.35483870967742,1.37096774193548,1.35161290322581,1.34193548387097,1.37096774193548,1.37741935483871,1.36129032258065,1.35483870967742,1.36129032258065,1.38709677419355,1.39032258064516,1.40645161290323,1.38064516129032,1.33548387096774,1.32903225806452,1.31612903225806,1.32903225806452,1.33870967741935,1.33548387096774,1.34193548387097,1.33225806451613,1.33548387096774,1.3258064516129,1.33870967741935,1.34838709677419,1.34193548387097,1.34516129032258,1.33548387096774,1.35161290322581,1.35483870967742,1.34193548387097,1.3258064516129,1.2741935483871,1.31612903225806,1.51935483870968,1.85806451612903,2.31290322580645,2.51612903225806,2.09677419354839,1.55483870967742,1.23225806451613,1.21935483870968,1.32903225806452,1.32903225806452,1.34516129032258,1.34516129032258,1.36129032258065,1.35161290322581,1.35806451612903,1.34516129032258,1.35161290322581,1.36451612903226,1.35483870967742,1.36451612903226,1.36451612903226,1.36451612903226,1.36129032258065,1.36774193548387,1.3741935483871,1.38387096774194,1.38064516129032,1.38387096774194,1.38709677419355,1.38387096774194,1.4,1.40645161290323,1.40322580645161,1.4,1.41290322580645,1.40322580645161,1.39677419354839,1.39677419354839,1.39677419354839,1.39354838709677,1.39677419354839,1.38709677419355,1.38387096774194,1.4,1.39032258064516,1.39354838709677,1.40322580645161,1.40322580645161,1.39032258064516,1.4,1.36774193548387,1.39354838709677,1.38387096774194,1.39032258064516,1.40645161290323,1.39354838709677,1.40322580645161,1.40322580645161,1.4
