1.72903225806452,1.75483870967742,1.74838709677419,1.69677419354839,1.61935483870968,1.53870967741935,1.45483870967742,1.36774193548387,1.28709677419355,1.25483870967742,1.27741935483871,1.30322580645161,1.28709677419355,1.28064516129032,1.30645161290323,1.31612903225806,1.3,1.30967741935484,1.32258064516129,1.29354838709677,1.25161290322581,1.24838709677419,1.26774193548387,1.26129032258065,1.24516129032258,1.23548387096774,1.23870967741935,1.24516129032258,1.24193548387097,1.23548387096774,1.24193548387097,1.26129032258065,1.27096774193548,1.28064516129032,1.30322580645161,1.32258064516129,1.32258064516129,1.32258064516129,1.35483870967742,1.38064516129032,1.36451612903226,1.34516129032258,1.36774193548387,1.40645161290323,1.40967741935484,1.38709677419355,1.38064516129032,1.38709677419355,1.36129032258065,1.30645161290323,1.26129032258065,1.25806451612903,1.26774193548387,1.26774193548387,1.26129032258065,1.28387096774194,1.27741935483871,1.19354838709677,1.25806451612903,1.77741935483871,2.50645161290323,2.63548387096774,1.87741935483871,1.03870967741935,0.906451612903226,1.23225806451613,1.39354838709677,1.34838709677419,1.35483870967742,1.39354838709677,1.38064516129032,1.38709677419355,1.41935483870968,1.40967741935484,1.38709677419355,1.40645161290323,1.43870967741935,1.44193548387097,1.45806451612903,1.50645161290323,1.54516129032258,1.57096774193548,1.62258064516129,1.68064516129032,1.72258064516129,1.75806451612903,1.81290322580645,1.85161290322581,1.84838709677419,1.83225806451613,1.82258064516129,1.77096774193548,1.65806451612903,1.53225806451613,1.42258064516129,1.33548387096774,1.27741935483871,1.24838709677419,1.20967741935484,1.15161290322581,1.1258064516129,1.15483870967742,1.19677419354839,1.21935483870968,1.22903225806452,1.22903225806452,1.25161290322581,1.28387096774194,1.29032258064516,1.27741935483871,1.29354838709677,1.32258064516129,1.31612903225806,1.29354838709677,1.29032258064516,1.3,1.29032258064516,1.2741935483871,1.2741935483871,1.27096774193548,1.23870967741935,1.21290322580645,1.23548387096774,1.28387096774194,1.29032258064516,1.26129032258065,1.26451612903226,1.29677419354839,1.3258064516129,1.35483870967742,1.39354838709677,1.44193548387097,1.4741935483871,1.45161290322581,1.36451612903226,1.28387096774194,1.28387096774194,1.33225806451613,1.33548387096774,1.30322580645161,1.3,1.28064516129032,1.18387096774194,1.25161290322581,1.79354838709677,2.5258064516129,2.60645161290323,1.79354838709677,0.954838709677419,0.845161290322581,1.14838709677419,1.2741935483871,1.25483870967742,1.30322580645161,1.35806451612903,1.36129032258065,1.39677419354839,1.45161290322581,1.46129032258065,1.45483870967742,1.48387096774194,1.50967741935484,1.50967741935484,1.52258064516129,1.54838709677419,1.55806451612903,1.56129032258065,1.60322580645161,1.65483870967742,1.66451612903226,1.66451612903226,1.71290322580645,1.77096774193548,1.76451612903226,1.70645161290323,1.66451612903226,1.63225806451613,1.55161290322581,1.42903225806452,1.32258064516129,1.26451612903226,1.24516129032258,1.23548387096774,1.23548387096774,1.25161290322581,1.24193548387097,1.19677419354839,1.16451612903226,1.18064516129032,1.21290322580645,1.21935483870968,1.20967741935484,1.19354838709677,1.16129032258065,1.15161290322581,1.18064516129032,1.20645161290323,1.18387096774194,1.15161290322581,1.14516129032258,1.15806451612903,1.18709677419355,1.23225806451613,1.26774193548387,1.28064516129032,1.29032258064516,1.31935483870968,1.35161290322581,1.37741935483871,1.41612903225806,1.45161290322581,1.44516129032258,1.4258064516129,1.43225806451613,1.45483870967742,1.43225806451613,1.34193548387097,1.26129032258065,1.25806451612903,1.29677419354839,1.28387096774194,1.24193548387097,1.25483870967742,1.25806451612903,1.15806451612903,1.18064516129032,1.69032258064516,2.46129032258065,2.63870967741935,1.87741935483871,1,0.858064516129032,1.22258064516129,1.41290322580645,1.35806451612903,1.36774193548387,1.46129032258065,1.5,1.47096774193548,1.4258064516129,1.40322580645161,1.44838709677419,1.51935483870968,1.53225806451613,1.5,1.50967741935484,1.56129032258065,1.58709677419355,1.59354838709677,1.61612903225806,1.63870967741935,1.66451612903226,1.73548387096774,1.83225806451613,1.89032258064516,1.9,1.9,1.89677419354839,1.83870967741935,1.70645161290323,1.55161290322581,1.43548387096774,1.36129032258065,1.30645161290323,1.27096774193548,1.24516129032258,1.20322580645161,1.15806451612903,1.15806451612903,1.17741935483871,1.16774193548387,1.15483870967742,1.17096774193548,1.1741935483871,1.15161290322581,1.15161290322581,1.18709677419355,1.21935483870968,1.21935483870968,1.21612903225806,1.2258064516129,1.24193548387097,1.24516129032258,1.23870967741935,1.24193548387097,1.25483870967742,1.25483870967742,1.25483870967742,1.28709677419355,1.33870967741935,1.35806451612903,1.32903225806452,1.29354838709677,1.29677419354839,1.33225806451613,1.32903225806452,1.26451612903226,1.20322580645161,1.20967741935484,1.23548387096774,1.2258064516129,1.21612903225806,1.25483870967742,1.27741935483871,1.20322580645161,1.19677419354839,1.58387096774194,2.28064516129032,2.58387096774194,1.98387096774194,1.05806451612903,0.748387096774194,1.0741935483871,1.34193548387097,1.31612903225806,1.27741935483871,1.33225806451613,1.35806451612903,1.36774193548387,1.39032258064516,1.39032258064516,1.37096774193548,1.37741935483871,1.41290322580645,1.44516129032258,1.48709677419355,1.52903225806452,1.54516129032258,1.56129032258065,1.6258064516129,1.69354838709677,1.71290322580645,1.7258064516129,1.78064516129032,1.83225806451613,1.83548387096774,1.83225806451613,1.82903225806452,1.76451612903226,1.61935483870968,1.4741935483871,1.39032258064516,1.32258064516129,1.25483870967742,1.20967741935484,1.19354838709677,1.18387096774194,1.18387096774194,1.19032258064516,1.18709677419355,1.20322580645161,1.24516129032258,1.26774193548387,1.26129032258065,1.28064516129032,1.32258064516129,1.32903225806452,1.30967741935484,1.30967741935484,1.30645161290323,1.29354838709677,1.29354838709677,1.28709677419355,1.25806451612903,1.24516129032258,1.27741935483871,1.30322580645161,1.28064516129032,1.24516129032258,1.25483870967742,1.29677419354839,1.3258064516129,1.33870967741935,1.35806451612903,1.37741935483871,1.3741935483871,1.3258064516129,1.27096774193548,1.28064516129032,1.3258064516129,1.33225806451613,1.31935483870968,1.34193548387097,1.31612903225806,1.18387096774194,1.21612903225806,1.74838709677419,2.48709677419355,2.58387096774194,1.78064516129032,0.932258064516129,0.806451612903226,1.1258064516129,1.29032258064516,1.2741935483871,1.29354838709677,1.33225806451613,1.32258064516129,1.33225806451613,1.38064516129032,1.40967741935484,1.4258064516129,1.46451612903226,1.50967741935484,1.54516129032258,1.57741935483871,1.60322580645161,1.61290322580645,1.61612903225806,1.63225806451613,1.65161290322581,1.68709677419355,1.73225806451613,1.7741935483871,1.79032258064516,1.79032258064516,1.77741935483871,1.71935483870968,1.62258064516129,1.52258064516129,1.43870967741935,1.34838709677419,1.2741935483871,1.24838709677419,1.24516129032258,1.25161290322581,1.26451612903226,1.26129032258065,1.24838709677419,1.26451612903226,1.30967741935484,1.32258064516129,1.29677419354839,1.28387096774194,1.29354838709677,1.30967741935484,1.31612903225806,1.29677419354839,1.25483870967742,1.23870967741935,1.25483870967742,1.26129032258065,1.24838709677419,1.24838709677419,1.26129032258065,1.26774193548387,1.2741935483871,1.29032258064516,1.30967741935484,1.34193548387097,1.39677419354839,1.45483870967742,1.4741935483871,1.45161290322581,1.4258064516129,1.4,1.33548387096774,1.28387096774194,1.32258064516129,1.38387096774194,1.36129032258065,1.29677419354839,1.23870967741935,1.15161290322581,1.19032258064516,1.68387096774194,2.43870967741935,2.60967741935484,1.85161290322581,0.987096774193548,0.835483870967742,1.14516129032258,1.28387096774194,1.24838709677419,1.30322580645161,1.38709677419355,1.3741935483871,1.35161290322581,1.39677419354839,1.44838709677419,1.46129032258065,1.46451612903226,1.4741935483871,1.46451612903226,1.44516129032258,1.45806451612903,1.48387096774194,1.49032258064516,1.49032258064516,1.52903225806452,1.58709677419355,1.60967741935484,1.59677419354839,1.61290322580645,1.65161290322581,1.67096774193548,1.65161290322581,1.58709677419355,1.49032258064516,1.39032258064516,1.33870967741935,1.31612903225806,1.27741935483871,1.22903225806452,1.21935483870968,1.23548387096774,1.23548387096774,1.22258064516129,1.20967741935484,1.20645161290323,1.21612903225806,1.22903225806452,1.20967741935484,1.18064516129032,1.19354838709677,1.24193548387097,1.24838709677419,1.20967741935484,1.19032258064516,1.20322580645161,1.22258064516129,1.23870967741935,1.26129032258065,1.27741935483871,1.28387096774194,1.32258064516129,1.37741935483871,1.39677419354839,1.37741935483871,1.36774193548387,1.39354838709677,1.43225806451613,1.44193548387097,1.40967741935484,1.36129032258065,1.31612903225806,1.29032258064516,1.2741935483871,1.25483870967742,1.24193548387097,1.25483870967742,1.24838709677419,1.15483870967742,1.14193548387097,1.54838709677419,2.26774193548387,2.54838709677419,1.93870967741935,1.08387096774194,0.851612903225806,1.15483870967742,1.35806451612903,1.34838709677419,1.38387096774194,1.45483870967742,1.43870967741935,1.40322580645161,1.42258064516129,1.44516129032258,1.44193548387097,1.45483870967742,1.46774193548387,1.46129032258065,1.46451612903226,1.49354838709677,1.52258064516129,1.55161290322581,1.58709677419355,1.61290322580645,1.61935483870968,1.63870967741935,1.68709677419355,1.74516129032258,1.7741935483871,1.78387096774194,1.78387096774194,1.75483870967742,1.67741935483871,1.56129032258065,1.43548387096774,1.34838709677419,1.30645161290323,1.28387096774194,1.28064516129032,1.28709677419355,1.2741935483871,1.23870967741935,1.21612903225806,1.2258064516129,1.24838709677419,1.25806451612903,1.24193548387097,1.2258064516129,1.24516129032258,1.2741935483871,1.26774193548387,1.25806451612903,1.3,1.34838709677419,1.33870967741935,1.31290322580645,1.32258064516129,1.35806451612903,1.38064516129032,1.38387096774194,1.37096774193548,1.37096774193548,1.40322580645161,1.41612903225806,1.38064516129032,1.35806451612903,1.37096774193548,1.34838709677419,1.2741935483871,1.23870967741935,1.25806451612903,1.26451612903226,1.23870967741935,1.24838709677419,1.26129032258065,1.18709677419355,1.16129032258065,1.5258064516129,2.25161290322581,2.63870967741935,2.13225806451613,1.24193548387097,0.890322580645161,1.14516129032258,1.3741935483871,1.33870967741935,1.3,1.36451612903226,1.40967741935484,1.38709677419355,1.36129032258065,1.36451612903226,1.38387096774194,1.39677419354839,1.40322580645161,1.41935483870968,1.44838709677419,1.47096774193548,1.48709677419355,1.50645161290323,1.54193548387097,1.59677419354839,1.65161290322581,1.69032258064516,1.73548387096774,1.77096774193548,1.78064516129032,1.77741935483871,1.7741935483871,1.73225806451613,1.61935483870968,1.4741935483871,1.36129032258065,1.29032258064516,1.24193548387097,1.22258064516129,1.21290322580645,1.18709677419355,1.16129032258065,1.16774193548387,1.18709677419355,1.19032258064516,1.19354838709677,1.20645161290323,1.21935483870968,1.24193548387097,1.27096774193548,1.28709677419355,1.2741935483871,1.25806451612903,1.27096774193548,1.30967741935484,1.34193548387097,1.33870967741935,1.29677419354839,1.26774193548387,1.2741935483871,1.28709677419355,1.27741935483871,1.26774193548387,1.26774193548387,1.26774193548387,1.27741935483871,1.31290322580645,1.36451612903226,1.37741935483871,1.34838709677419,1.31612903225806,1.28064516129032,1.23548387096774,1.22903225806452,1.27096774193548,1.30967741935484,1.31612903225806,1.31290322580645,1.24193548387097,1.19677419354839,1.52258064516129,2.25806451612903,2.70322580645161,2.21612903225806,1.29032258064516,0.883870967741936,1.08709677419355,1.26129032258065,1.2258064516129,1.24193548387097,1.31935483870968,1.31612903225806,1.30322580645161,1.34838709677419,1.37741935483871,1.36451612903226,1.38709677419355,1.43548387096774,1.46774193548387,1.50322580645161,1.54838709677419,1.56451612903226,1.55806451612903,1.59354838709677,1.65806451612903,1.69032258064516,1.69354838709677,1.71935483870968,1.76129032258065,1.76129032258065,1.73548387096774,1.70322580645161,1.64516129032258,1.53870967741935,1.43225806451613,1.35806451612903,1.29677419354839,1.2258064516129,1.1741935483871,1.16129032258065,1.18064516129032,1.20322580645161,1.23548387096774,1.27741935483871,1.30322580645161,1.31290322580645,1.31612903225806,1.28709677419355,1.25161290322581,1.28709677419355,1.36774193548387,1.37741935483871,1.31612903225806,1.27741935483871,1.26451612903226,1.25161290322581,1.24516129032258,1.25161290322581,1.23870967741935,1.21935483870968,1.2258064516129,1.25806451612903,1.28064516129032,1.28709677419355,1.3,1.33225806451613,1.37096774193548,1.39677419354839,1.42258064516129,1.43548387096774,1.4,1.33870967741935,1.31290322580645,1.31612903225806,1.29677419354839,1.27741935483871,1.30645161290323,1.29032258064516,1.17096774193548,1.21290322580645,1.73548387096774,2.44838709677419,2.51935483870968,1.71612903225806,0.893548387096774,0.816129032258065,1.18064516129032,1.33548387096774,1.27096774193548,1.28709677419355,1.3741935483871,1.39032258064516,1.3741935483871,1.40645161290323,1.46774193548387,1.50645161290323,1.50967741935484,1.5,1.51290322580645,1.54193548387097,1.58387096774194,1.61290322580645,1.61935483870968,1.62903225806452,1.65483870967742,1.66774193548387,1.67096774193548,1.70645161290323,1.74838709677419,1.74838709677419,1.73225806451613,1.71290322580645,1.65161290322581,1.55161290322581,1.46451612903226,1.39677419354839,1.32903225806452,1.27741935483871,1.26129032258065,1.26129032258065,1.25483870967742,1.25806451612903,1.28709677419355,1.31612903225806,1.31290322580645,1.29032258064516,1.28709677419355,1.28709677419355,1.25483870967742,1.22258064516129,1.23225806451613,1.25806451612903,1.26129032258065,1.24838709677419,1.23548387096774,1.22903225806452,1.23548387096774,1.24516129032258,1.24193548387097,1.25161290322581,1.28387096774194,1.30645161290323,1.30967741935484,1.33548387096774,1.39354838709677,1.43225806451613,1.4258064516129,1.40967741935484,1.42258064516129,1.44516129032258,1.41290322580645,1.32903225806452,1.28064516129032,1.29032258064516,1.28064516129032,1.23225806451613,1.2258064516129,1.25806451612903,1.2,1.08064516129032,1.20967741935484,1.82903225806452,2.5258064516129,2.48387096774194,1.6258064516129,0.883870967741936,0.916129032258065,1.27741935483871,1.37096774193548,1.3258064516129,1.39032258064516,1.44193548387097,1.38709677419355,1.38064516129032,1.44838709677419,1.4741935483871,1.44516129032258,1.43870967741935,1.45483870967742,1.48064516129032,1.50322580645161,1.49677419354839,1.46774193548387,1.48387096774194,1.55806451612903,1.63225806451613,1.65161290322581,1.65483870967742,1.69032258064516,1.74193548387097,1.76774193548387,1.76451612903226,1.73870967741935,1.67741935483871,1.58064516129032,1.48064516129032,1.4,1.33225806451613,1.2741935483871,1.24516129032258,1.23548387096774,1.21935483870968,1.20322580645161,1.2,1.20645161290323,1.19354838709677,1.18387096774194,1.20967741935484,1.23548387096774,1.21290322580645,1.18387096774194,1.21935483870968,1.26451612903226,1.24516129032258,1.21612903225806,1.24838709677419,1.3,1.31290322580645,1.32903225806452,1.36451612903226,1.36774193548387,1.33870967741935,1.33548387096774,1.35483870967742,1.35483870967742,1.35483870967742,1.38064516129032,1.39354838709677,1.38064516129032,1.36129032258065,1.33225806451613,1.28064516129032,1.23548387096774,1.22258064516129,1.21290322580645,1.20967741935484,1.23225806451613,1.22903225806452,1.14516129032258,1.17096774193548,1.63548387096774,2.36774193548387,2.59677419354839,1.91290322580645,1.02903225806452,0.832258064516129,1.18064516129032,1.37096774193548,1.30322580645161,1.30322580645161,1.38387096774194,1.38709677419355,1.35806451612903,1.3741935483871,1.38709677419355,1.37096774193548,1.37741935483871,1.39032258064516,1.38709677419355,1.40645161290323,1.46774193548387,1.52258064516129,1.53870967741935,1.55161290322581,1.59677419354839,1.67741935483871,1.75161290322581,1.78064516129032,1.7741935483871,1.77096774193548,1.78064516129032,1.76129032258065,1.68709677419355,1.57741935483871,1.46129032258065,1.3741935483871,1.31290322580645,1.25806451612903,1.21290322580645,1.18387096774194,1.17096774193548,1.16774193548387,1.16774193548387,1.18387096774194,1.20967741935484,1.23225806451613,1.24193548387097,1.25483870967742,1.27741935483871,1.3,1.30322580645161,1.30322580645161,1.31612903225806,1.31612903225806,1.30645161290323,1.30322580645161,1.32258064516129,1.34516129032258,1.34516129032258,1.33225806451613,1.32258064516129,1.3258064516129,1.32258064516129,1.32903225806452,1.34516129032258,1.34193548387097,1.3258064516129,1.34193548387097,1.36451612903226,1.33225806451613,1.27096774193548,1.25483870967742,1.28709677419355,1.30322580645161,1.30645161290323,1.29677419354839,1.23225806451613,1.17741935483871,1.44193548387097,2.10967741935484,2.61935483870968,2.29032258064516,1.39354838709677,0.870967741935484,1.02258064516129,1.28709677419355,1.29354838709677,1.25806451612903,1.32903225806452,1.36774193548387,1.33548387096774,1.3258064516129,1.35806451612903,1.38387096774194,1.39354838709677,1.41935483870968,1.45806451612903,1.49354838709677,1.51935483870968,1.53870967741935,1.56451612903226,1.60645161290323,1.65483870967742,1.69032258064516,1.7258064516129,1.76129032258065,1.78064516129032,1.78064516129032,1.78064516129032,1.75161290322581,1.6741935483871,1.56774193548387,1.46129032258065,1.37096774193548,1.29677419354839,1.24838709677419,1.22903225806452,1.23225806451613,1.22903225806452,1.19677419354839,1.1741935483871,1.22258064516129,1.28387096774194,1.28387096774194,1.26129032258065,1.28064516129032,1.31612903225806,1.33870967741935,1.35483870967742,1.35806451612903,1.34193548387097,1.31612903225806,1.30322580645161,1.29677419354839,1.29032258064516,1.28709677419355,1.28064516129032,1.27096774193548,1.2741935483871,1.28709677419355,1.29677419354839,1.28387096774194,1.29032258064516,1.33548387096774,1.37741935483871,1.3741935483871,1.37096774193548,1.38709677419355,1.37741935483871,1.33548387096774,1.31612903225806,1.32903225806452,1.33870967741935,1.34516129032258,1.35161290322581,1.30967741935484,1.20645161290323,1.26129032258065,1.74516129032258,2.41612903225806,2.50645161290323,1.76129032258065,0.954838709677419,0.838709677419355,1.14838709677419,1.28387096774194,1.24193548387097,1.27741935483871,1.34516129032258,1.34516129032258,1.34193548387097,1.38387096774194,1.42258064516129,1.43548387096774,1.45806451612903,1.49354838709677,1.52258064516129,1.54838709677419,1.5741935483871,1.59354838709677,1.60645161290323,1.61935483870968,1.64516129032258,1.6741935483871,1.68709677419355,1.68387096774194,1.69032258064516,1.71612903225806,1.72903225806452,1.7,1.62258064516129,1.5,1.37741935483871,1.30322580645161,1.27741935483871,1.26774193548387,1.25483870967742,1.23548387096774,1.22903225806452,1.24838709677419,1.27741935483871,1.29032258064516,1.29677419354839,1.30322580645161,1.30645161290323,1.29677419354839,1.29354838709677,1.29677419354839,1.29032258064516,1.27096774193548,1.24838709677419,1.23870967741935,1.23548387096774,1.22903225806452,1.22258064516129,1.21612903225806,1.20967741935484,1.21612903225806,1.23225806451613,1.23225806451613,1.23225806451613,1.2741935483871,1.32903225806452,1.33870967741935,1.33225806451613,1.36774193548387,1.41612903225806,1.42903225806452,1.41935483870968,1.41290322580645,1.38709677419355,1.3258064516129,1.27096774193548,1.26451612903226,1.2741935483871,1.26129032258065,1.24193548387097,1.22258064516129,1.14516129032258,1.08387096774194,1.36129032258065,2.06451612903226,2.57741935483871,2.21290322580645,1.29677419354839,0.790322580645161,0.964516129032258,1.24193548387097,1.28709677419355,1.29032258064516,1.37096774193548,1.40967741935484,1.39354838709677,1.41612903225806,1.45483870967742,1.45806451612903,1.44838709677419,1.45161290322581,1.45161290322581,1.44516129032258,1.45483870967742,1.48064516129032,1.49677419354839,1.51290322580645,1.56451612903226,1.61935483870968,1.65161290322581,1.67741935483871,1.71612903225806,1.73548387096774,1.7258064516129,1.72258064516129,1.71612903225806,1.66451612903226,1.57741935483871,1.48064516129032,1.40645161290323,1.35483870967742,1.3258064516129,1.30322580645161,1.26774193548387,1.23548387096774,1.22903225806452,1.23870967741935,1.24838709677419,1.25161290322581,1.25161290322581,1.24516129032258,1.26129032258065,1.28709677419355,1.29032258064516,1.27741935483871,1.29032258064516,1.30967741935484,1.31290322580645,1.33870967741935,1.39354838709677,1.40967741935484,1.37096774193548,1.36129032258065,1.41612903225806,1.45161290322581,1.43225806451613,1.41935483870968,1.43870967741935,1.45483870967742,1.45161290322581,1.45161290322581
1.26774193548387,1.29032258064516,1.30322580645161,1.30645161290323,1.32258064516129,1.34516129032258,1.36129032258065,1.3741935483871,1.38709677419355,1.40322580645161,1.41935483870968,1.42258064516129,1.41290322580645,1.40645161290323,1.40645161290323,1.38387096774194,1.31935483870968,1.26451612903226,1.25806451612903,1.26774193548387,1.25483870967742,1.24838709677419,1.26451612903226,1.22903225806452,1.14516129032258,1.28064516129032,1.85161290322581,2.53225806451613,2.6,1.87096774193548,1.09032258064516,0.948387096774194,1.22903225806452,1.35806451612903,1.3,1.32258064516129,1.39677419354839,1.39677419354839,1.37096774193548,1.38387096774194,1.39677419354839,1.39032258064516,1.4,1.41935483870968,1.43225806451613,1.44516129032258,1.45806451612903,1.47096774193548,1.50967741935484,1.57741935483871,1.64193548387097,1.67096774193548,1.70322580645161,1.76774193548387,1.83548387096774,1.86451612903226,1.86451612903226,1.83548387096774,1.75806451612903,1.64838709677419,1.53870967741935,1.44193548387097,1.34193548387097,1.26129032258065,1.21612903225806,1.19354838709677,1.17096774193548,1.16774193548387,1.17096774193548,1.16129032258065,1.14838709677419,1.16451612903226,1.19677419354839,1.20967741935484,1.20967741935484,1.22258064516129,1.25806451612903,1.29032258064516,1.29677419354839,1.30322580645161,1.32258064516129,1.32903225806452,1.32258064516129,1.3258064516129,1.33225806451613,1.31290322580645,1.28387096774194,1.26774193548387,1.26774193548387,1.26451612903226,1.25483870967742,1.23870967741935,1.23225806451613,1.24516129032258,1.25483870967742,1.24838709677419,1.25483870967742,1.27741935483871,1.28709677419355,1.28064516129032,1.29032258064516,1.32903225806452,1.36129032258065,1.37096774193548,1.39354838709677,1.43870967741935,1.46774193548387,1.45483870967742,1.44838709677419,1.46129032258065,1.45806451612903,1.40322580645161,1.33225806451613,1.29032258064516,1.28387096774194,1.27741935483871,1.26451612903226,1.2741935483871,1.2741935483871,1.19032258064516,1.12258064516129,1.41612903225806,2.14516129032258,2.7,2.39677419354839,1.49354838709677,0.916129032258065,1.02258064516129,1.3,1.34838709677419,1.33225806451613,1.41935483870968,1.47096774193548,1.40967741935484,1.37741935483871,1.43225806451613,1.46774193548387,1.43548387096774,1.40645161290323,1.43548387096774,1.46774193548387,1.47096774193548,1.47741935483871,1.5258064516129,1.56774193548387,1.58064516129032,1.60322580645161,1.66774193548387,1.74193548387097,1.79354838709677,1.83225806451613,1.85806451612903,1.85806451612903,1.82258064516129,1.75806451612903,1.65483870967742,1.52903225806452,1.41612903225806,1.33548387096774,1.28387096774194,1.25161290322581,1.2258064516129,1.19354838709677,1.17096774193548,1.18387096774194,1.20322580645161,1.19354838709677,1.16451612903226,1.16451612903226,1.19032258064516,1.20645161290323,1.20645161290323,1.22258064516129,1.26129032258065,1.29032258064516,1.29032258064516,1.29032258064516,1.30645161290323,1.3258064516129,1.32903225806452,1.32903225806452,1.33225806451613,1.33548387096774,1.31290322580645,1.28709677419355,1.27741935483871,1.27741935483871,1.27096774193548,1.26129032258065,1.25806451612903,1.24516129032258,1.22903225806452,1.23548387096774,1.25806451612903,1.2741935483871,1.26774193548387,1.26774193548387,1.29032258064516,1.33225806451613,1.36451612903226,1.3741935483871,1.37096774193548,1.39032258064516,1.44516129032258,1.47741935483871,1.46129032258065,1.43548387096774,1.44516129032258,1.44838709677419,1.40967741935484,1.34838709677419,1.31935483870968,1.31290322580645,1.3,1.28709677419355,1.29032258064516,1.26451612903226,1.16451612903226,1.13870967741935,1.5,2.23870967741935,2.71290322580645,2.3258064516129,1.41612903225806,0.906451612903226,1.06451612903226,1.33870967741935,1.35806451612903,1.33870967741935,1.4258064516129,1.46774193548387,1.41612903225806,1.40322580645161,1.45161290322581,1.46129032258065,1.42903225806452,1.4258064516129,1.45483870967742,1.48064516129032,1.49032258064516,1.5,1.50645161290323,1.53870967741935,1.59354838709677,1.64516129032258,1.66774193548387,1.71290322580645,1.79354838709677,1.85483870967742,1.8741935483871,1.87096774193548,1.83225806451613,1.74193548387097,1.63225806451613,1.52903225806452,1.43225806451613,1.34193548387097,1.28064516129032,1.25161290322581,1.2258064516129,1.20967741935484,1.20645161290323,1.2,1.18709677419355,1.17741935483871,1.18064516129032,1.17096774193548,1.16774193548387,1.19354838709677,1.22903225806452,1.24516129032258,1.25806451612903,1.2741935483871,1.27741935483871,1.28064516129032,1.30322580645161,1.32258064516129,1.32258064516129,1.32258064516129,1.32258064516129,1.30322580645161,1.29354838709677,1.30645161290323,1.3,1.26774193548387,1.25806451612903,1.27096774193548,1.26129032258065,1.24193548387097,1.23870967741935,1.24516129032258,1.23870967741935,1.24193548387097,1.26451612903226,1.29354838709677,1.30645161290323,1.32258064516129,1.35806451612903,1.4,1.43548387096774,1.45806451612903,1.45483870967742,1.43870967741935,1.44838709677419,1.45483870967742,1.40967741935484,1.35483870967742,1.33225806451613,1.32903225806452,1.30322580645161,1.28064516129032,1.28387096774194,1.26129032258065,1.16774193548387,1.19354838709677,1.65161290322581,2.38387096774194,2.63225806451613,1.97096774193548,1.08387096774194,0.838709677419355,1.1258064516129,1.31290322580645,1.29354838709677,1.32903225806452,1.43548387096774,1.4741935483871,1.45806451612903,1.43548387096774,1.4258064516129,1.45161290322581,1.48709677419355,1.48709677419355,1.46774193548387,1.47741935483871,1.50645161290323,1.51612903225806,1.5258064516129,1.55806451612903,1.59354838709677,1.62258064516129,1.66774193548387,1.72903225806452,1.77096774193548,1.79677419354839,1.81935483870968,1.82903225806452,1.78387096774194,1.68064516129032,1.56451612903226,1.46129032258065,1.38387096774194,1.33225806451613,1.29354838709677,1.26129032258065,1.23870967741935,1.23870967741935,1.23548387096774,1.21290322580645,1.19354838709677,1.2,1.20967741935484,1.20322580645161,1.18709677419355,1.19354838709677,1.20967741935484,1.22258064516129,1.23225806451613,1.24193548387097,1.26774193548387,1.29677419354839,1.30322580645161,1.29677419354839,1.30967741935484,1.33548387096774,1.33870967741935,1.31935483870968,1.30967741935484,1.32258064516129,1.3258064516129,1.31935483870968,1.31290322580645,1.30322580645161,1.28387096774194,1.26774193548387,1.26451612903226,1.27096774193548,1.26774193548387,1.26129032258065,1.26451612903226,1.28709677419355,1.30967741935484,1.32258064516129,1.34516129032258,1.38709677419355,1.42258064516129,1.42258064516129,1.42258064516129,1.45161290322581,1.47741935483871,1.44838709677419,1.38387096774194,1.35483870967742,1.36774193548387,1.37096774193548,1.33548387096774,1.30967741935484,1.30322580645161,1.23225806451613,1.17096774193548,1.43548387096774,2.11290322580645,2.59677419354839,2.21290322580645,1.30322580645161,0.819354838709677,0.990322580645161,1.24193548387097,1.26774193548387,1.28709677419355,1.39354838709677,1.43225806451613,1.40645161290323,1.4258064516129,1.47741935483871,1.50322580645161,1.51290322580645,1.52258064516129,1.50645161290323,1.49032258064516,1.51290322580645,1.54838709677419,1.55483870967742,1.55483870967742,1.57741935483871,1.62903225806452,1.6741935483871,1.70967741935484,1.74838709677419,1.79354838709677,1.82258064516129,1.80645161290323,1.75161290322581,1.67096774193548,1.57741935483871,1.48064516129032,1.40322580645161,1.33870967741935,1.29354838709677,1.28709677419355,1.29677419354839,1.2741935483871,1.24193548387097,1.23548387096774,1.24516129032258,1.24193548387097,1.23225806451613,1.22903225806452,1.2258064516129,1.20967741935484,1.20322580645161,1.21290322580645,1.21935483870968,1.21935483870968,1.2258064516129,1.23548387096774,1.25806451612903,1.2741935483871,1.28709677419355,1.30322580645161,1.31612903225806,1.31290322580645,1.30645161290323,1.31935483870968,1.34516129032258,1.34193548387097,1.32258064516129,1.31612903225806,1.32903225806452,1.3258064516129,1.30645161290323,1.29354838709677,1.27741935483871,1.26129032258065,1.26129032258065,1.2741935483871,1.26774193548387,1.28064516129032,1.33870967741935,1.38709677419355,1.37741935483871,1.36774193548387,1.40967741935484,1.44193548387097,1.41935483870968,1.36451612903226,1.33870967741935,1.35161290322581,1.37741935483871,1.37096774193548,1.34838709677419,1.33548387096774,1.3,1.2258064516129,1.30967741935484,1.81290322580645,2.50645161290323,2.61935483870968,1.85806451612903,0.987096774193548,0.816129032258065,1.13548387096774,1.29354838709677,1.22903225806452,1.25806451612903,1.37096774193548,1.39677419354839,1.37096774193548,1.40645161290323,1.46451612903226,1.48064516129032,1.4741935483871,1.48709677419355,1.51612903225806,1.54193548387097,1.56129032258065,1.58064516129032,1.59677419354839,1.61290322580645,1.64838709677419,1.68387096774194,1.71290322580645,1.74193548387097,1.77741935483871,1.79032258064516,1.77741935483871,1.74838709677419,1.68709677419355,1.58064516129032,1.45483870967742,1.37096774193548,1.33225806451613,1.30645161290323,1.2741935483871,1.24838709677419,1.24516129032258,1.26129032258065,1.28709677419355,1.29032258064516,1.26774193548387,1.24516129032258,1.24516129032258,1.25806451612903,1.25483870967742,1.23548387096774,1.22903225806452,1.23548387096774,1.23548387096774,1.22903225806452,1.22903225806452,1.23548387096774,1.21935483870968,1.20967741935484,1.23548387096774,1.26129032258065,1.25806451612903,1.25806451612903,1.29677419354839,1.33225806451613,1.33548387096774,1.32258064516129,1.31612903225806,1.3258064516129,1.34516129032258,1.35806451612903,1.34516129032258,1.32258064516129,1.30967741935484,1.30967741935484,1.31290322580645,1.31290322580645,1.30645161290323,1.28387096774194,1.27741935483871,1.29677419354839,1.33225806451613,1.36774193548387,1.38387096774194,1.3741935483871,1.37096774193548,1.40645161290323,1.44193548387097,1.41935483870968,1.36129032258065,1.34838709677419,1.3741935483871,1.38387096774194,1.36451612903226,1.35483870967742,1.33870967741935,1.24838709677419,1.21612903225806,1.6,2.35806451612903,2.73548387096774,2.1741935483871,1.23870967741935,0.861290322580645,1.07096774193548,1.26129032258065,1.24838709677419,1.26451612903226,1.34193548387097,1.36774193548387,1.35806451612903,1.38387096774194,1.42903225806452,1.45806451612903,1.47741935483871,1.49677419354839,1.53225806451613,1.56774193548387,1.58387096774194,1.58064516129032,1.59032258064516,1.61935483870968,1.64193548387097,1.65161290322581,1.68387096774194,1.73870967741935,1.7741935483871,1.78064516129032,1.78064516129032,1.77741935483871,1.73548387096774,1.63548387096774,1.5,1.39032258064516,1.33225806451613,1.28709677419355,1.25161290322581,1.23870967741935,1.24516129032258,1.24838709677419,1.25806451612903,1.27096774193548,1.26774193548387,1.25161290322581,1.25806451612903,1.28709677419355,1.28709677419355,1.25483870967742,1.23225806451613,1.23548387096774,1.23225806451613,1.2258064516129,1.23870967741935,1.24516129032258,1.2258064516129,1.21935483870968,1.23870967741935,1.24838709677419,1.24838709677419,1.25806451612903,1.2741935483871,1.27741935483871,1.28709677419355,1.31935483870968,1.34193548387097,1.34193548387097,1.33870967741935,1.33870967741935,1.33870967741935,1.33548387096774,1.33548387096774,1.32903225806452,1.31290322580645,1.30322580645161,1.29677419354839,1.29354838709677,1.28709677419355,1.27741935483871,1.28387096774194,1.31612903225806,1.35483870967742,1.37096774193548,1.3741935483871,1.38709677419355,1.41612903225806,1.44838709677419,1.45806451612903,1.4258064516129,1.36451612903226,1.34516129032258,1.37741935483871,1.39032258064516,1.36774193548387,1.35483870967742,1.33225806451613,1.24193548387097,1.22258064516129,1.60322580645161,2.35161290322581,2.77096774193548,2.25806451612903,1.28064516129032,0.82258064516129,1.03225806451613,1.26451612903226,1.23870967741935,1.2258064516129,1.33548387096774,1.39677419354839,1.38064516129032,1.38709677419355,1.43548387096774,1.48064516129032,1.49677419354839,1.49677419354839,1.50967741935484,1.54193548387097,1.56774193548387,1.57096774193548,1.5741935483871,1.6,1.64193548387097,1.6741935483871,1.70322580645161,1.7258064516129,1.75161290322581,1.77741935483871,1.79354838709677,1.78064516129032,1.71935483870968,1.62903225806452,1.52258064516129,1.42258064516129,1.34516129032258,1.29354838709677,1.26451612903226,1.26129032258065,1.26451612903226,1.25806451612903,1.25161290322581,1.25806451612903,1.26129032258065,1.25483870967742,1.25806451612903,1.25806451612903,1.24838709677419,1.24516129032258,1.25806451612903,1.25161290322581,1.23548387096774,1.2258064516129,1.23225806451613,1.21935483870968,1.20645161290323,1.21612903225806,1.23870967741935,1.25483870967742,1.26451612903226,1.26774193548387,1.28064516129032,1.30967741935484,1.32903225806452,1.31935483870968,1.30967741935484,1.3258064516129,1.34516129032258,1.34193548387097,1.33225806451613,1.33548387096774,1.3258064516129,1.30645161290323,1.3,1.30645161290323,1.30322580645161,1.29354838709677,1.28064516129032,1.27096774193548,1.26451612903226,1.28064516129032,1.30322580645161,1.30645161290323,1.31290322580645,1.35161290322581,1.40645161290323,1.43548387096774,1.43870967741935,1.44516129032258,1.46451612903226,1.48709677419355,1.46774193548387,1.4,1.34838709677419,1.35483870967742,1.3741935483871,1.35483870967742,1.3258064516129,1.30322580645161,1.2258064516129,1.16451612903226,1.41935483870968,2.10967741935484,2.68709677419355,2.41612903225806,1.48064516129032,0.848387096774194,0.951612903225806,1.24838709677419,1.3,1.27741935483871,1.36129032258065,1.43548387096774,1.4258064516129,1.4258064516129,1.46129032258065,1.48064516129032,1.48709677419355,1.49677419354839,1.5,1.50322580645161,1.5258064516129,1.55806451612903,1.57096774193548,1.56451612903226,1.57741935483871,1.61935483870968,1.65806451612903,1.69032258064516,1.73225806451613,1.77741935483871,1.80322580645161,1.80645161290323,1.78709677419355,1.7258064516129,1.62258064516129,1.50645161290323,1.41290322580645,1.35483870967742,1.31935483870968,1.29677419354839,1.28064516129032,1.26774193548387,1.24838709677419,1.22903225806452,1.22903225806452,1.23870967741935,1.23548387096774,1.21935483870968,1.21290322580645,1.21290322580645,1.20967741935484,1.21290322580645,1.21935483870968,1.21612903225806,1.21935483870968,1.23548387096774,1.25483870967742,1.26451612903226,1.27096774193548,1.28387096774194,1.30967741935484,1.3258064516129,1.3258064516129,1.31935483870968,1.32903225806452,1.33225806451613,1.33225806451613,1.3258064516129,1.31935483870968,1.30645161290323,1.30645161290323,1.30322580645161,1.28387096774194,1.26129032258065,1.26451612903226,1.2741935483871,1.26774193548387,1.26774193548387,1.28064516129032,1.29032258064516,1.28709677419355,1.29032258064516,1.31612903225806,1.35161290322581,1.3741935483871,1.39032258064516,1.42258064516129,1.47096774193548,1.48387096774194,1.46774193548387,1.46129032258065,1.47741935483871,1.46129032258065,1.40322580645161,1.34193548387097,1.31935483870968,1.32258064516129,1.32258064516129,1.30967741935484,1.29677419354839,1.25806451612903,1.17096774193548,1.18709677419355,1.61612903225806,2.36451612903226,2.69032258064516,2.09032258064516,1.18709677419355,0.896774193548387,1.17096774193548,1.35806451612903,1.32903225806452,1.34838709677419,1.43225806451613,1.45161290322581,1.44193548387097,1.45483870967742,1.46129032258065,1.46451612903226,1.47096774193548,1.4741935483871,1.47096774193548,1.47741935483871,1.49354838709677,1.50645161290323,1.5258064516129,1.55806451612903,1.6,1.64193548387097,1.68709677419355,1.74193548387097,1.78064516129032,1.81290322580645,1.84193548387097,1.85161290322581,1.81612903225806,1.73225806451613,1.6258064516129,1.51290322580645,1.4258064516129,1.36129032258065,1.3,1.24838709677419,1.22258064516129,1.21935483870968,1.21612903225806,1.21290322580645,1.20322580645161,1.19032258064516,1.18387096774194,1.19354838709677,1.21290322580645,1.21290322580645,1.2,1.2,1.22903225806452,1.26451612903226,1.2741935483871,1.27096774193548,1.29032258064516,1.31935483870968,1.33225806451613,1.32903225806452,1.3258064516129,1.32258064516129,1.31612903225806,1.30967741935484,1.29677419354839,1.28387096774194,1.27096774193548,1.26774193548387,1.26451612903226,1.25806451612903,1.26451612903226,1.26774193548387,1.26129032258065,1.25161290322581,1.25806451612903,1.26129032258065,1.26451612903226,1.28709677419355,1.32258064516129,1.33548387096774,1.33225806451613,1.35161290322581,1.37741935483871,1.38709677419355,1.40645161290323,1.44516129032258,1.47096774193548,1.44516129032258,1.40645161290323,1.40967741935484,1.42903225806452,1.39677419354839,1.3258064516129,1.27741935483871,1.28387096774194,1.29677419354839,1.28064516129032,1.26774193548387,1.26774193548387,1.20322580645161,1.14193548387097,1.39032258064516,2.06774193548387,2.62903225806452,2.38387096774194,1.51612903225806,0.925806451612903,1.00967741935484,1.28064516129032,1.33225806451613,1.31612903225806,1.39032258064516,1.43870967741935,1.40967741935484,1.40322580645161,1.42903225806452,1.42903225806452,1.41935483870968,1.43225806451613,1.44516129032258,1.44516129032258,1.46451612903226,1.49354838709677,1.50322580645161,1.51935483870968,1.5741935483871,1.64516129032258,1.69032258064516,1.73870967741935,1.8,1.83870967741935,1.85806451612903,1.8741935483871,1.85806451612903,1.76451612903226,1.63548387096774,1.51290322580645,1.40645161290323,1.3258064516129,1.28064516129032,1.25161290322581,1.21290322580645,1.18387096774194,1.18387096774194,1.18064516129032,1.16774193548387,1.17096774193548,1.19354838709677,1.19677419354839,1.18387096774194,1.19354838709677,1.22903225806452,1.25806451612903,1.2741935483871,1.28709677419355,1.29677419354839,1.31290322580645,1.33870967741935,1.34838709677419,1.33548387096774,1.31935483870968,1.31935483870968,1.31290322580645,1.3,1.28709677419355,1.27741935483871,1.27096774193548,1.2741935483871,1.27741935483871,1.2741935483871,1.26774193548387,1.26451612903226,1.25483870967742,1.24838709677419,1.26451612903226,1.28387096774194,1.3,1.31935483870968,1.35161290322581,1.37741935483871,1.39354838709677,1.40645161290323,1.4258064516129,1.45483870967742,1.4741935483871,1.46451612903226,1.44838709677419,1.45161290322581,1.44516129032258,1.39677419354839,1.33225806451613,1.30322580645161,1.3,1.29354838709677,1.29354838709677,1.3,1.25161290322581,1.14838709677419,1.22258064516129,1.75806451612903,2.50322580645161,2.66451612903226,1.94193548387097,1.1,0.919354838709677,1.20322580645161,1.36129032258065,1.34193548387097,1.37741935483871,1.44516129032258,1.44193548387097,1.43225806451613,1.45806451612903,1.46451612903226,1.44516129032258,1.44516129032258,1.46774193548387,1.47741935483871,1.47096774193548,1.48387096774194,1.52258064516129,1.55806451612903,1.57096774193548,1.6,1.66129032258065,1.73225806451613,1.77741935483871,1.80322580645161,1.83225806451613,1.8741935483871,1.88709677419355,1.83225806451613,1.71612903225806,1.58387096774194,1.4741935483871,1.40645161290323,1.34516129032258,1.28064516129032,1.23870967741935,1.2258064516129,1.22258064516129,1.21612903225806,1.2,1.18064516129032,1.17741935483871,1.19354838709677,1.20967741935484,1.2,1.2,1.23548387096774,1.26451612903226,1.26451612903226,1.26451612903226,1.28709677419355,1.30967741935484,1.31612903225806,1.31612903225806,1.3258064516129,1.33225806451613,1.33225806451613,1.3258064516129,1.31612903225806,1.30645161290323,1.29677419354839,1.28387096774194,1.26774193548387,1.26129032258065,1.25806451612903,1.25161290322581,1.24193548387097,1.23870967741935,1.24838709677419,1.26129032258065,1.26451612903226,1.26129032258065,1.2741935483871,1.31612903225806,1.35483870967742,1.35806451612903,1.35806451612903,1.38387096774194,1.43225806451613,1.45161290322581,1.42258064516129,1.40322580645161,1.42903225806452,1.43225806451613,1.37096774193548,1.29677419354839,1.27741935483871,1.28387096774194,1.26774193548387,1.25161290322581,1.25483870967742,1.23870967741935,1.15806451612903,1.1258064516129,1.43225806451613,2.11935483870968,2.6258064516129,2.29677419354839,1.40645161290323,0.870967741935484,1.00322580645161,1.2741935483871,1.30967741935484,1.28387096774194,1.35483870967742,1.41290322580645,1.39677419354839,1.3741935483871,1.38064516129032,1.39354838709677,1.4,1.40645161290323,1.42258064516129,1.42903225806452,1.4258064516129,1.42903225806452,1.46129032258065,1.5,1.52258064516129,1.55806451612903,1.61612903225806,1.6741935483871,1.7258064516129,1.78064516129032,1.81612903225806,1.81612903225806,1.78387096774194,1.70967741935484,1.59354838709677,1.46451612903226,1.36129032258065,1.28709677419355,1.23870967741935,1.21935483870968,1.19677419354839,1.16129032258065,1.13225806451613,1.14193548387097,1.15483870967742,1.13870967741935,1.11935483870968
1.2741935483871,1.75483870967742,2.38709677419355,2.43548387096774,1.7258064516129,1.04193548387097,0.993548387096774,1.26451612903226,1.35483870967742,1.34838709677419,1.41935483870968,1.45161290322581,1.40645161290323,1.43548387096774,1.51612903225806,1.50967741935484,1.44838709677419,1.45483870967742,1.48387096774194,1.45806451612903,1.42903225806452,1.46774193548387,1.52903225806452,1.55161290322581,1.56774193548387,1.58709677419355,1.58387096774194,1.59032258064516,1.68387096774194,1.79354838709677,1.78387096774194,1.70645161290323,1.70322580645161,1.7,1.59354838709677,1.44838709677419,1.38709677419355,1.36129032258065,1.31935483870968,1.27741935483871,1.23548387096774,1.19032258064516,1.18387096774194,1.21290322580645,1.20322580645161,1.1741935483871,1.1741935483871,1.19032258064516,1.18387096774194,1.18387096774194,1.19032258064516,1.19354838709677,1.20322580645161,1.23225806451613,1.25483870967742,1.25483870967742,1.26774193548387,1.31612903225806,1.35161290322581,1.33548387096774,1.30967741935484,1.31935483870968,1.34516129032258,1.3258064516129,1.28387096774194,1.28709677419355,1.30967741935484,1.28387096774194,1.26129032258065,1.29032258064516,1.30322580645161,1.27096774193548,1.25806451612903,1.2741935483871,1.25483870967742,1.23870967741935,1.2741935483871,1.32258064516129,1.35161290322581,1.35806451612903,1.33548387096774,1.33548387096774,1.4,1.44516129032258,1.42903225806452,1.43548387096774,1.48064516129032,1.49032258064516,1.46774193548387,1.44838709677419,1.38064516129032,1.28387096774194,1.26774193548387,1.3258064516129,1.34193548387097,1.31290322580645,1.27096774193548,1.19354838709677,1.19032258064516,1.51935483870968,2.1258064516129,2.42903225806452,1.96451612903226,1.15483870967742,0.812903225806452,1.02903225806452,1.25483870967742,1.32258064516129,1.44193548387097,1.5258064516129,1.43225806451613,1.38064516129032,1.48709677419355,1.54193548387097,1.5,1.52258064516129,1.5741935483871,1.5258064516129,1.45161290322581,1.48064516129032,1.56129032258065,1.58064516129032,1.55806451612903,1.56129032258065,1.60967741935484,1.68709677419355,1.73870967741935,1.72903225806452,1.70967741935484,1.73870967741935,1.74838709677419,1.68709677419355,1.6258064516129,1.59354838709677,1.51935483870968,1.39354838709677,1.32258064516129,1.32258064516129,1.3258064516129,1.31290322580645,1.27741935483871,1.23225806451613,1.22258064516129,1.25483870967742,1.26774193548387,1.26129032258065,1.29354838709677,1.32258064516129,1.26451612903226,1.17741935483871,1.19354838709677,1.29354838709677,1.32903225806452,1.26774193548387,1.23870967741935,1.28709677419355,1.30645161290323,1.27741935483871,1.29354838709677,1.37096774193548,1.40322580645161,1.34838709677419,1.28387096774194,1.27741935483871,1.29354838709677,1.28709677419355,1.27096774193548,1.2741935483871,1.26774193548387,1.21935483870968,1.19354838709677,1.24516129032258,1.30645161290323,1.29677419354839,1.26129032258065,1.29032258064516,1.34193548387097,1.3258064516129,1.29677419354839,1.36451612903226,1.46451612903226,1.48387096774194,1.48064516129032,1.52258064516129,1.52903225806452,1.45483870967742,1.40322580645161,1.41290322580645,1.41290322580645,1.38387096774194,1.35806451612903,1.32903225806452,1.29677419354839,1.29032258064516,1.26451612903226,1.23548387096774,1.44838709677419,1.99354838709677,2.37096774193548,2.00645161290323,1.21612903225806,0.845161290322581,1.07096774193548,1.31935483870968,1.34838709677419,1.38387096774194,1.48387096774194,1.49354838709677,1.45161290322581,1.46774193548387,1.51612903225806,1.5258064516129,1.49677419354839,1.46451612903226,1.45483870967742,1.46774193548387,1.48709677419355,1.52258064516129,1.54838709677419,1.5258064516129,1.51935483870968,1.6,1.65161290322581,1.60322580645161,1.60967741935484,1.73548387096774,1.79677419354839,1.71935483870968,1.64516129032258,1.61290322580645,1.56129032258065,1.48709677419355,1.41612903225806,1.35483870967742,1.32903225806452,1.32258064516129,1.29354838709677,1.25483870967742,1.26129032258065,1.30645161290323,1.31290322580645,1.25483870967742,1.20645161290323,1.22258064516129,1.24193548387097,1.21612903225806,1.19032258064516,1.21290322580645,1.24193548387097,1.24193548387097,1.23870967741935,1.27741935483871,1.32258064516129,1.30967741935484,1.26129032258065,1.29032258064516,1.38709677419355,1.40967741935484,1.33225806451613,1.30322580645161,1.38709677419355,1.43548387096774,1.35483870967742,1.25806451612903,1.26774193548387,1.30322580645161,1.29354838709677,1.29032258064516,1.34516129032258,1.36451612903226,1.29032258064516,1.23870967741935,1.30967741935484,1.4,1.37741935483871,1.33225806451613,1.40645161290323,1.51612903225806,1.47096774193548,1.32258064516129,1.29354838709677,1.38387096774194,1.40322580645161,1.35161290322581,1.36774193548387,1.40322580645161,1.33548387096774,1.22258064516129,1.3258064516129,1.82903225806452,2.45806451612903,2.51612903225806,1.75483870967742,0.929032258064516,0.783870967741935,1.08709677419355,1.25483870967742,1.28387096774194,1.34193548387097,1.35483870967742,1.29677419354839,1.31290322580645,1.42258064516129,1.48387096774194,1.46774193548387,1.47741935483871,1.53548387096774,1.57096774193548,1.53548387096774,1.48064516129032,1.49032258064516,1.55806451612903,1.63225806451613,1.69677419354839,1.75483870967742,1.76451612903226,1.73225806451613,1.71935483870968,1.74838709677419,1.7741935483871,1.74838709677419,1.66451612903226,1.54516129032258,1.42258064516129,1.3258064516129,1.26451612903226,1.25161290322581,1.25161290322581,1.24838709677419,1.25806451612903,1.27096774193548,1.24838709677419,1.23225806451613,1.25806451612903,1.27096774193548,1.22903225806452,1.18709677419355,1.19032258064516,1.22258064516129,1.25806451612903,1.26451612903226,1.22903225806452,1.19677419354839,1.21290322580645,1.24193548387097,1.23870967741935,1.21612903225806,1.19354838709677,1.18709677419355,1.22258064516129,1.28064516129032,1.31612903225806,1.31935483870968,1.33548387096774,1.38064516129032,1.39032258064516,1.34516129032258,1.31935483870968,1.36774193548387,1.42258064516129,1.41290322580645,1.34516129032258,1.30645161290323,1.34193548387097,1.41612903225806,1.45161290322581,1.38709677419355,1.2741935483871,1.21612903225806,1.23548387096774,1.26774193548387,1.25806451612903,1.21935483870968,1.22258064516129,1.25161290322581,1.2,1.2258064516129,1.71612903225806,2.5,2.63870967741935,1.79354838709677,0.916129032258065,0.848387096774194,1.17741935483871,1.25161290322581,1.19032258064516,1.28064516129032,1.37741935483871,1.37096774193548,1.37741935483871,1.42258064516129,1.43225806451613,1.43870967741935,1.46129032258065,1.4741935483871,1.48064516129032,1.50322580645161,1.56451612903226,1.63548387096774,1.64516129032258,1.59677419354839,1.63548387096774,1.78387096774194,1.86774193548387,1.84193548387097,1.88387096774194,2,2,1.8741935483871,1.76451612903226,1.67741935483871,1.53548387096774,1.39354838709677,1.31290322580645,1.23548387096774,1.15483870967742,1.15161290322581,1.19032258064516,1.17741935483871,1.13225806451613,1.14193548387097,1.18709677419355,1.2,1.18709677419355,1.20322580645161,1.23870967741935,1.25483870967742,1.25483870967742,1.25806451612903,1.28709677419355,1.32903225806452,1.32903225806452,1.28387096774194,1.25806451612903,1.28387096774194,1.29354838709677,1.25806451612903,1.22903225806452,1.24516129032258,1.27096774193548,1.27096774193548,1.25483870967742,1.26129032258065,1.28709677419355,1.3,1.3,1.32258064516129,1.35161290322581,1.34838709677419,1.35806451612903,1.4,1.40322580645161,1.33225806451613,1.28064516129032,1.30645161290323,1.33548387096774,1.30967741935484,1.3,1.3258064516129,1.2741935483871,1.17096774193548,1.38387096774194,2.0741935483871,2.6258064516129,2.28387096774194,1.30967741935484,0.706451612903226,0.832258064516129,1.14516129032258,1.21612903225806,1.20322580645161,1.29354838709677,1.39032258064516,1.40645161290323,1.39677419354839,1.43870967741935,1.51290322580645,1.5741935483871,1.58387096774194,1.57096774193548,1.58709677419355,1.61612903225806,1.61612903225806,1.61935483870968,1.65483870967742,1.69677419354839,1.71290322580645,1.75161290322581,1.8258064516129,1.87741935483871,1.86774193548387,1.82903225806452,1.8,1.74838709677419,1.64193548387097,1.51290322580645,1.41290322580645,1.33225806451613,1.26774193548387,1.24516129032258,1.25161290322581,1.24838709677419,1.23870967741935,1.23870967741935,1.25161290322581,1.26774193548387,1.26774193548387,1.25161290322581,1.24193548387097,1.24838709677419,1.26451612903226,1.2741935483871,1.27741935483871,1.25483870967742,1.21612903225806,1.19677419354839,1.2,1.19354838709677,1.17741935483871,1.1741935483871,1.19354838709677,1.2258064516129,1.26774193548387,1.29677419354839,1.29354838709677,1.29032258064516,1.33870967741935,1.40322580645161,1.41935483870968,1.39677419354839,1.38064516129032,1.38064516129032,1.38387096774194,1.36451612903226,1.31290322580645,1.27096774193548,1.26129032258065,1.23870967741935,1.21612903225806,1.23870967741935,1.24193548387097,1.11935483870968,1.06774193548387,1.46774193548387,2.21290322580645,2.55483870967742,1.99677419354839,1.10967741935484,0.748387096774194,0.958064516129032,1.19354838709677,1.24838709677419,1.30645161290323,1.4,1.44516129032258,1.43870967741935,1.44193548387097,1.45483870967742,1.47741935483871,1.49032258064516,1.48709677419355,1.48064516129032,1.48709677419355,1.49677419354839,1.50645161290323,1.54516129032258,1.59354838709677,1.63225806451613,1.65806451612903,1.69354838709677,1.74193548387097,1.8,1.84838709677419,1.84838709677419,1.80645161290323,1.75806451612903,1.68709677419355,1.55806451612903,1.40322580645161,1.30967741935484,1.29354838709677,1.28387096774194,1.25161290322581,1.22258064516129,1.20967741935484,1.21612903225806,1.23548387096774,1.23548387096774,1.20645161290323,1.1741935483871,1.1741935483871,1.19032258064516,1.19032258064516,1.18709677419355,1.21935483870968,1.26451612903226,1.26774193548387,1.24838709677419,1.27096774193548,1.32258064516129,1.32258064516129,1.28387096774194,1.29354838709677,1.34838709677419,1.38064516129032,1.3741935483871,1.3741935483871,1.38064516129032,1.38064516129032,1.38387096774194,1.39677419354839,1.3741935483871,1.31612903225806,1.27096774193548,1.26129032258065,1.25483870967742,1.22258064516129,1.20645161290323,1.24193548387097,1.27741935483871,1.21290322580645,1.13548387096774,1.36451612903226,2.00322580645161,2.55806451612903,2.35483870967742,1.53548387096774,0.935483870967742,0.97741935483871,1.25483870967742,1.33548387096774,1.30967741935484,1.36129032258065,1.4258064516129,1.41290322580645,1.36451612903226,1.36451612903226,1.39032258064516,1.40322580645161,1.40322580645161,1.41935483870968,1.44516129032258,1.4741935483871,1.50322580645161,1.53870967741935,1.58709677419355,1.6258064516129,1.63870967741935,1.6741935483871,1.77096774193548,1.85483870967742,1.84838709677419,1.80645161290323,1.79677419354839,1.75161290322581,1.64193548387097,1.52258064516129,1.43548387096774,1.34838709677419,1.2741935483871,1.23548387096774,1.21612903225806,1.20322580645161,1.18709677419355,1.17096774193548,1.16129032258065,1.17096774193548,1.20322580645161,1.22903225806452,1.2258064516129,1.20645161290323,1.21290322580645,1.24838709677419,1.27741935483871,1.29032258064516,1.30645161290323,1.31935483870968,1.31290322580645,1.30645161290323,1.31935483870968,1.34516129032258,1.35483870967742,1.32903225806452,1.3,1.30967741935484,1.35483870967742,1.3741935483871,1.34516129032258,1.31612903225806,1.30645161290323,1.28387096774194,1.24516129032258,1.23870967741935,1.26129032258065,1.26774193548387,1.25483870967742,1.26774193548387,1.2741935483871,1.2,1.18387096774194,1.55483870967742,2.28709677419355,2.68387096774194,2.19677419354839,1.30322580645161,0.9,1.08709677419355,1.29032258064516,1.27096774193548,1.24516129032258,1.31290322580645,1.35161290322581,1.33870967741935,1.34516129032258,1.36774193548387,1.37096774193548,1.38064516129032,1.40645161290323,1.43870967741935,1.47741935483871,1.50322580645161,1.51290322580645,1.53870967741935,1.60967741935484,1.68387096774194,1.72258064516129,1.74516129032258,1.76451612903226,1.79354838709677,1.82258064516129,1.82258064516129,1.76129032258065,1.65161290322581,1.52903225806452,1.40967741935484,1.31612903225806,1.25806451612903,1.22258064516129,1.18709677419355,1.17741935483871,1.18709677419355,1.18387096774194,1.16774193548387,1.17096774193548,1.20322580645161,1.23225806451613,1.25161290322581,1.26774193548387,1.2741935483871,1.27741935483871,1.29032258064516,1.3,1.31290322580645,1.31935483870968,1.31612903225806,1.3,1.29032258064516,1.28387096774194,1.28709677419355,1.30645161290323,1.31935483870968,1.28387096774194,1.25806451612903,1.30645161290323,1.35806451612903,1.34516129032258,1.31935483870968,1.32903225806452,1.31612903225806,1.26451612903226,1.25161290322581,1.28709677419355,1.30645161290323,1.30322580645161,1.30967741935484,1.26129032258065,1.19032258064516,1.41290322580645,2.09677419354839,2.69677419354839,2.47096774193548,1.56451612903226,0.919354838709677,0.958064516129032,1.20645161290323,1.25161290322581,1.23548387096774,1.29032258064516,1.31612903225806,1.29354838709677,1.31935483870968,1.37096774193548,1.39032258064516,1.41290322580645,1.45161290322581,1.4741935483871,1.49032258064516,1.53225806451613,1.57741935483871,1.60322580645161,1.62903225806452,1.66774193548387,1.71935483870968,1.76451612903226,1.78709677419355,1.78064516129032,1.78064516129032,1.79354838709677,1.75806451612903,1.64838709677419,1.51935483870968,1.41612903225806,1.31935483870968,1.23548387096774,1.20645161290323,1.20967741935484,1.19677419354839,1.19032258064516,1.21290322580645,1.23225806451613,1.23225806451613,1.23870967741935,1.25806451612903,1.28387096774194,1.3,1.30322580645161,1.29354838709677,1.29677419354839,1.30645161290323,1.30645161290323,1.29354838709677,1.2741935483871,1.25806451612903,1.25161290322581,1.24516129032258,1.23548387096774,1.24838709677419,1.26774193548387,1.25806451612903,1.23870967741935,1.25483870967742,1.29032258064516,1.29677419354839,1.29032258064516,1.31612903225806,1.36774193548387,1.39677419354839,1.41290322580645,1.44838709677419,1.46451612903226,1.44516129032258,1.42258064516129,1.40322580645161,1.34838709677419,1.29032258064516,1.29354838709677,1.31935483870968,1.29677419354839,1.25483870967742,1.21612903225806,1.15806451612903,1.23225806451613,1.71935483870968,2.43870967741935,2.60322580645161,1.87741935483871,1.02258064516129,0.835483870967742,1.1258064516129,1.29677419354839,1.3,1.34838709677419,1.42258064516129,1.42903225806452,1.43870967741935,1.49032258064516,1.50645161290323,1.46774193548387,1.45483870967742,1.48387096774194,1.51290322580645,1.51612903225806,1.52903225806452,1.55161290322581,1.5741935483871,1.58387096774194,1.59354838709677,1.63548387096774,1.69354838709677,1.74838709677419,1.7741935483871,1.80322580645161,1.82903225806452,1.79677419354839,1.67741935483871,1.53548387096774,1.42258064516129,1.34838709677419,1.31290322580645,1.30645161290323,1.29677419354839,1.28387096774194,1.27096774193548,1.25806451612903,1.23870967741935,1.21290322580645,1.19354838709677,1.19032258064516,1.19354838709677,1.19677419354839,1.19354838709677,1.20322580645161,1.22903225806452,1.25161290322581,1.25161290322581,1.24838709677419,1.26129032258065,1.28709677419355,1.30645161290323,1.30645161290323,1.29677419354839,1.29677419354839,1.31612903225806,1.33548387096774,1.34516129032258,1.35161290322581,1.34516129032258,1.3258064516129,1.30967741935484,1.30967741935484,1.3,1.29354838709677,1.3,1.29032258064516,1.25806451612903,1.24838709677419,1.28387096774194,1.3,1.2741935483871,1.2741935483871,1.31935483870968,1.36129032258065,1.37741935483871,1.4,1.4258064516129,1.42903225806452,1.43548387096774,1.4741935483871,1.50645161290323,1.47096774193548,1.39677419354839,1.37096774193548,1.3741935483871,1.34838709677419,1.30645161290323,1.30322580645161,1.31290322580645,1.25483870967742,1.15483870967742,1.2258064516129,1.71612903225806,2.43870967741935,2.64516129032258,1.96129032258065,1.09032258064516,0.874193548387097,1.15483870967742,1.29354838709677,1.26129032258065,1.33225806451613,1.44838709677419,1.44516129032258,1.41290322580645,1.45806451612903,1.5,1.48064516129032,1.46774193548387,1.49354838709677,1.50322580645161,1.48709677419355,1.48709677419355,1.50967741935484,1.54838709677419,1.59677419354839,1.64193548387097,1.65161290322581,1.65483870967742,1.69677419354839,1.74838709677419,1.78387096774194,1.80645161290323,1.78709677419355,1.69354838709677,1.57741935483871,1.49032258064516,1.42258064516129,1.35161290322581,1.30967741935484,1.29354838709677,1.26451612903226,1.22903225806452,1.22258064516129,1.23870967741935,1.23870967741935,1.22903225806452,1.2258064516129,1.21612903225806,1.19354838709677,1.18709677419355,1.2,1.21290322580645,1.21935483870968,1.23225806451613,1.24516129032258,1.24838709677419,1.25483870967742,1.27741935483871,1.30322580645161,1.30645161290323,1.30322580645161,1.30967741935484,1.3258064516129,1.33225806451613,1.33225806451613,1.32258064516129,1.30645161290323,1.3,1.29677419354839,1.29677419354839,1.29677419354839,1.29354838709677,1.27741935483871,1.26774193548387,1.27096774193548,1.27741935483871,1.27741935483871,1.27096774193548,1.27096774193548,1.29032258064516,1.32903225806452,1.34193548387097,1.32903225806452,1.34193548387097,1.38709677419355,1.41290322580645,1.41290322580645,1.43225806451613,1.46774193548387,1.48064516129032,1.47741935483871,1.46774193548387,1.44838709677419,1.41935483870968,1.38709677419355,1.35483870967742,1.31935483870968,1.29677419354839,1.29677419354839,1.30322580645161,1.30322580645161,1.26129032258065,1.19032258064516,1.29677419354839,1.83548387096774,2.54838709677419,2.66129032258065,1.9258064516129,1.11612903225806,0.961290322580645,1.22903225806452,1.3741935483871,1.36451612903226,1.4,1.43870967741935,1.43548387096774,1.44516129032258,1.47741935483871,1.4741935483871,1.44838709677419,1.44838709677419,1.47096774193548,1.48064516129032,1.4741935483871,1.49032258064516,1.53548387096774,1.58064516129032,1.6258064516129,1.67096774193548,1.71612903225806,1.75483870967742,1.8,1.84516129032258,1.8741935483871,1.88064516129032,1.85161290322581,1.76774193548387,1.64516129032258,1.53225806451613,1.43548387096774,1.35483870967742,1.29677419354839,1.26451612903226,1.22903225806452,1.20645161290323,1.21290322580645,1.21612903225806,1.18709677419355,1.15483870967742,1.16774193548387,1.20645161290323,1.22903225806452,1.2258064516129,1.22258064516129,1.24193548387097,1.26451612903226,1.2741935483871,1.28387096774194,1.30645161290323,1.32258064516129,1.30967741935484,1.31290322580645,1.34193548387097,1.34838709677419,1.31290322580645,1.28387096774194,1.28387096774194,1.28387096774194,1.27096774193548,1.24838709677419,1.23225806451613,1.2258064516129,1.23548387096774,1.25483870967742,1.27096774193548,1.26451612903226,1.25483870967742,1.26774193548387,1.29032258064516,1.29354838709677,1.3,1.32258064516129,1.33225806451613,1.34193548387097,1.35806451612903,1.35806451612903,1.33548387096774,1.33870967741935,1.37096774193548,1.37096774193548,1.33548387096774,1.33225806451613,1.35483870967742,1.34838709677419,1.33870967741935,1.36129032258065,1.38387096774194,1.3741935483871,1.35161290322581,1.35806451612903,1.37096774193548,1.36129032258065,1.3258064516129,1.29032258064516,1.28709677419355,1.32258064516129,1.36129032258065,1.37096774193548,1.32903225806452,1.23225806451613,1.25161290322581,1.66774193548387,2.38387096774194,2.70322580645161,2.13870967741935,1.23548387096774,0.870967741935484,1.09677419354839,1.3,1.26451612903226,1.24838709677419,1.30967741935484,1.3258064516129,1.31290322580645,1.33870967741935,1.36774193548387,1.38387096774194,1.41935483870968,1.46129032258065,1.48387096774194,1.50645161290323,1.55161290322581,1.59032258064516,1.60645161290323,1.6258064516129,1.66129032258065,1.70967741935484,1.75483870967742,1.79354838709677,1.81612903225806,1.80967741935484,1.78709677419355,1.77096774193548,1.73548387096774,1.6258064516129,1.46451612903226,1.33870967741935,1.27096774193548,1.2258064516129,1.19032258064516,1.18709677419355,1.19354838709677,1.18709677419355,1.19354838709677,1.22903225806452,1.25161290322581,1.25161290322581,1.25161290322581,1.27741935483871,1.30967741935484,1.31935483870968,1.31290322580645,1.30322580645161,1.3,1.30322580645161,1.30322580645161,1.30322580645161,1.3,1.3,1.29032258064516,1.28064516129032,1.28709677419355,1.30322580645161,1.31290322580645,1.31290322580645,1.32258064516129,1.34516129032258,1.35806451612903,1.37096774193548,1.40322580645161,1.43870967741935,1.43548387096774,1.42903225806452,1.45806451612903,1.49677419354839,1.49677419354839,1.47096774193548,1.4741935483871,1.50645161290323,1.52258064516129,1.51290322580645
1.63548387096774,1.63548387096774,1.71290322580645,1.77741935483871,1.76129032258065,1.75161290322581,1.79032258064516,1.8,1.72903225806452,1.65161290322581,1.58709677419355,1.49354838709677,1.37096774193548,1.28709677419355,1.26774193548387,1.26129032258065,1.25161290322581,1.26129032258065,1.28064516129032,1.2741935483871,1.25161290322581,1.26451612903226,1.28709677419355,1.29032258064516,1.29354838709677,1.28709677419355,1.26451612903226,1.26451612903226,1.2741935483871,1.25483870967742,1.24193548387097,1.26774193548387,1.27096774193548,1.22258064516129,1.21290322580645,1.25161290322581,1.25806451612903,1.22903225806452,1.23548387096774,1.29032258064516,1.32258064516129,1.30322580645161,1.30645161290323,1.36451612903226,1.39354838709677,1.35483870967742,1.32903225806452,1.35161290322581,1.35161290322581,1.31935483870968,1.31935483870968,1.35161290322581,1.36129032258065,1.3258064516129,1.29354838709677,1.30967741935484,1.33870967741935,1.31935483870968,1.27741935483871,1.30645161290323,1.37741935483871,1.4,1.39032258064516,1.4258064516129,1.47096774193548,1.45161290322581,1.38387096774194,1.32903225806452,1.33225806451613,1.38064516129032,1.40645161290323,1.38064516129032,1.34516129032258,1.29032258064516,1.22258064516129,1.38709677419355,1.98387096774194,2.62903225806452,2.56129032258065,1.70967741935484,0.945161290322581,0.9,1.20645161290323,1.30645161290323,1.2258064516129,1.22903225806452,1.32903225806452,1.4,1.40645161290323,1.39677419354839,1.43225806451613,1.5,1.5258064516129,1.5,1.49354838709677,1.5258064516129,1.55483870967742,1.56774193548387,1.6,1.64193548387097,1.64838709677419,1.65161290322581,1.70322580645161,1.75483870967742,1.75161290322581,1.73225806451613,1.75806451612903,1.75806451612903,1.65483870967742,1.52903225806452,1.46774193548387,1.42258064516129,1.32258064516129,1.23870967741935,1.23870967741935,1.25161290322581,1.2258064516129,1.2258064516129,1.26451612903226,1.26451612903226,1.2258064516129,1.24193548387097,1.30322580645161,1.30322580645161,1.25161290322581,1.23548387096774,1.24838709677419,1.2258064516129,1.19677419354839,1.21935483870968,1.25161290322581,1.23548387096774,1.2258064516129,1.23548387096774,1.21612903225806,1.17741935483871,1.19032258064516,1.2258064516129,1.24838709677419,1.28709677419355,1.3258064516129,1.32903225806452,1.33548387096774,1.3741935483871,1.3741935483871,1.30322580645161,1.26129032258065,1.3,1.33548387096774,1.31290322580645,1.27096774193548,1.28709677419355,1.34516129032258,1.35806451612903,1.29032258064516,1.23548387096774,1.26774193548387,1.33548387096774,1.37741935483871,1.39677419354839,1.40967741935484,1.40645161290323,1.41290322580645,1.43548387096774,1.43225806451613,1.38709677419355,1.35806451612903,1.37096774193548,1.38064516129032,1.35806451612903,1.33870967741935,1.33870967741935,1.29032258064516,1.26774193548387,1.58064516129032,2.28709677419355,2.73870967741935,2.25161290322581,1.25483870967742,0.8,1.05161290322581,1.30645161290323,1.26774193548387,1.24516129032258,1.35483870967742,1.40967741935484,1.40322580645161,1.44193548387097,1.49677419354839,1.51612903225806,1.53225806451613,1.56129032258065,1.56451612903226,1.56129032258065,1.59032258064516,1.62903225806452,1.63548387096774,1.63548387096774,1.66129032258065,1.69032258064516,1.70967741935484,1.74838709677419,1.79354838709677,1.80322580645161,1.79354838709677,1.79677419354839,1.76129032258065,1.64838709677419,1.51290322580645,1.42903225806452,1.36451612903226,1.3,1.26774193548387,1.26774193548387,1.26451612903226,1.25483870967742,1.25161290322581,1.25161290322581,1.25806451612903,1.2741935483871,1.2741935483871,1.25483870967742,1.23548387096774,1.22903225806452,1.23548387096774,1.23870967741935,1.23548387096774,1.23225806451613,1.23548387096774,1.22258064516129,1.20322580645161,1.21612903225806,1.23870967741935,1.23548387096774,1.2258064516129,1.25483870967742,1.28709677419355,1.28387096774194,1.28387096774194,1.31290322580645,1.3258064516129,1.30967741935484,1.30967741935484,1.33548387096774,1.34516129032258,1.32903225806452,1.30322580645161,1.29032258064516,1.29677419354839,1.29677419354839,1.28387096774194,1.28387096774194,1.31290322580645,1.34193548387097,1.35161290322581,1.35161290322581,1.37096774193548,1.39677419354839,1.39032258064516,1.33870967741935,1.28709677419355,1.28709677419355,1.32903225806452,1.34516129032258,1.32258064516129,1.32258064516129,1.33548387096774,1.27096774193548,1.22903225806452,1.5741935483871,2.30645161290323,2.68709677419355,2.12903225806452,1.18709677419355,0.8,1.01290322580645,1.20322580645161,1.20645161290323,1.24838709677419,1.33225806451613,1.32903225806452,1.30645161290323,1.37096774193548,1.45161290322581,1.45806451612903,1.43870967741935,1.46774193548387,1.5258064516129,1.55806451612903,1.5741935483871,1.6,1.61612903225806,1.62903225806452,1.65483870967742,1.69354838709677,1.7258064516129,1.75806451612903,1.78709677419355,1.80645161290323,1.80967741935484,1.8,1.73870967741935,1.62258064516129,1.50322580645161,1.41612903225806,1.33548387096774,1.25161290322581,1.20967741935484,1.21612903225806,1.23870967741935,1.25806451612903,1.26451612903226,1.24516129032258,1.22258064516129,1.23225806451613,1.26129032258065,1.2741935483871,1.28709677419355,1.30322580645161,1.27741935483871,1.22903225806452,1.24516129032258,1.30645161290323,1.3,1.21935483870968,1.1741935483871,1.19677419354839,1.2258064516129,1.22903225806452,1.2258064516129,1.23870967741935,1.26451612903226,1.28064516129032,1.27741935483871,1.28709677419355,1.31935483870968,1.34193548387097,1.33870967741935,1.34193548387097,1.37096774193548,1.38709677419355,1.36129032258065,1.32903225806452,1.35161290322581,1.40967741935484,1.42903225806452,1.4,1.38064516129032,1.39032258064516,1.38387096774194,1.32903225806452,1.25806451612903,1.24193548387097,1.28064516129032,1.29354838709677,1.26451612903226,1.2741935483871,1.31935483870968,1.28064516129032,1.22903225806452,1.52903225806452,2.23870967741935,2.68064516129032,2.21935483870968,1.29354838709677,0.864516129032258,1.0741935483871,1.29032258064516,1.26451612903226,1.28709677419355,1.4,1.41612903225806,1.37096774193548,1.38387096774194,1.42258064516129,1.41290322580645,1.40967741935484,1.43870967741935,1.44516129032258,1.43225806451613,1.48387096774194,1.58709677419355,1.62903225806452,1.60322580645161,1.63225806451613,1.73225806451613,1.80967741935484,1.81612903225806,1.81935483870968,1.85483870967742,1.88387096774194,1.87741935483871,1.81935483870968,1.70645161290323,1.55483870967742,1.42258064516129,1.33870967741935,1.28709677419355,1.23225806451613,1.18709677419355,1.1741935483871,1.19032258064516,1.18709677419355,1.16129032258065,1.14838709677419,1.18064516129032,1.22903225806452,1.25806451612903,1.26774193548387,1.26774193548387,1.27741935483871,1.31290322580645,1.34516129032258,1.33225806451613,1.3,1.29354838709677,1.3,1.28387096774194,1.25806451612903,1.24516129032258,1.25806451612903,1.27741935483871,1.27096774193548,1.23225806451613,1.21290322580645,1.22903225806452,1.25161290322581,1.25483870967742,1.26451612903226,1.26451612903226,1.25483870967742,1.28387096774194,1.36451612903226,1.41612903225806,1.41935483870968,1.41935483870968,1.43548387096774,1.44516129032258,1.45161290322581,1.44516129032258,1.40967741935484,1.38064516129032,1.35483870967742,1.3,1.23870967741935,1.22903225806452,1.26451612903226,1.27741935483871,1.21290322580645,1.10967741935484,1.26451612903226,1.89354838709677,2.58387096774194,2.50967741935484,1.63225806451613,0.880645161290323,0.867741935483871,1.18064516129032,1.29354838709677,1.29677419354839,1.39032258064516,1.48064516129032,1.46451612903226,1.41935483870968,1.41612903225806,1.45161290322581,1.48064516129032,1.47741935483871,1.45806451612903,1.46451612903226,1.49354838709677,1.51935483870968,1.55161290322581,1.5741935483871,1.57741935483871,1.60645161290323,1.66451612903226,1.71612903225806,1.74193548387097,1.77741935483871,1.8258064516129,1.87096774193548,1.87741935483871,1.82258064516129,1.70322580645161,1.5741935483871,1.44193548387097,1.31290322580645,1.24193548387097,1.2741935483871,1.30322580645161,1.23870967741935,1.1741935483871,1.18709677419355,1.2,1.16774193548387,1.15483870967742,1.18064516129032,1.18387096774194,1.18064516129032,1.21612903225806,1.24838709677419,1.21612903225806,1.18064516129032,1.21935483870968,1.28064516129032,1.29354838709677,1.29677419354839,1.30645161290323,1.29677419354839,1.28387096774194,1.30967741935484,1.33225806451613,1.31290322580645,1.29354838709677,1.28709677419355,1.25806451612903,1.22903225806452,1.25806451612903,1.31935483870968,1.30967741935484,1.24193548387097,1.2258064516129,1.3,1.36129032258065,1.33870967741935,1.31612903225806,1.35806451612903,1.41290322580645,1.41290322580645,1.35483870967742,1.29677419354839,1.3,1.33870967741935,1.33548387096774,1.30322580645161,1.33548387096774,1.38387096774194,1.29354838709677,1.21935483870968,1.59677419354839,2.35483870967742,2.68709677419355,2.0741935483871,1.13870967741935,0.77741935483871,0.996774193548387,1.19677419354839,1.20322580645161,1.25806451612903,1.37096774193548,1.3741935483871,1.33225806451613,1.38709677419355,1.47096774193548,1.48064516129032,1.4741935483871,1.51290322580645,1.55161290322581,1.55806451612903,1.57741935483871,1.59677419354839,1.60322580645161,1.60967741935484,1.63870967741935,1.68064516129032,1.7258064516129,1.76451612903226,1.78387096774194,1.79032258064516,1.80645161290323,1.8,1.7258064516129,1.59677419354839,1.48064516129032,1.40322580645161,1.34516129032258,1.29032258064516,1.25161290322581,1.23225806451613,1.22903225806452,1.23870967741935,1.25806451612903,1.26451612903226,1.26451612903226,1.28064516129032,1.31290322580645,1.31612903225806,1.27741935483871,1.25161290322581,1.25483870967742,1.24838709677419,1.23548387096774,1.24838709677419,1.26129032258065,1.23548387096774,1.2,1.20322580645161,1.24193548387097,1.26451612903226,1.25806451612903,1.25806451612903,1.28064516129032,1.29677419354839,1.30322580645161,1.31935483870968,1.34516129032258,1.35161290322581,1.35806451612903,1.39032258064516,1.41935483870968,1.42258064516129,1.41612903225806,1.40645161290323,1.40322580645161,1.39032258064516,1.36129032258065,1.32258064516129,1.27741935483871,1.24516129032258,1.23870967741935,1.26129032258065,1.28064516129032,1.28064516129032,1.24838709677419,1.16774193548387,1.19677419354839,1.62903225806452,2.32903225806452,2.58064516129032,1.96129032258065,1.10322580645161,0.858064516129032,1.14838709677419,1.34516129032258,1.31612903225806,1.31290322580645,1.37096774193548,1.39677419354839,1.41290322580645,1.43870967741935,1.41935483870968,1.39354838709677,1.4258064516129,1.45806451612903,1.43870967741935,1.42903225806452,1.47096774193548,1.52258064516129,1.54193548387097,1.5741935483871,1.63548387096774,1.68064516129032,1.71612903225806,1.7741935483871,1.8258064516129,1.81935483870968,1.78709677419355,1.79677419354839,1.78387096774194,1.6741935483871,1.52258064516129,1.40967741935484,1.33548387096774,1.26451612903226,1.21612903225806,1.21290322580645,1.20967741935484,1.17096774193548,1.12903225806452,1.11935483870968,1.15483870967742,1.19677419354839,1.2258064516129,1.24193548387097,1.24838709677419,1.25161290322581,1.26451612903226,1.28387096774194,1.29677419354839,1.30967741935484,1.32258064516129,1.32903225806452,1.33225806451613,1.33870967741935,1.33225806451613,1.30967741935484,1.29032258064516,1.3,1.31290322580645,1.29677419354839,1.27096774193548,1.25483870967742,1.25161290322581,1.27096774193548,1.31935483870968,1.35806451612903,1.34838709677419,1.32903225806452,1.35161290322581,1.38064516129032,1.37096774193548,1.33548387096774,1.32258064516129,1.32903225806452,1.3258064516129,1.33548387096774,1.37741935483871,1.38709677419355,1.29677419354839,1.20967741935484,1.40322580645161,1.97741935483871,2.47096774193548,2.23225806451613,1.40322580645161,0.825806451612903,0.893548387096774,1.15483870967742,1.21612903225806,1.21612903225806,1.30645161290323,1.37741935483871,1.3741935483871,1.37741935483871,1.41612903225806,1.46129032258065,1.48709677419355,1.5,1.51935483870968,1.55161290322581,1.56774193548387,1.56451612903226,1.58387096774194,1.63225806451613,1.66129032258065,1.67096774193548,1.70645161290323,1.74838709677419,1.76129032258065,1.76129032258065,1.75806451612903,1.74838709677419,1.70967741935484,1.62903225806452,1.50322580645161,1.38387096774194,1.31612903225806,1.29032258064516,1.27096774193548,1.25483870967742,1.24838709677419,1.25806451612903,1.27096774193548,1.26451612903226,1.24838709677419,1.26774193548387,1.30322580645161,1.30645161290323,1.28064516129032,1.2741935483871,1.28709677419355,1.28064516129032,1.26451612903226,1.26129032258065,1.26129032258065,1.24193548387097,1.22258064516129,1.2258064516129,1.23548387096774,1.23870967741935,1.23225806451613,1.25161290322581,1.30967741935484,1.33870967741935,1.30967741935484,1.29677419354839,1.35806451612903,1.42258064516129,1.42258064516129,1.39354838709677,1.39354838709677,1.42258064516129,1.42903225806452,1.4,1.34516129032258,1.3,1.28387096774194,1.28709677419355,1.2741935483871,1.24193548387097,1.22903225806452,1.21612903225806,1.13870967741935,1.1741935483871,1.64193548387097,2.34838709677419,2.52258064516129,1.84516129032258,1.04516129032258,0.870967741935484,1.14516129032258,1.30645161290323,1.29032258064516,1.33225806451613,1.41935483870968,1.43870967741935,1.42903225806452,1.44838709677419,1.4741935483871,1.46451612903226,1.45161290322581,1.45806451612903,1.46774193548387,1.45483870967742,1.44838709677419,1.4741935483871,1.5258064516129,1.55806451612903,1.59032258064516,1.65161290322581,1.70645161290323,1.73870967741935,1.78064516129032,1.83548387096774,1.85161290322581,1.81290322580645,1.74193548387097,1.64516129032258,1.53225806451613,1.42258064516129,1.33225806451613,1.28387096774194,1.27741935483871,1.26774193548387,1.24838709677419,1.2258064516129,1.21612903225806,1.20967741935484,1.18709677419355,1.16774193548387,1.17096774193548,1.18709677419355,1.1741935483871,1.15806451612903,1.19032258064516,1.25161290322581,1.28709677419355,1.29354838709677,1.29677419354839,1.30645161290323,1.30645161290323,1.3,1.29677419354839,1.31290322580645,1.32258064516129,1.31290322580645,1.30322580645161,1.31935483870968,1.34193548387097,1.33225806451613,1.31612903225806,1.31935483870968,1.31612903225806,1.30322580645161,1.31935483870968,1.33548387096774,1.31290322580645,1.30967741935484,1.36451612903226,1.38387096774194,1.31612903225806,1.26129032258065,1.29354838709677,1.34193548387097,1.33225806451613,1.31612903225806,1.33548387096774,1.31290322580645,1.2258064516129,1.31612903225806,1.84193548387097,2.5258064516129,2.60967741935484,1.86451612903226,1.04838709677419,0.87741935483871,1.13225806451613,1.24516129032258,1.20967741935484,1.26774193548387,1.36129032258065,1.34516129032258,1.30322580645161,1.35161290322581,1.43548387096774,1.45806451612903,1.43225806451613,1.44193548387097,1.49677419354839,1.53870967741935,1.55161290322581,1.57741935483871,1.61935483870968,1.64838709677419,1.6741935483871,1.72903225806452,1.7741935483871,1.78709677419355,1.78387096774194,1.79032258064516,1.79354838709677,1.76129032258065,1.6741935483871,1.54516129032258,1.42258064516129,1.33225806451613,1.26774193548387,1.21935483870968,1.19354838709677,1.19354838709677,1.20645161290323,1.22258064516129,1.23870967741935,1.24838709677419,1.26129032258065,1.28387096774194,1.29354838709677,1.28387096774194,1.27096774193548,1.2741935483871,1.28064516129032,1.29354838709677,1.29677419354839,1.26774193548387,1.24838709677419,1.27096774193548,1.29354838709677,1.26451612903226,1.22903225806452,1.21935483870968,1.20967741935484,1.20645161290323,1.2258064516129,1.24516129032258,1.25161290322581,1.28064516129032,1.33225806451613,1.34838709677419,1.33548387096774,1.34193548387097,1.36129032258065,1.36451612903226,1.35483870967742,1.35806451612903,1.38709677419355,1.42903225806452,1.43548387096774,1.39677419354839,1.38709677419355,1.42903225806452,1.41935483870968,1.31935483870968,1.23225806451613,1.21935483870968,1.23548387096774,1.25161290322581,1.27096774193548,1.28064516129032,1.24838709677419,1.18064516129032,1.26451612903226,1.74838709677419,2.47096774193548,2.70322580645161,2.05161290322581,1.18064516129032,0.92258064516129,1.17741935483871,1.33548387096774,1.29677419354839,1.32258064516129,1.41612903225806,1.43548387096774,1.39677419354839,1.39354838709677,1.41612903225806,1.42258064516129,1.40645161290323,1.4,1.42903225806452,1.47096774193548,1.48064516129032,1.4741935483871,1.52258064516129,1.61612903225806,1.68064516129032,1.7,1.73225806451613,1.79354838709677,1.84516129032258,1.87096774193548,1.86129032258065,1.81612903225806,1.75806451612903,1.67741935483871,1.56129032258065,1.42258064516129,1.32903225806452,1.28387096774194,1.23870967741935,1.2,1.18709677419355,1.17096774193548,1.13225806451613,1.13225806451613,1.18709677419355,1.20967741935484,1.1741935483871,1.18709677419355,1.2741935483871,1.32903225806452,1.29677419354839,1.26451612903226,1.29354838709677,1.33225806451613,1.33225806451613,1.30967741935484,1.30322580645161,1.30967741935484,1.30322580645161,1.30322580645161,1.31935483870968,1.31612903225806,1.27096774193548,1.23225806451613,1.23870967741935,1.25161290322581,1.24516129032258,1.25161290322581,1.26451612903226,1.26129032258065,1.25161290322581,1.27096774193548,1.30967741935484,1.34193548387097,1.34516129032258,1.34838709677419,1.38064516129032,1.43225806451613,1.45483870967742,1.45483870967742,1.45161290322581,1.45161290322581,1.43870967741935,1.42258064516129,1.39354838709677,1.35806451612903,1.31935483870968,1.29354838709677,1.2741935483871,1.26451612903226,1.27096774193548,1.24838709677419,1.14838709677419,1.13870967741935,1.54838709677419,2.29354838709677,2.67096774193548,2.17096774193548,1.29677419354839,0.916129032258065,1.11290322580645,1.33225806451613,1.34193548387097,1.34193548387097,1.4,1.42903225806452,1.43225806451613,1.46129032258065,1.4741935483871,1.46451612903226,1.47741935483871,1.5,1.48387096774194,1.44516129032258,1.43548387096774,1.47096774193548,1.52903225806452,1.56451612903226,1.5741935483871,1.59354838709677,1.65806451612903,1.73870967741935,1.79354838709677,1.8258064516129,1.85483870967742,1.85161290322581,1.78387096774194,1.69032258064516,1.60322580645161,1.49354838709677,1.37096774193548,1.29354838709677,1.28387096774194,1.27741935483871,1.23548387096774,1.19354838709677,1.18064516129032,1.18064516129032,1.16451612903226,1.15161290322581,1.15806451612903,1.18064516129032,1.20967741935484,1.22903225806452,1.23870967741935,1.24516129032258,1.24516129032258,1.24838709677419,1.27741935483871,1.30967741935484,1.30645161290323,1.28387096774194,1.29677419354839,1.33225806451613,1.33870967741935,1.32258064516129,1.31935483870968,1.31935483870968,1.30645161290323,1.28709677419355,1.26129032258065,1.24516129032258,1.24516129032258,1.23870967741935,1.21612903225806,1.22258064516129,1.26129032258065,1.29032258064516,1.28709677419355,1.27741935483871,1.28387096774194,1.30645161290323,1.33548387096774,1.36129032258065,1.40322580645161,1.44838709677419,1.45483870967742,1.44193548387097,1.45806451612903,1.47096774193548,1.42258064516129,1.34838709677419,1.30645161290323,1.29354838709677,1.28709677419355,1.29032258064516,1.3,1.2741935483871,1.18387096774194,1.16129032258065,1.50967741935484,2.19354838709677,2.58709677419355,2.15806451612903,1.29354838709677,0.848387096774194,1.01290322580645,1.27741935483871,1.33225806451613,1.33548387096774,1.41290322580645,1.46451612903226,1.44516129032258,1.43225806451613,1.44838709677419,1.46129032258065,1.46451612903226,1.48064516129032,1.5,1.5,1.5,1.52258064516129,1.54193548387097,1.54838709677419,1.5741935483871,1.61935483870968,1.65483870967742,1.69354838709677,1.74516129032258,1.78709677419355,1.81612903225806,1.83548387096774,1.81290322580645,1.71935483870968,1.59677419354839,1.48709677419355,1.4,1.32903225806452,1.29032258064516,1.28064516129032,1.28064516129032,1.26451612903226,1.22903225806452,1.20967741935484,1.21612903225806,1.22258064516129,1.21612903225806,1.20967741935484,1.20967741935484,1.21290322580645,1.21612903225806,1.21935483870968,1.23225806451613,1.24838709677419,1.27096774193548,1.30322580645161,1.3258064516129,1.32903225806452,1.32903225806452,1.34838709677419,1.36774193548387,1.36129032258065,1.35161290322581,1.35806451612903,1.36451612903226,1.37096774193548,1.37096774193548,1.34838709677419,1.31612903225806,1.31935483870968,1.34838709677419,1.34193548387097,1.31612903225806,1.3258064516129,1.36451612903226,1.36774193548387,1.34516129032258,1.35161290322581,1.4,1.45161290322581,1.48064516129032,1.49032258064516,1.49032258064516,1.50967741935484,1.55806451612903,1.58064516129032,1.54193548387097,1.48387096774194
1.21935483870968,1.2,1.19032258064516,1.20967741935484,1.22903225806452,1.22258064516129,1.22258064516129,1.25161290322581,1.28064516129032,1.28064516129032,1.29354838709677,1.33870967741935,1.36451612903226,1.34838709677419,1.33870967741935,1.33870967741935,1.31612903225806,1.29354838709677,1.31612903225806,1.34516129032258,1.33548387096774,1.30967741935484,1.29354838709677,1.28064516129032,1.26451612903226,1.25483870967742,1.25161290322581,1.24838709677419,1.25483870967742,1.28387096774194,1.32258064516129,1.33548387096774,1.33225806451613,1.35161290322581,1.39677419354839,1.44193548387097,1.45161290322581,1.44516129032258,1.44838709677419,1.4741935483871,1.48709677419355,1.45806451612903,1.40322580645161,1.36451612903226,1.35161290322581,1.34193548387097,1.32258064516129,1.31290322580645,1.29677419354839,1.2258064516129,1.16451612903226,1.3741935483871,1.99677419354839,2.57741935483871,2.39354838709677,1.5258064516129,0.870967741935484,0.932258064516129,1.25161290322581,1.33870967741935,1.31290322580645,1.38387096774194,1.47096774193548,1.48064516129032,1.48064516129032,1.50967741935484,1.52258064516129,1.49677419354839,1.48064516129032,1.48709677419355,1.49032258064516,1.49677419354839,1.52258064516129,1.54516129032258,1.55483870967742,1.59677419354839,1.66451612903226,1.7,1.70322580645161,1.72903225806452,1.77741935483871,1.80322580645161,1.80645161290323,1.79354838709677,1.73548387096774,1.61935483870968,1.49677419354839,1.43548387096774,1.39677419354839,1.32903225806452,1.26451612903226,1.26129032258065,1.28064516129032,1.25483870967742,1.20967741935484,1.19354838709677,1.18387096774194,1.18387096774194,1.21290322580645,1.24193548387097,1.23225806451613,1.20322580645161,1.19677419354839,1.20967741935484,1.2258064516129,1.23870967741935,1.25806451612903,1.27741935483871,1.29032258064516,1.3,1.31290322580645,1.32903225806452,1.33225806451613,1.3258064516129,1.32903225806452,1.33548387096774,1.32903225806452,1.30967741935484,1.29354838709677,1.28387096774194,1.28064516129032,1.28064516129032,1.26774193548387,1.25161290322581,1.25483870967742,1.28387096774194,1.30322580645161,1.29354838709677,1.30322580645161,1.34838709677419,1.38709677419355,1.38709677419355,1.39677419354839,1.43548387096774,1.44193548387097,1.39354838709677,1.36451612903226,1.38709677419355,1.40645161290323,1.38709677419355,1.36451612903226,1.35161290322581,1.29677419354839,1.20645161290323,1.26451612903226,1.69354838709677,2.30967741935484,2.45161290322581,1.81290322580645,1.0258064516129,0.82258064516129,1.08387096774194,1.25483870967742,1.24193548387097,1.28064516129032,1.37741935483871,1.41935483870968,1.42258064516129,1.44516129032258,1.47741935483871,1.49677419354839,1.50967741935484,1.5258064516129,1.54193548387097,1.55806451612903,1.56774193548387,1.56774193548387,1.57741935483871,1.59354838709677,1.63225806451613,1.6741935483871,1.68709677419355,1.67741935483871,1.70645161290323,1.76774193548387,1.79032258064516,1.74838709677419,1.6741935483871,1.58709677419355,1.49677419354839,1.42258064516129,1.36451612903226,1.31935483870968,1.28387096774194,1.25161290322581,1.24193548387097,1.26774193548387,1.30322580645161,1.30645161290323,1.28387096774194,1.27096774193548,1.2741935483871,1.28064516129032,1.2741935483871,1.25161290322581,1.23548387096774,1.23548387096774,1.22903225806452,1.20645161290323,1.2,1.21935483870968,1.23870967741935,1.24516129032258,1.25483870967742,1.26774193548387,1.28064516129032,1.30322580645161,1.31612903225806,1.30967741935484,1.31935483870968,1.34838709677419,1.34516129032258,1.32258064516129,1.33548387096774,1.36451612903226,1.35161290322581,1.31935483870968,1.30645161290323,1.30645161290323,1.30967741935484,1.31290322580645,1.3,1.29354838709677,1.31935483870968,1.34838709677419,1.35161290322581,1.35161290322581,1.36774193548387,1.37741935483871,1.36451612903226,1.34838709677419,1.33548387096774,1.34193548387097,1.36129032258065,1.36451612903226,1.35806451612903,1.36129032258065,1.31612903225806,1.24193548387097,1.43225806451613,2.04516129032258,2.5741935483871,2.29677419354839,1.41612903225806,0.861290322580645,0.97741935483871,1.20967741935484,1.21935483870968,1.2258064516129,1.3258064516129,1.36451612903226,1.34193548387097,1.38387096774194,1.44516129032258,1.44838709677419,1.44838709677419,1.5,1.54516129032258,1.55483870967742,1.55483870967742,1.56129032258065,1.5741935483871,1.60322580645161,1.65161290322581,1.69354838709677,1.71935483870968,1.74193548387097,1.76774193548387,1.77741935483871,1.77096774193548,1.74516129032258,1.69677419354839,1.60967741935484,1.50645161290323,1.41612903225806,1.33548387096774,1.2741935483871,1.25161290322581,1.25161290322581,1.25161290322581,1.24838709677419,1.24193548387097,1.24838709677419,1.27096774193548,1.29677419354839,1.29677419354839,1.29032258064516,1.3,1.30322580645161,1.30645161290323,1.31612903225806,1.31290322580645,1.28387096774194,1.25483870967742,1.25483870967742,1.24838709677419,1.2258064516129,1.21612903225806,1.24193548387097,1.26129032258065,1.25161290322581,1.24516129032258,1.27741935483871,1.30645161290323,1.29032258064516,1.28064516129032,1.31935483870968,1.36129032258065,1.36451612903226,1.34838709677419,1.35161290322581,1.37096774193548,1.37741935483871,1.36774193548387,1.35483870967742,1.35161290322581,1.35806451612903,1.36451612903226,1.36129032258065,1.35806451612903,1.36774193548387,1.38387096774194,1.38387096774194,1.35806451612903,1.31290322580645,1.28064516129032,1.27741935483871,1.29032258064516,1.29677419354839,1.30645161290323,1.33225806451613,1.31290322580645,1.24838709677419,1.39354838709677,1.94193548387097,2.54838709677419,2.49677419354839,1.70645161290323,0.990322580645161,0.938709677419355,1.22258064516129,1.3258064516129,1.29032258064516,1.31935483870968,1.36129032258065,1.35161290322581,1.36129032258065,1.39354838709677,1.39032258064516,1.38387096774194,1.4258064516129,1.47741935483871,1.48064516129032,1.48064516129032,1.5258064516129,1.59032258064516,1.62258064516129,1.63548387096774,1.67096774193548,1.72258064516129,1.75806451612903,1.78387096774194,1.81935483870968,1.8258064516129,1.79032258064516,1.73225806451613,1.67741935483871,1.59354838709677,1.47096774193548,1.34516129032258,1.25483870967742,1.2258064516129,1.21935483870968,1.20322580645161,1.19032258064516,1.20645161290323,1.21290322580645,1.20322580645161,1.22258064516129,1.27741935483871,1.30967741935484,1.30645161290323,1.30322580645161,1.31612903225806,1.32903225806452,1.32258064516129,1.30322580645161,1.29354838709677,1.3,1.30967741935484,1.30322580645161,1.26451612903226,1.21612903225806,1.21612903225806,1.26774193548387,1.29032258064516,1.25483870967742,1.22258064516129,1.2258064516129,1.25161290322581,1.27096774193548,1.28387096774194,1.28387096774194,1.28709677419355,1.30322580645161,1.34193548387097,1.37741935483871,1.39354838709677,1.38709677419355,1.38064516129032,1.3741935483871,1.37096774193548,1.3741935483871,1.38709677419355,1.39677419354839,1.39032258064516,1.38709677419355,1.38709677419355,1.38709677419355,1.39032258064516,1.36774193548387,1.29677419354839,1.23548387096774,1.24838709677419,1.28387096774194,1.28709677419355,1.29677419354839,1.30322580645161,1.24193548387097,1.27741935483871,1.72258064516129,2.43225806451613,2.63870967741935,1.96774193548387,1.12258064516129,0.912903225806452,1.19032258064516,1.35806451612903,1.33870967741935,1.35806451612903,1.38709677419355,1.34516129032258,1.34193548387097,1.40645161290323,1.41935483870968,1.38387096774194,1.39354838709677,1.43225806451613,1.45161290322581,1.47096774193548,1.50645161290323,1.53870967741935,1.57096774193548,1.61290322580645,1.65806451612903,1.70645161290323,1.75483870967742,1.79032258064516,1.80967741935484,1.82258064516129,1.8258064516129,1.79354838709677,1.72903225806452,1.65161290322581,1.54516129032258,1.41612903225806,1.30322580645161,1.24838709677419,1.23225806451613,1.2,1.15806451612903,1.15806451612903,1.20322580645161,1.22258064516129,1.20645161290323,1.20967741935484,1.24516129032258,1.26774193548387,1.27741935483871,1.29354838709677,1.30967741935484,1.31612903225806,1.32903225806452,1.34838709677419,1.33870967741935,1.30645161290323,1.29677419354839,1.3,1.3,1.29032258064516,1.27741935483871,1.24838709677419,1.22903225806452,1.23548387096774,1.23870967741935,1.23225806451613,1.23870967741935,1.25483870967742,1.26129032258065,1.26774193548387,1.29032258064516,1.31612903225806,1.33225806451613,1.33870967741935,1.34516129032258,1.36129032258065,1.38709677419355,1.39354838709677,1.38387096774194,1.39354838709677,1.41935483870968,1.4258064516129,1.41935483870968,1.41612903225806,1.40967741935484,1.40322580645161,1.39677419354839,1.35483870967742,1.27741935483871,1.23548387096774,1.25483870967742,1.28709677419355,1.29677419354839,1.29354838709677,1.25806451612903,1.19354838709677,1.26774193548387,1.71290322580645,2.37741935483871,2.60967741935484,2.01935483870968,1.16774193548387,0.903225806451613,1.19032258064516,1.38709677419355,1.34193548387097,1.34838709677419,1.43548387096774,1.4258064516129,1.35161290322581,1.35483870967742,1.40645161290323,1.42903225806452,1.40645161290323,1.4,1.42903225806452,1.47741935483871,1.5258064516129,1.56451612903226,1.5741935483871,1.56451612903226,1.6,1.68709677419355,1.75806451612903,1.78387096774194,1.81612903225806,1.85483870967742,1.87096774193548,1.85161290322581,1.79677419354839,1.68709677419355,1.56129032258065,1.44838709677419,1.35483870967742,1.26774193548387,1.21935483870968,1.21290322580645,1.20645161290323,1.18709677419355,1.17741935483871,1.17741935483871,1.18387096774194,1.20645161290323,1.23548387096774,1.24838709677419,1.24193548387097,1.25161290322581,1.29032258064516,1.32258064516129,1.32258064516129,1.31935483870968,1.33870967741935,1.33870967741935,1.30967741935484,1.28709677419355,1.29354838709677,1.28387096774194,1.25483870967742,1.24193548387097,1.25483870967742,1.25806451612903,1.24516129032258,1.23225806451613,1.22903225806452,1.23548387096774,1.23548387096774,1.24516129032258,1.27741935483871,1.29677419354839,1.28709677419355,1.29354838709677,1.32903225806452,1.35806451612903,1.35806451612903,1.3741935483871,1.41290322580645,1.44193548387097,1.44838709677419,1.44193548387097,1.43548387096774,1.42903225806452,1.4258064516129,1.39677419354839,1.3258064516129,1.26129032258065,1.23870967741935,1.25806451612903,1.28064516129032,1.28709677419355,1.25806451612903,1.18709677419355,1.16774193548387,1.43870967741935,2.06774193548387,2.56129032258065,2.2741935483871,1.40645161290323,0.880645161290323,1.04838709677419,1.35483870967742,1.39354838709677,1.35483870967742,1.41612903225806,1.46129032258065,1.43548387096774,1.41290322580645,1.41935483870968,1.43548387096774,1.45483870967742,1.45483870967742,1.44838709677419,1.46129032258065,1.49354838709677,1.51935483870968,1.53548387096774,1.56129032258065,1.58064516129032,1.59032258064516,1.63870967741935,1.74193548387097,1.83870967741935,1.84838709677419,1.81935483870968,1.83225806451613,1.84193548387097,1.76774193548387,1.63870967741935,1.52258064516129,1.42258064516129,1.3258064516129,1.24193548387097,1.2,1.2258064516129,1.26451612903226,1.2258064516129,1.14838709677419,1.16129032258065,1.23548387096774,1.24193548387097,1.18387096774194,1.17096774193548,1.2,1.21612903225806,1.24193548387097,1.29677419354839,1.32903225806452,1.31612903225806,1.30645161290323,1.31612903225806,1.32903225806452,1.32903225806452,1.30967741935484,1.29354838709677,1.3,1.30645161290323,1.28387096774194,1.26451612903226,1.27741935483871,1.28709677419355,1.26451612903226,1.23870967741935,1.24516129032258,1.26451612903226,1.25161290322581,1.22258064516129,1.21935483870968,1.26129032258065,1.30645161290323,1.33225806451613,1.36451612903226,1.4,1.42903225806452,1.45483870967742,1.46774193548387,1.45161290322581,1.44193548387097,1.45806451612903,1.45161290322581,1.38709677419355,1.31935483870968,1.32258064516129,1.34193548387097,1.31935483870968,1.28064516129032,1.2741935483871,1.24516129032258,1.16129032258065,1.24193548387097,1.73870967741935,2.42258064516129,2.53870967741935,1.80967741935484,0.996774193548387,0.874193548387097,1.22903225806452,1.40967741935484,1.35161290322581,1.36451612903226,1.45483870967742,1.47096774193548,1.44193548387097,1.45483870967742,1.48387096774194,1.48387096774194,1.47741935483871,1.47741935483871,1.48064516129032,1.49032258064516,1.51290322580645,1.51935483870968,1.51290322580645,1.53548387096774,1.59354838709677,1.64193548387097,1.66129032258065,1.69677419354839,1.76774193548387,1.82903225806452,1.83225806451613,1.79354838709677,1.74193548387097,1.66129032258065,1.54516129032258,1.42258064516129,1.35483870967742,1.33225806451613,1.29677419354839,1.23870967741935,1.21935483870968,1.24516129032258,1.24838709677419,1.19677419354839,1.15161290322581,1.16774193548387,1.18709677419355,1.17096774193548,1.16451612903226,1.19354838709677,1.2258064516129,1.23870967741935,1.24193548387097,1.26129032258065,1.28064516129032,1.2741935483871,1.25806451612903,1.2741935483871,1.31935483870968,1.33870967741935,1.3258064516129,1.30322580645161,1.30645161290323,1.33548387096774,1.33870967741935,1.29354838709677,1.26451612903226,1.28064516129032,1.28709677419355,1.26451612903226,1.24838709677419,1.25806451612903,1.27096774193548,1.26774193548387,1.28709677419355,1.33870967741935,1.38709677419355,1.38709677419355,1.38387096774194,1.41612903225806,1.44193548387097,1.40322580645161,1.34516129032258,1.33870967741935,1.36129032258065,1.36129032258065,1.35483870967742,1.37096774193548,1.33548387096774,1.22258064516129,1.22258064516129,1.64193548387097,2.34516129032258,2.62258064516129,2.00645161290323,1.1,0.8,1.08387096774194,1.29677419354839,1.27741935483871,1.28387096774194,1.34516129032258,1.34838709677419,1.36451612903226,1.43548387096774,1.47741935483871,1.4741935483871,1.49677419354839,1.53548387096774,1.55483870967742,1.56129032258065,1.58064516129032,1.60322580645161,1.60967741935484,1.60645161290323,1.62258064516129,1.67096774193548,1.72903225806452,1.74838709677419,1.74838709677419,1.76451612903226,1.78064516129032,1.74838709677419,1.6741935483871,1.58709677419355,1.5,1.40967741935484,1.3258064516129,1.27741935483871,1.26774193548387,1.25806451612903,1.25483870967742,1.2741935483871,1.28387096774194,1.26774193548387,1.26129032258065,1.26774193548387,1.26774193548387,1.26774193548387,1.28064516129032,1.28064516129032,1.24838709677419,1.22258064516129,1.23225806451613,1.23870967741935,1.2258064516129,1.19677419354839,1.18064516129032,1.21612903225806,1.26129032258065,1.26774193548387,1.24838709677419,1.25806451612903,1.29032258064516,1.29677419354839,1.28387096774194,1.29677419354839,1.3258064516129,1.33548387096774,1.32258064516129,1.32258064516129,1.32258064516129,1.31935483870968,1.34516129032258,1.39032258064516,1.4,1.3741935483871,1.36129032258065,1.38064516129032,1.39354838709677,1.37096774193548,1.31612903225806,1.25806451612903,1.24193548387097,1.26129032258065,1.28387096774194,1.3,1.31612903225806,1.31935483870968,1.25806451612903,1.21935483870968,1.49677419354839,2.16451612903226,2.63870967741935,2.28387096774194,1.41612903225806,0.929032258064516,1.05161290322581,1.2741935483871,1.31612903225806,1.31935483870968,1.34838709677419,1.33548387096774,1.32258064516129,1.35483870967742,1.38387096774194,1.39354838709677,1.40322580645161,1.42258064516129,1.44838709677419,1.48387096774194,1.51935483870968,1.56129032258065,1.60645161290323,1.63548387096774,1.64516129032258,1.67741935483871,1.75161290322581,1.82258064516129,1.85161290322581,1.83548387096774,1.81290322580645,1.81290322580645,1.79677419354839,1.69032258064516,1.52903225806452,1.39354838709677,1.32258064516129,1.2741935483871,1.20967741935484,1.16451612903226,1.16129032258065,1.1741935483871,1.18387096774194,1.19032258064516,1.2,1.20967741935484,1.22258064516129,1.25161290322581,1.28709677419355,1.31290322580645,1.32258064516129,1.32258064516129,1.31935483870968,1.31612903225806,1.30645161290323,1.28387096774194,1.26129032258065,1.25161290322581,1.24516129032258,1.23548387096774,1.24193548387097,1.26451612903226,1.24838709677419,1.2,1.18387096774194,1.21935483870968,1.25483870967742,1.24838709677419,1.24516129032258,1.27741935483871,1.31612903225806,1.34193548387097,1.35483870967742,1.36129032258065,1.37096774193548,1.4,1.44838709677419,1.47096774193548,1.45806451612903,1.43548387096774,1.40967741935484,1.37096774193548,1.32903225806452,1.30967741935484,1.28064516129032,1.23870967741935,1.23225806451613,1.26774193548387,1.24838709677419,1.14516129032258,1.17741935483871,1.64516129032258,2.36129032258065,2.59354838709677,1.93870967741935,1.0741935483871,0.861290322580645,1.18387096774194,1.39677419354839,1.3741935483871,1.38064516129032,1.43870967741935,1.44193548387097,1.43548387096774,1.45483870967742,1.45161290322581,1.43870967741935,1.46451612903226,1.50322580645161,1.49354838709677,1.46451612903226,1.48387096774194,1.53548387096774,1.56451612903226,1.57741935483871,1.60645161290323,1.65806451612903,1.71290322580645,1.76451612903226,1.81290322580645,1.85483870967742,1.88387096774194,1.85806451612903,1.7741935483871,1.67741935483871,1.59032258064516,1.4741935483871,1.36129032258065,1.3,1.28064516129032,1.25806451612903,1.23548387096774,1.20967741935484,1.18387096774194,1.1741935483871,1.18709677419355,1.19354838709677,1.18709677419355,1.2,1.22258064516129,1.21612903225806,1.20645161290323,1.23548387096774,1.28064516129032,1.29354838709677,1.28387096774194,1.28064516129032,1.29354838709677,1.30645161290323,1.31935483870968,1.33225806451613,1.33548387096774,1.32258064516129,1.30322580645161,1.29677419354839,1.3,1.29354838709677,1.26774193548387,1.24516129032258,1.24516129032258,1.25806451612903,1.27096774193548,1.2741935483871,1.2741935483871,1.30322580645161,1.36129032258065,1.38387096774194,1.36774193548387,1.38709677419355,1.43870967741935,1.42903225806452,1.34516129032258,1.3,1.33548387096774,1.37096774193548,1.35161290322581,1.33870967741935,1.35806451612903,1.31612903225806,1.20645161290323,1.30645161290323,1.8741935483871,2.53548387096774,2.45806451612903,1.55483870967742,0.758064516129032,0.754838709677419,1.13225806451613,1.28064516129032,1.24193548387097,1.28387096774194,1.37741935483871,1.40645161290323,1.41612903225806,1.44516129032258,1.4741935483871,1.49677419354839,1.5258064516129,1.54838709677419,1.56774193548387,1.59032258064516,1.60322580645161,1.6,1.60645161290323,1.64838709677419,1.70322580645161,1.72903225806452,1.73870967741935,1.7741935483871,1.82258064516129,1.81612903225806,1.75483870967742,1.71612903225806,1.68387096774194,1.58064516129032,1.43548387096774,1.34193548387097,1.30645161290323,1.2741935483871,1.25806451612903,1.26129032258065,1.25483870967742,1.24193548387097,1.23225806451613,1.24516129032258,1.28064516129032,1.3,1.27096774193548,1.24193548387097,1.26451612903226,1.2741935483871,1.23870967741935,1.20645161290323,1.20645161290323,1.22258064516129,1.23225806451613,1.22903225806452,1.20322580645161,1.2,1.23548387096774,1.26129032258065,1.24838709677419,1.24516129032258,1.27741935483871,1.30645161290323,1.31290322580645,1.3258064516129,1.34838709677419,1.35161290322581,1.33225806451613,1.3258064516129,1.35161290322581,1.38387096774194,1.39677419354839,1.38387096774194,1.35806451612903,1.34516129032258,1.35161290322581,1.33548387096774,1.28064516129032,1.24193548387097,1.24516129032258,1.23870967741935,1.21935483870968,1.24193548387097,1.3,1.27741935483871,1.15806451612903,1.22258064516129,1.76774193548387,2.47741935483871,2.53870967741935,1.74838709677419,0.945161290322581,0.841935483870968,1.15806451612903,1.31290322580645,1.28064516129032,1.29032258064516,1.34516129032258,1.36451612903226,1.37741935483871,1.40322580645161,1.40967741935484,1.41612903225806,1.43548387096774,1.44193548387097,1.44193548387097,1.45806451612903,1.49677419354839,1.54193548387097,1.57741935483871,1.61612903225806,1.66451612903226,1.73225806451613,1.79677419354839,1.85161290322581,1.89032258064516,1.89677419354839,1.88064516129032,1.85483870967742,1.78387096774194,1.63225806451613,1.45806451612903,1.35806451612903,1.30967741935484,1.24838709677419,1.19677419354839,1.19354838709677,1.18387096774194,1.15806451612903,1.16774193548387,1.21290322580645,1.20645161290323,1.1741935483871,1.19677419354839,1.26774193548387,1.30322580645161,1.3,1.30967741935484,1.34193548387097,1.35806451612903,1.35483870967742,1.34838709677419,1.35483870967742,1.36451612903226,1.34193548387097,1.30645161290323,1.30322580645161,1.31612903225806,1.31612903225806,1.30322580645161,1.30322580645161,1.3,1.29032258064516,1.29354838709677,1.31290322580645,1.33225806451613,1.36129032258065,1.40322580645161,1.43225806451613,1.45161290322581,1.48387096774194,1.5258064516129,1.54838709677419,1.53548387096774,1.49032258064516,1.44516129032258,1.44193548387097,1.4741935483871,1.48709677419355
