1.38387096774194,1.38064516129032,1.38064516129032,1.3741935483871,1.38387096774194,1.38387096774194,1.38387096774194,1.38387096774194,1.37741935483871,1.38064516129032,1.38064516129032,1.38387096774194,1.38387096774194,1.38387096774194,1.38709677419355,1.38387096774194,1.38709677419355,1.38387096774194,1.38387096774194,1.38709677419355,1.38387096774194,1.38709677419355,1.38387096774194,1.38387096774194,1.39032258064516,1.38387096774194,1.38709677419355,1.38387096774194,1.38387096774194,1.38709677419355,1.39354838709677,1.38387096774194,1.39354838709677,1.38387096774194,1.38387096774194,1.38064516129032,1.38387096774194,1.38709677419355,1.38387096774194,1.39032258064516,1.38387096774194,1.38387096774194,1.38387096774194,1.38387096774194,1.38387096774194,1.39032258064516,1.38387096774194,1.39032258064516,1.39032258064516,1.38387096774194,1.38387096774194,1.39032258064516,1.39032258064516,1.38387096774194,1.39032258064516,1.39032258064516,1.39032258064516,1.38387096774194,1.39032258064516,1.39032258064516,1.38387096774194,1.38387096774194,1.38387096774194,1.39032258064516,1.38387096774194,1.38387096774194,1.38387096774194,1.38387096774194,1.38387096774194,1.39354838709677,1.39032258064516,1.38064516129032,1.39032258064516,1.39677419354839,1.41612903225806,1.42903225806452,1.44193548387097,1.44838709677419,1.43870967741935,1.45161290322581,1.45806451612903,1.43548387096774,1.41612903225806,1.39354838709677,1.38064516129032,1.39032258064516,1.38387096774194,1.38387096774194,1.38387096774194,1.40645161290323,1.51612903225806,1.70645161290323,1.85483870967742,1.63225806451613,1.43225806451613,1.37741935483871,1.38387096774194,1.37741935483871,1.38064516129032,1.3741935483871,1.3741935483871,1.3741935483871,1.37096774193548,1.3741935483871,1.37096774193548,1.36774193548387,1.36774193548387,1.3741935483871,1.37741935483871,1.37741935483871,1.38064516129032,1.37741935483871,1.37741935483871,1.38064516129032,1.38387096774194,1.38709677419355,1.38387096774194,1.4,1.40645161290323,1.40645161290323,1.41612903225806,1.43548387096774,1.44838709677419,1.44838709677419,1.45483870967742,1.46129032258065,1.47096774193548,1.45806451612903,1.45161290322581,1.43870967741935,1.42258064516129,1.41290322580645,1.40645161290323,1.39677419354839,1.39032258064516,1.38709677419355,1.38387096774194,1.38387096774194,1.38064516129032,1.38064516129032,1.38709677419355,1.38387096774194,1.3741935483871,1.38387096774194,1.37741935483871,1.37741935483871,1.37741935483871,1.38387096774194,1.39032258064516,1.39032258064516,1.38387096774194,1.38387096774194,1.39032258064516,1.38709677419355,1.38064516129032,1.38709677419355,1.39032258064516,1.39032258064516,1.38709677419355,1.38064516129032,1.38709677419355,1.39032258064516,1.38064516129032,1.38387096774194,1.39032258064516,1.38064516129032,1.38064516129032,1.38064516129032,1.39032258064516,1.39032258064516,1.38064516129032,1.38064516129032,1.38387096774194,1.38064516129032,1.38387096774194,1.38709677419355,1.38709677419355,1.38387096774194,1.38709677419355,1.38709677419355,1.38064516129032,1.38709677419355,1.38709677419355,1.38709677419355,1.38387096774194,1.37741935483871,1.38387096774194,1.38387096774194,1.38064516129032,1.38387096774194,1.38709677419355,1.38709677419355,1.39354838709677,1.38064516129032,1.38709677419355,1.38709677419355,1.38709677419355,1.38709677419355,1.38387096774194,1.39032258064516,1.38387096774194,1.38709677419355,1.38709677419355,1.38709677419355,1.37741935483871,1.38387096774194,1.39032258064516,1.39354838709677,1.41612903225806,1.42258064516129,1.44516129032258,1.43870967741935,1.43870967741935,1.44516129032258,1.43870967741935,1.41290322580645,1.39354838709677,1.38064516129032,1.37741935483871,1.39032258064516,1.38387096774194,1.37741935483871,1.37741935483871,1.42258064516129,1.53225806451613,1.68709677419355,1.78064516129032,1.53225806451613,1.39354838709677,1.37741935483871,1.38387096774194,1.38387096774194,1.37741935483871,1.3741935483871,1.36451612903226,1.37741935483871,1.36774193548387,1.36451612903226,1.36774193548387,1.36774193548387,1.37741935483871,1.37741935483871,1.37741935483871,1.38064516129032,1.38064516129032,1.38064516129032,1.38709677419355,1.38709677419355,1.38387096774194,1.39032258064516,1.40322580645161,1.40322580645161,1.40967741935484,1.41935483870968,1.42903225806452,1.44193548387097,1.45161290322581,1.46129032258065,1.46451612903226,1.46451612903226,1.46451612903226,1.45806451612903,1.45161290322581,1.43870967741935,1.42258064516129,1.41290322580645,1.4,1.39032258064516,1.38064516129032,1.37741935483871,1.38064516129032,1.38064516129032,1.38064516129032,1.3741935483871,1.38387096774194,1.37741935483871,1.38064516129032,1.38064516129032,1.38064516129032,1.38064516129032,1.38387096774194,1.38064516129032,1.38709677419355,1.38709677419355,1.38709677419355,1.38709677419355,1.38709677419355,1.38709677419355,1.38709677419355,1.38064516129032,1.38387096774194,1.38387096774194,1.38387096774194,1.38709677419355,1.38064516129032,1.38387096774194,1.38387096774194,1.38387096774194,1.38064516129032,1.38064516129032,1.38064516129032,1.38064516129032,1.38064516129032,1.38387096774194,1.38387096774194,1.38387096774194,1.38387096774194,1.38709677419355,1.38709677419355,1.38709677419355,1.38709677419355,1.38709677419355,1.39032258064516,1.38387096774194,1.38709677419355,1.38709677419355,1.38387096774194,1.38387096774194,1.38709677419355,1.38709677419355,1.38709677419355,1.38709677419355,1.39032258064516,1.38387096774194,1.38709677419355,1.39032258064516,1.38709677419355,1.38709677419355,1.38709677419355,1.38709677419355,1.38709677419355,1.38709677419355,1.39032258064516,1.39032258064516,1.39032258064516,1.38709677419355,1.38387096774194,1.39677419354839,1.40967741935484,1.4258064516129,1.43870967741935,1.44193548387097,1.43870967741935,1.45161290322581,1.45161290322581,1.4258064516129,1.40967741935484,1.38709677419355,1.38064516129032,1.38387096774194,1.38064516129032,1.38387096774194,1.38064516129032,1.41612903225806,1.52903225806452,1.71935483870968,1.86129032258065,1.59354838709677,1.40967741935484,1.38064516129032,1.38064516129032,1.38064516129032,1.3741935483871,1.36774193548387,1.36774193548387,1.36774193548387,1.37096774193548,1.36451612903226,1.37096774193548,1.36774193548387,1.36774193548387,1.37096774193548,1.37096774193548,1.37096774193548,1.37741935483871,1.37096774193548,1.38064516129032,1.38387096774194,1.38064516129032,1.38709677419355,1.38709677419355,1.39032258064516,1.40322580645161,1.40967741935484,1.42258064516129,1.4258064516129,1.44193548387097,1.45483870967742,1.45483870967742,1.45806451612903,1.46451612903226,1.45483870967742,1.45161290322581,1.43548387096774,1.4258064516129,1.40967741935484,1.40322580645161,1.39032258064516,1.38709677419355,1.38709677419355,1.38064516129032,1.38064516129032,1.38064516129032,1.38064516129032,1.38387096774194,1.38064516129032,1.38064516129032,1.38064516129032,1.38064516129032,1.38064516129032,1.38387096774194,1.38387096774194,1.38064516129032,1.38064516129032,1.38064516129032,1.38387096774194,1.38387096774194,1.38064516129032,1.39032258064516,1.38387096774194,1.38064516129032,1.38387096774194,1.38064516129032,1.38387096774194,1.38064516129032,1.38387096774194,1.39032258064516,1.39032258064516,1.38064516129032,1.39032258064516,1.38709677419355,1.38709677419355,1.38709677419355,1.38064516129032,1.38709677419355,1.39032258064516,1.38064516129032,1.38064516129032,1.38064516129032,1.38064516129032,1.38064516129032,1.38709677419355,1.38709677419355,1.38064516129032,1.39032258064516,1.38709677419355,1.38709677419355,1.38064516129032,1.38064516129032,1.38709677419355,1.38387096774194,1.38387096774194,1.38709677419355,1.38709677419355,1.39032258064516,1.38387096774194,1.39032258064516,1.39032258064516,1.38709677419355,1.38709677419355,1.38709677419355,1.38387096774194,1.38709677419355,1.39032258064516,1.38709677419355,1.38387096774194,1.38709677419355,1.38709677419355,1.38387096774194,1.38709677419355,1.38709677419355,1.38387096774194,1.38709677419355,1.39677419354839,1.41290322580645,1.43225806451613,1.44193548387097,1.44193548387097,1.43870967741935,1.45483870967742,1.45161290322581,1.41935483870968,1.4,1.38709677419355,1.38387096774194,1.39032258064516,1.38709677419355,1.37741935483871,1.38709677419355,1.43225806451613,1.57096774193548,1.73548387096774,1.87741935483871,1.55806451612903,1.40645161290323,1.3741935483871,1.38709677419355,1.38064516129032,1.3741935483871,1.36774193548387,1.36774193548387,1.37096774193548,1.36774193548387,1.3741935483871,1.36774193548387,1.37096774193548,1.37096774193548,1.37096774193548,1.36774193548387,1.3741935483871,1.3741935483871,1.37741935483871,1.38064516129032,1.3741935483871,1.38064516129032,1.39032258064516,1.39032258064516,1.39677419354839,1.41290322580645,1.41935483870968,1.42258064516129,1.43548387096774,1.44838709677419,1.45806451612903,1.46129032258065,1.46451612903226,1.46451612903226,1.46129032258065,1.44838709677419,1.43870967741935,1.4258064516129,1.41612903225806,1.40322580645161,1.39354838709677,1.38387096774194,1.38709677419355,1.38064516129032,1.38709677419355,1.38064516129032,1.37741935483871,1.38064516129032,1.38064516129032,1.38064516129032,1.38064516129032,1.37741935483871,1.37741935483871,1.38064516129032,1.38387096774194,1.38064516129032,1.38709677419355,1.37741935483871,1.38387096774194,1.38387096774194,1.38709677419355,1.38709677419355,1.38064516129032,1.38064516129032,1.38709677419355,1.38064516129032,1.38064516129032,1.38064516129032,1.38709677419355,1.38064516129032,1.37741935483871,1.37741935483871,1.38709677419355,1.38709677419355,1.38709677419355,1.38387096774194,1.38387096774194,1.38709677419355,1.38709677419355,1.38709677419355,1.39032258064516,1.38709677419355,1.37741935483871,1.38064516129032,1.3741935483871,1.38387096774194,1.38387096774194,1.37741935483871,1.37741935483871,1.37741935483871,1.38387096774194,1.38387096774194,1.38387096774194,1.38064516129032,1.38387096774194,1.38387096774194,1.38387096774194,1.38387096774194,1.38387096774194,1.38387096774194,1.38387096774194,1.37741935483871,1.37741935483871,1.38387096774194,1.37741935483871,1.38387096774194,1.38387096774194,1.38064516129032,1.38387096774194,1.40645161290323,1.42258064516129,1.43548387096774,1.45161290322581,1.42903225806452,1.44516129032258,1.45161290322581,1.43870967741935,1.41612903225806,1.38709677419355,1.38387096774194,1.38387096774194,1.38387096774194,1.38064516129032,1.3741935483871,1.38709677419355,1.46451612903226,1.61612903225806,1.70322580645161,1.70967741935484,1.47741935483871,1.39677419354839,1.37741935483871,1.3741935483871,1.37741935483871,1.3741935483871,1.37096774193548,1.37096774193548,1.37096774193548,1.3741935483871,1.37096774193548,1.3741935483871,1.3741935483871,1.37096774193548,1.38064516129032,1.37741935483871,1.38064516129032,1.3741935483871,1.38064516129032,1.38064516129032,1.38709677419355,1.39032258064516,1.38709677419355,1.40322580645161,1.40322580645161,1.41290322580645,1.4258064516129,1.43870967741935,1.44193548387097,1.45483870967742,1.46129032258065,1.46451612903226,1.47096774193548,1.46451612903226,1.45806451612903,1.44516129032258,1.43548387096774,1.42258064516129,1.40322580645161,1.4,1.39032258064516,1.39032258064516,1.39032258064516,1.37741935483871,1.38064516129032,1.38064516129032,1.38064516129032,1.38064516129032,1.37741935483871,1.3741935483871,1.3741935483871,1.38064516129032,1.38064516129032,1.38064516129032,1.37741935483871,1.38064516129032,1.38709677419355,1.39032258064516,1.39032258064516,1.39032258064516,1.39032258064516,1.39032258064516,1.39032258064516,1.38709677419355,1.38709677419355,1.38709677419355,1.39032258064516,1.38709677419355,1.38064516129032,1.38709677419355,1.38064516129032,1.39032258064516,1.38709677419355,1.38064516129032,1.38064516129032,1.37741935483871,1.39032258064516,1.38064516129032,1.38709677419355,1.38064516129032,1.39032258064516,1.38709677419355,1.39032258064516,1.38709677419355,1.38387096774194,1.39032258064516,1.38709677419355,1.38709677419355,1.39032258064516,1.39032258064516,1.38709677419355,1.38709677419355,1.37741935483871,1.39354838709677,1.38709677419355,1.38709677419355,1.39032258064516,1.38709677419355,1.38709677419355,1.39032258064516,1.38387096774194,1.38709677419355,1.39032258064516,1.38709677419355,1.38387096774194,1.39032258064516,1.39032258064516,1.39032258064516,1.40645161290323,1.41612903225806,1.44193548387097,1.44193548387097,1.42903225806452,1.44193548387097,1.44838709677419,1.43225806451613,1.41290322580645,1.39032258064516,1.38387096774194,1.38387096774194,1.38387096774194,1.38387096774194,1.38064516129032,1.4,1.50322580645161,1.68064516129032,1.8258064516129,1.63548387096774,1.4258064516129,1.38064516129032,1.38387096774194,1.37741935483871,1.37741935483871,1.36774193548387,1.37096774193548,1.36451612903226,1.36451612903226,1.36774193548387,1.36774193548387,1.36774193548387,1.37741935483871,1.36774193548387,1.36774193548387,1.36774193548387,1.3741935483871,1.3741935483871,1.37741935483871,1.37741935483871,1.38064516129032,1.38387096774194,1.39032258064516,1.39677419354839,1.4,1.41290322580645,1.42258064516129,1.42903225806452,1.44193548387097,1.44516129032258,1.45806451612903,1.46451612903226,1.46451612903226,1.45806451612903,1.45161290322581,1.44516129032258,1.42903225806452,1.41290322580645,1.40322580645161,1.39677419354839,1.38387096774194,1.38387096774194,1.38387096774194,1.37741935483871,1.38064516129032,1.37741935483871,1.38064516129032,1.38064516129032,1.38064516129032,1.38387096774194,1.37741935483871,1.38064516129032,1.38064516129032,1.38064516129032,1.37741935483871,1.38064516129032,1.38064516129032,1.38064516129032,1.38064516129032,1.38387096774194,1.38064516129032,1.38387096774194,1.37741935483871,1.37741935483871,1.38064516129032,1.38387096774194,1.38387096774194,1.37741935483871,1.37741935483871,1.38387096774194,1.38387096774194,1.38387096774194,1.38387096774194,1.38387096774194,1.38709677419355,1.38387096774194,1.38387096774194,1.38387096774194,1.38709677419355,1.38387096774194,1.38387096774194,1.38709677419355,1.38387096774194,1.38387096774194,1.38387096774194,1.38709677419355,1.38709677419355,1.38387096774194,1.38387096774194,1.38387096774194,1.38709677419355,1.38064516129032,1.38387096774194,1.38387096774194,1.38064516129032,1.38387096774194,1.37741935483871,1.38709677419355,1.38387096774194,1.38709677419355,1.38387096774194,1.38387096774194,1.38709677419355,1.38387096774194,1.39032258064516,1.38709677419355,1.39032258064516,1.38709677419355,1.39032258064516,1.38709677419355,1.38709677419355,1.38709677419355,1.40322580645161,1.41935483870968,1.43225806451613,1.44193548387097,1.44193548387097,1.43870967741935,1.45483870967742,1.44193548387097,1.41935483870968,1.39677419354839,1.39032258064516,1.38387096774194,1.38387096774194,1.38387096774194,1.38387096774194,1.38709677419355,1.45483870967742,1.61612903225806,1.74516129032258,1.81935483870968,1.52258064516129,1.40322580645161,1.38387096774194,1.3741935483871,1.38387096774194,1.36774193548387,1.36774193548387,1.36774193548387,1.36774193548387,1.36774193548387,1.36774193548387,1.36451612903226,1.3741935483871,1.36774193548387,1.37096774193548,1.37096774193548,1.3741935483871,1.3741935483871,1.38064516129032,1.3741935483871,1.38387096774194,1.38387096774194,1.39032258064516,1.39354838709677,1.40322580645161,1.40967741935484,1.41612903225806,1.43225806451613,1.44193548387097,1.45161290322581,1.45806451612903,1.45806451612903,1.46774193548387,1.46774193548387,1.46129032258065,1.45161290322581,1.43225806451613,1.42903225806452,1.41290322580645,1.40645161290323,1.39032258064516,1.39032258064516,1.39032258064516,1.38709677419355,1.38064516129032,1.38387096774194,1.38709677419355,1.38387096774194,1.37741935483871,1.38387096774194,1.38064516129032,1.38387096774194,1.39032258064516,1.38387096774194,1.38387096774194,1.38387096774194,1.38387096774194,1.38387096774194,1.38064516129032,1.38387096774194,1.38387096774194,1.38387096774194,1.38387096774194,1.38387096774194,1.37741935483871,1.37741935483871,1.38064516129032,1.38387096774194,1.38387096774194,1.37741935483871,1.38064516129032,1.38387096774194,1.38387096774194,1.38387096774194,1.38387096774194,1.38387096774194,1.38064516129032,1.38064516129032,1.38387096774194,1.38387096774194,1.38387096774194,1.38387096774194,1.38387096774194,1.38387096774194,1.38064516129032,1.38387096774194,1.38387096774194,1.39032258064516,1.38709677419355,1.38387096774194,1.38387096774194,1.39032258064516,1.39032258064516,1.38387096774194,1.38387096774194,1.38709677419355,1.38709677419355,1.39032258064516,1.39032258064516,1.38387096774194,1.38709677419355,1.38709677419355,1.38709677419355,1.39032258064516,1.39032258064516,1.39032258064516,1.38709677419355,1.39354838709677,1.38709677419355,1.38387096774194,1.39032258064516,1.39677419354839,1.41935483870968,1.4258064516129,1.44838709677419,1.44193548387097,1.43870967741935,1.44838709677419,1.44838709677419,1.41935483870968,1.40322580645161,1.39032258064516,1.38387096774194,1.39032258064516,1.38709677419355,1.39354838709677,1.38709677419355,1.42903225806452,1.53870967741935,1.69354838709677,1.8,1.5258064516129,1.38709677419355,1.37096774193548,1.37741935483871,1.37741935483871,1.37741935483871,1.36774193548387,1.3741935483871,1.37096774193548,1.37096774193548,1.3741935483871,1.37096774193548,1.37096774193548,1.37096774193548,1.36451612903226,1.38064516129032,1.3741935483871,1.37096774193548,1.37741935483871,1.38064516129032,1.38387096774194,1.38064516129032,1.39354838709677,1.39354838709677,1.40322580645161,1.41612903225806,1.42258064516129,1.42258064516129,1.43548387096774,1.44516129032258,1.45161290322581,1.46774193548387,1.4741935483871,1.46451612903226,1.45806451612903,1.45161290322581,1.43870967741935,1.42903225806452,1.41290322580645,1.40645161290323,1.39032258064516,1.38709677419355,1.38064516129032,1.38064516129032,1.3741935483871,1.37741935483871,1.3741935483871,1.3741935483871,1.3741935483871,1.3741935483871,1.3741935483871,1.38064516129032,1.37741935483871,1.3741935483871,1.38064516129032,1.38064516129032,1.38064516129032,1.38064516129032,1.38064516129032,1.38064516129032,1.38064516129032,1.38387096774194,1.38387096774194,1.37741935483871,1.37741935483871,1.37741935483871,1.38387096774194,1.37741935483871,1.37096774193548,1.37741935483871,1.37741935483871,1.38064516129032,1.37741935483871,1.37741935483871,1.37741935483871,1.37741935483871,1.37741935483871,1.38387096774194,1.38064516129032,1.37741935483871,1.38064516129032,1.38387096774194,1.38064516129032,1.38064516129032,1.37741935483871,1.37741935483871,1.38064516129032,1.37741935483871,1.37741935483871,1.37741935483871,1.38064516129032,1.38064516129032,1.38064516129032,1.37741935483871,1.37741935483871,1.38387096774194,1.38064516129032,1.38387096774194,1.39354838709677,1.40645161290323,1.41935483870968,1.42903225806452,1.43548387096774,1.43225806451613,1.44193548387097,1.43870967741935,1.43225806451613,1.4,1.37741935483871,1.3741935483871,1.37741935483871,1.37741935483871,1.37096774193548,1.38064516129032,1.39677419354839,1.49677419354839,1.67096774193548,1.79677419354839,1.60645161290323,1.40967741935484,1.3741935483871,1.38387096774194,1.37741935483871,1.38064516129032,1.37096774193548,1.37096774193548,1.36774193548387,1.36774193548387,1.37096774193548,1.37096774193548,1.3741935483871,1.3741935483871,1.37096774193548,1.37741935483871,1.37741935483871,1.38064516129032,1.37741935483871,1.37741935483871,1.38064516129032,1.38709677419355,1.38709677419355,1.39032258064516,1.40322580645161,1.40645161290323,1.41290322580645,1.4258064516129,1.43225806451613,1.44516129032258,1.45161290322581,1.46451612903226,1.46451612903226,1.4741935483871,1.46129032258065,1.45161290322581,1.43548387096774,1.4258064516129,1.41612903225806,1.40322580645161,1.39677419354839,1.39354838709677,1.38709677419355,1.38709677419355,1.38709677419355,1.38709677419355,1.38064516129032,1.38387096774194,1.38387096774194,1.38064516129032,1.38387096774194,1.38387096774194,1.38709677419355,1.38387096774194,1.39032258064516,1.38709677419355,1.39354838709677,1.39032258064516,1.38709677419355,1.39354838709677,1.38709677419355,1.39354838709677,1.39032258064516,1.39677419354839,1.39677419354839,1.39677419354839,1.39677419354839,1.39354838709677,1.39677419354839,1.39677419354839,1.39354838709677,1.39677419354839,1.39354838709677,1.39354838709677,1.4,1.4,1.4,1.4,1.4,1.39677419354839,1.4,1.4,1.4,1.39677419354839,1.39677419354839,1.4,1.39677419354839,1.39677419354839,1.39354838709677,1.39677419354839,1.39677419354839,1.39677419354839,1.4,1.4,1.39354838709677,1.39677419354839,1.4,1.4,1.4,1.39354838709677,1.39677419354839,1.39354838709677,1.39677419354839,1.39677419354839,1.39677419354839,1.39677419354839,1.39677419354839,1.39354838709677,1.39032258064516,1.39354838709677,1.39354838709677,1.38387096774194,1.38709677419355,1.4,1.41935483870968,1.4258064516129,1.44193548387097,1.44193548387097,1.43548387096774
1.38709677419355,1.38064516129032,1.38709677419355,1.38709677419355,1.38709677419355,1.39032258064516,1.39354838709677,1.40322580645161,1.41290322580645,1.41612903225806,1.42903225806452,1.43548387096774,1.43870967741935,1.44838709677419,1.45483870967742,1.45161290322581,1.45161290322581,1.44516129032258,1.43870967741935,1.4258064516129,1.41935483870968,1.40645161290323,1.40322580645161,1.38709677419355,1.39677419354839,1.38709677419355,1.38709677419355,1.38709677419355,1.38064516129032,1.39032258064516,1.38387096774194,1.38387096774194,1.38064516129032,1.38387096774194,1.38709677419355,1.38709677419355,1.38709677419355,1.38709677419355,1.38064516129032,1.38064516129032,1.38064516129032,1.38387096774194,1.38064516129032,1.38064516129032,1.38064516129032,1.38387096774194,1.38387096774194,1.38387096774194,1.38064516129032,1.38064516129032,1.37741935483871,1.37741935483871,1.37741935483871,1.37741935483871,1.37741935483871,1.37741935483871,1.37741935483871,1.3741935483871,1.3741935483871,1.38387096774194,1.38387096774194,1.37741935483871,1.38387096774194,1.38387096774194,1.38064516129032,1.38387096774194,1.39032258064516,1.38387096774194,1.38387096774194,1.38387096774194,1.38387096774194,1.38387096774194,1.38387096774194,1.38064516129032,1.38387096774194,1.38064516129032,1.37741935483871,1.38387096774194,1.39032258064516,1.40645161290323,1.41290322580645,1.44516129032258,1.44516129032258,1.43225806451613,1.44838709677419,1.45161290322581,1.4258064516129,1.40967741935484,1.38387096774194,1.38387096774194,1.38387096774194,1.37741935483871,1.37741935483871,1.37741935483871,1.43870967741935,1.6,1.8,1.9741935483871,1.65161290322581,1.4258064516129,1.37741935483871,1.37741935483871,1.37741935483871,1.36129032258065,1.36774193548387,1.35483870967742,1.36451612903226,1.35483870967742,1.36451612903226,1.36451612903226,1.36451612903226,1.36451612903226,1.36774193548387,1.36451612903226,1.37096774193548,1.36774193548387,1.36451612903226,1.3741935483871,1.3741935483871,1.38387096774194,1.38387096774194,1.39032258064516,1.4,1.40645161290323,1.41290322580645,1.41935483870968,1.43225806451613,1.43548387096774,1.43548387096774,1.43870967741935,1.43548387096774,1.43548387096774,1.42258064516129,1.41612903225806,1.40967741935484,1.40645161290323,1.39677419354839,1.39032258064516,1.37741935483871,1.37741935483871,1.37741935483871,1.37741935483871,1.38387096774194,1.37741935483871,1.37741935483871,1.3741935483871,1.37741935483871,1.37741935483871,1.37741935483871,1.37741935483871,1.37741935483871,1.37741935483871,1.37741935483871,1.38709677419355,1.38387096774194,1.38387096774194,1.38387096774194,1.38709677419355,1.38387096774194,1.37741935483871,1.38064516129032,1.37741935483871,1.3741935483871,1.38064516129032,1.38064516129032,1.38064516129032,1.38064516129032,1.38064516129032,1.38709677419355,1.37741935483871,1.37741935483871,1.37741935483871,1.37741935483871,1.37741935483871,1.3741935483871,1.37741935483871,1.38064516129032,1.38387096774194,1.38064516129032,1.37741935483871,1.38387096774194,1.38064516129032,1.37741935483871,1.38064516129032,1.37741935483871,1.38387096774194,1.38064516129032,1.38064516129032,1.38064516129032,1.38064516129032,1.38387096774194,1.37741935483871,1.3741935483871,1.3741935483871,1.38064516129032,1.38064516129032,1.3741935483871,1.38387096774194,1.39032258064516,1.40967741935484,1.4258064516129,1.43870967741935,1.4258064516129,1.44516129032258,1.44516129032258,1.43548387096774,1.40645161290323,1.39677419354839,1.37741935483871,1.37741935483871,1.38064516129032,1.37741935483871,1.37741935483871,1.40322580645161,1.53870967741935,1.76774193548387,1.94838709677419,1.73548387096774,1.46129032258065,1.39354838709677,1.38709677419355,1.37741935483871,1.37741935483871,1.37096774193548,1.36451612903226,1.37096774193548,1.36451612903226,1.36129032258065,1.36129032258065,1.35483870967742,1.37096774193548,1.36129032258065,1.36129032258065,1.36129032258065,1.36774193548387,1.36774193548387,1.3741935483871,1.37741935483871,1.38064516129032,1.38387096774194,1.38709677419355,1.39677419354839,1.39032258064516,1.41612903225806,1.42258064516129,1.43225806451613,1.43225806451613,1.44193548387097,1.44516129032258,1.44193548387097,1.44193548387097,1.43548387096774,1.4258064516129,1.40645161290323,1.40967741935484,1.40322580645161,1.38709677419355,1.38387096774194,1.38709677419355,1.38709677419355,1.38064516129032,1.38387096774194,1.38064516129032,1.38064516129032,1.38064516129032,1.3741935483871,1.38387096774194,1.38709677419355,1.37741935483871,1.37741935483871,1.36774193548387,1.38064516129032,1.38387096774194,1.38387096774194,1.38064516129032,1.38387096774194,1.38064516129032,1.39354838709677,1.39354838709677,1.38709677419355,1.38387096774194,1.36774193548387,1.38064516129032,1.38064516129032,1.38064516129032,1.38387096774194,1.38387096774194,1.38064516129032,1.3741935483871,1.3741935483871,1.38387096774194,1.3741935483871,1.35161290322581,1.3741935483871,1.3741935483871,1.37741935483871,1.3741935483871,1.38064516129032,1.3741935483871,1.3741935483871,1.38709677419355,1.38709677419355,1.38064516129032,1.38387096774194,1.38064516129032,1.39032258064516,1.39032258064516,1.38064516129032,1.38387096774194,1.38064516129032,1.38709677419355,1.39677419354839,1.40967741935484,1.41935483870968,1.43870967741935,1.43225806451613,1.44193548387097,1.44838709677419,1.44193548387097,1.40967741935484,1.40322580645161,1.38709677419355,1.38387096774194,1.38064516129032,1.38064516129032,1.38064516129032,1.39677419354839,1.48709677419355,1.68709677419355,1.84838709677419,1.77741935483871,1.52258064516129,1.4,1.38064516129032,1.3741935483871,1.37741935483871,1.36129032258065,1.36774193548387,1.36129032258065,1.37741935483871,1.36451612903226,1.36451612903226,1.36451612903226,1.37096774193548,1.36451612903226,1.3741935483871,1.37096774193548,1.3741935483871,1.3741935483871,1.37741935483871,1.38064516129032,1.37741935483871,1.39032258064516,1.39032258064516,1.39677419354839,1.40322580645161,1.41290322580645,1.4258064516129,1.4258064516129,1.44516129032258,1.44193548387097,1.44193548387097,1.45483870967742,1.43870967741935,1.43548387096774,1.42258064516129,1.41612903225806,1.40645161290323,1.39677419354839,1.39032258064516,1.38387096774194,1.38387096774194,1.38064516129032,1.38387096774194,1.37096774193548,1.37741935483871,1.37741935483871,1.37741935483871,1.37741935483871,1.38064516129032,1.37741935483871,1.37741935483871,1.38064516129032,1.38064516129032,1.38064516129032,1.38064516129032,1.38387096774194,1.38709677419355,1.39032258064516,1.37741935483871,1.3741935483871,1.37741935483871,1.37741935483871,1.38064516129032,1.38064516129032,1.38064516129032,1.38387096774194,1.38064516129032,1.38064516129032,1.38064516129032,1.38387096774194,1.38064516129032,1.3741935483871,1.38064516129032,1.38064516129032,1.38064516129032,1.37741935483871,1.37741935483871,1.38064516129032,1.37741935483871,1.37741935483871,1.3741935483871,1.38387096774194,1.38064516129032,1.38709677419355,1.37741935483871,1.38064516129032,1.37741935483871,1.37741935483871,1.38064516129032,1.38064516129032,1.37741935483871,1.37741935483871,1.37741935483871,1.38064516129032,1.37741935483871,1.38064516129032,1.37741935483871,1.39354838709677,1.40967741935484,1.42903225806452,1.43870967741935,1.43225806451613,1.44516129032258,1.44838709677419,1.43225806451613,1.41612903225806,1.39677419354839,1.3741935483871,1.3741935483871,1.38064516129032,1.37741935483871,1.37096774193548,1.39032258064516,1.51290322580645,1.73225806451613,1.92258064516129,1.80967741935484,1.52903225806452,1.40645161290323,1.38387096774194,1.37741935483871,1.36774193548387,1.36129032258065,1.36129032258065,1.35806451612903,1.35483870967742,1.35806451612903,1.35483870967742,1.36451612903226,1.36451612903226,1.36774193548387,1.36774193548387,1.36774193548387,1.36774193548387,1.36774193548387,1.37096774193548,1.3741935483871,1.38064516129032,1.38064516129032,1.38709677419355,1.39677419354839,1.39677419354839,1.40645161290323,1.41612903225806,1.42258064516129,1.43225806451613,1.43548387096774,1.43870967741935,1.43870967741935,1.43548387096774,1.42903225806452,1.41935483870968,1.41290322580645,1.40645161290323,1.39354838709677,1.39032258064516,1.38387096774194,1.38709677419355,1.38064516129032,1.37741935483871,1.3741935483871,1.37741935483871,1.38387096774194,1.37741935483871,1.37741935483871,1.37741935483871,1.37741935483871,1.37741935483871,1.37741935483871,1.38387096774194,1.38709677419355,1.38387096774194,1.38709677419355,1.38709677419355,1.38709677419355,1.38387096774194,1.38709677419355,1.38387096774194,1.38387096774194,1.38709677419355,1.38387096774194,1.38709677419355,1.38064516129032,1.38064516129032,1.38064516129032,1.38709677419355,1.37741935483871,1.38387096774194,1.38064516129032,1.38064516129032,1.37741935483871,1.39032258064516,1.38064516129032,1.38709677419355,1.38709677419355,1.38064516129032,1.38709677419355,1.38064516129032,1.38064516129032,1.37741935483871,1.37741935483871,1.38387096774194,1.38387096774194,1.38387096774194,1.38387096774194,1.38387096774194,1.38387096774194,1.38387096774194,1.38709677419355,1.3741935483871,1.3741935483871,1.38387096774194,1.38387096774194,1.38387096774194,1.3741935483871,1.38387096774194,1.39032258064516,1.40967741935484,1.41935483870968,1.43548387096774,1.44193548387097,1.43870967741935,1.45161290322581,1.44193548387097,1.42903225806452,1.40967741935484,1.39354838709677,1.38064516129032,1.38064516129032,1.3741935483871,1.38064516129032,1.3741935483871,1.45161290322581,1.61935483870968,1.81612903225806,1.99032258064516,1.65161290322581,1.4258064516129,1.38387096774194,1.3741935483871,1.37096774193548,1.36129032258065,1.36129032258065,1.36129032258065,1.35483870967742,1.36129032258065,1.36129032258065,1.36451612903226,1.35483870967742,1.36451612903226,1.35806451612903,1.36451612903226,1.36774193548387,1.36774193548387,1.37096774193548,1.36774193548387,1.3741935483871,1.38064516129032,1.38064516129032,1.39032258064516,1.39677419354839,1.40322580645161,1.41612903225806,1.42258064516129,1.4258064516129,1.43225806451613,1.44193548387097,1.44193548387097,1.43225806451613,1.43225806451613,1.4258064516129,1.41612903225806,1.41290322580645,1.40645161290323,1.39677419354839,1.38709677419355,1.38709677419355,1.38709677419355,1.38709677419355,1.37741935483871,1.37741935483871,1.3741935483871,1.38064516129032,1.38709677419355,1.37741935483871,1.37741935483871,1.38064516129032,1.38387096774194,1.38064516129032,1.37741935483871,1.38064516129032,1.37741935483871,1.38387096774194,1.38387096774194,1.38387096774194,1.38387096774194,1.38387096774194,1.3741935483871,1.38709677419355,1.38387096774194,1.38387096774194,1.38709677419355,1.38064516129032,1.38064516129032,1.38064516129032,1.38064516129032,1.38064516129032,1.3741935483871,1.38064516129032,1.37741935483871,1.38064516129032,1.38709677419355,1.38064516129032,1.38387096774194,1.37096774193548,1.38064516129032,1.38064516129032,1.37741935483871,1.37741935483871,1.37741935483871,1.38064516129032,1.3741935483871,1.37741935483871,1.38387096774194,1.37741935483871,1.37741935483871,1.38709677419355,1.38387096774194,1.38387096774194,1.38709677419355,1.39032258064516,1.38387096774194,1.38064516129032,1.38387096774194,1.38387096774194,1.39354838709677,1.38064516129032,1.38709677419355,1.4,1.40322580645161,1.43870967741935,1.44193548387097,1.43225806451613,1.45483870967742,1.44838709677419,1.43225806451613,1.40645161290323,1.38709677419355,1.38064516129032,1.38387096774194,1.37741935483871,1.37741935483871,1.38709677419355,1.41612903225806,1.55806451612903,1.77741935483871,1.94516129032258,1.66129032258065,1.42258064516129,1.39032258064516,1.37741935483871,1.36774193548387,1.37096774193548,1.36129032258065,1.36774193548387,1.36451612903226,1.36774193548387,1.36451612903226,1.36129032258065,1.36774193548387,1.36451612903226,1.3741935483871,1.3741935483871,1.3741935483871,1.37096774193548,1.37096774193548,1.38064516129032,1.37741935483871,1.38064516129032,1.38387096774194,1.38064516129032,1.40322580645161,1.40322580645161,1.41612903225806,1.42903225806452,1.43548387096774,1.44516129032258,1.44516129032258,1.44516129032258,1.44838709677419,1.43870967741935,1.43225806451613,1.42258064516129,1.41612903225806,1.4,1.39354838709677,1.4,1.39354838709677,1.38387096774194,1.38387096774194,1.37741935483871,1.38064516129032,1.37741935483871,1.38387096774194,1.38064516129032,1.37741935483871,1.3741935483871,1.38387096774194,1.38387096774194,1.38387096774194,1.3741935483871,1.38387096774194,1.38387096774194,1.38709677419355,1.38064516129032,1.38709677419355,1.37741935483871,1.38064516129032,1.38709677419355,1.38387096774194,1.38064516129032,1.38387096774194,1.3741935483871,1.3741935483871,1.38064516129032,1.38064516129032,1.38064516129032,1.3741935483871,1.38064516129032,1.38064516129032,1.38064516129032,1.37741935483871,1.3741935483871,1.38064516129032,1.3741935483871,1.38709677419355,1.38064516129032,1.37741935483871,1.37741935483871,1.38064516129032,1.38387096774194,1.38064516129032,1.38064516129032,1.38064516129032,1.38064516129032,1.37096774193548,1.38064516129032,1.38064516129032,1.38064516129032,1.38064516129032,1.38064516129032,1.38064516129032,1.39354838709677,1.4,1.4258064516129,1.43870967741935,1.4258064516129,1.44516129032258,1.44838709677419,1.43225806451613,1.41290322580645,1.4,1.38709677419355,1.38064516129032,1.38709677419355,1.38064516129032,1.38064516129032,1.38387096774194,1.46129032258065,1.65161290322581,1.80967741935484,1.8741935483871,1.57741935483871,1.41290322580645,1.38709677419355,1.3741935483871,1.3741935483871,1.36774193548387,1.36451612903226,1.36451612903226,1.36451612903226,1.35806451612903,1.36451612903226,1.36129032258065,1.36451612903226,1.36451612903226,1.36451612903226,1.37096774193548,1.3741935483871,1.3741935483871,1.38064516129032,1.38064516129032,1.38387096774194,1.39032258064516,1.39032258064516,1.39677419354839,1.40322580645161,1.40967741935484,1.41935483870968,1.4258064516129,1.43225806451613,1.43870967741935,1.44193548387097,1.44193548387097,1.44193548387097,1.43225806451613,1.4258064516129,1.41612903225806,1.40967741935484,1.39354838709677,1.38709677419355,1.38387096774194,1.38064516129032,1.38064516129032,1.37741935483871,1.37741935483871,1.37741935483871,1.38064516129032,1.37741935483871,1.37741935483871,1.37741935483871,1.37741935483871,1.38387096774194,1.37741935483871,1.37741935483871,1.38064516129032,1.38064516129032,1.37741935483871,1.3741935483871,1.37741935483871,1.38709677419355,1.38387096774194,1.38709677419355,1.38064516129032,1.38064516129032,1.37741935483871,1.37096774193548,1.38064516129032,1.37741935483871,1.38064516129032,1.38064516129032,1.37741935483871,1.38064516129032,1.3741935483871,1.37741935483871,1.37741935483871,1.38064516129032,1.37741935483871,1.37741935483871,1.38387096774194,1.38387096774194,1.37741935483871,1.38064516129032,1.38387096774194,1.3741935483871,1.37741935483871,1.38064516129032,1.38387096774194,1.37741935483871,1.38064516129032,1.38387096774194,1.37741935483871,1.37741935483871,1.38064516129032,1.37741935483871,1.3741935483871,1.38064516129032,1.37741935483871,1.38064516129032,1.37741935483871,1.38709677419355,1.39677419354839,1.40967741935484,1.42903225806452,1.43870967741935,1.43225806451613,1.45483870967742,1.45483870967742,1.44193548387097,1.41935483870968,1.4,1.38709677419355,1.37741935483871,1.38709677419355,1.3741935483871,1.3741935483871,1.39677419354839,1.51612903225806,1.7258064516129,1.91935483870968,1.83870967741935,1.54193548387097,1.41290322580645,1.37741935483871,1.3741935483871,1.36774193548387,1.36129032258065,1.36451612903226,1.36129032258065,1.36129032258065,1.36774193548387,1.36129032258065,1.36129032258065,1.36451612903226,1.36129032258065,1.36129032258065,1.37096774193548,1.37096774193548,1.37096774193548,1.37096774193548,1.3741935483871,1.38064516129032,1.38709677419355,1.38709677419355,1.39354838709677,1.4,1.40967741935484,1.41935483870968,1.42903225806452,1.43225806451613,1.43870967741935,1.44193548387097,1.43870967741935,1.43870967741935,1.43225806451613,1.4258064516129,1.41290322580645,1.40967741935484,1.40322580645161,1.39032258064516,1.38387096774194,1.38387096774194,1.38064516129032,1.38064516129032,1.38387096774194,1.38387096774194,1.37741935483871,1.3741935483871,1.37741935483871,1.37741935483871,1.38064516129032,1.38387096774194,1.38064516129032,1.38064516129032,1.38064516129032,1.38387096774194,1.38064516129032,1.38064516129032,1.38709677419355,1.38709677419355,1.38709677419355,1.38709677419355,1.38064516129032,1.38064516129032,1.38064516129032,1.38064516129032,1.37741935483871,1.38064516129032,1.37741935483871,1.37741935483871,1.38064516129032,1.37741935483871,1.37741935483871,1.37741935483871,1.37741935483871,1.38064516129032,1.37741935483871,1.38064516129032,1.38064516129032,1.38064516129032,1.37741935483871,1.38064516129032,1.38064516129032,1.37741935483871,1.37741935483871,1.3741935483871,1.37741935483871,1.37741935483871,1.3741935483871,1.38064516129032,1.37741935483871,1.37741935483871,1.37741935483871,1.37741935483871,1.3741935483871,1.38064516129032,1.38064516129032,1.38064516129032,1.37741935483871,1.38064516129032,1.38064516129032,1.40322580645161,1.40967741935484,1.43225806451613,1.44193548387097,1.43225806451613,1.45161290322581,1.44838709677419,1.4258064516129,1.41612903225806,1.39354838709677,1.37741935483871,1.3741935483871,1.38387096774194,1.38064516129032,1.3741935483871,1.40967741935484,1.53548387096774,1.77741935483871,1.96129032258065,1.73870967741935,1.45806451612903,1.38709677419355,1.37741935483871,1.3741935483871,1.37096774193548,1.36129032258065,1.36129032258065,1.36129032258065,1.36129032258065,1.36129032258065,1.36129032258065,1.36129032258065,1.36129032258065,1.36774193548387,1.36451612903226,1.36451612903226,1.37096774193548,1.3741935483871,1.37096774193548,1.3741935483871,1.37741935483871,1.37741935483871,1.4,1.39677419354839,1.40322580645161,1.41935483870968,1.42258064516129,1.43225806451613,1.43225806451613,1.44838709677419,1.44838709677419,1.44838709677419,1.43870967741935,1.43225806451613,1.43225806451613,1.40967741935484,1.4,1.39677419354839,1.39354838709677,1.39032258064516,1.38387096774194,1.36774193548387,1.38709677419355,1.37741935483871,1.38064516129032,1.38387096774194,1.37741935483871,1.38064516129032,1.38387096774194,1.38387096774194,1.38387096774194,1.38064516129032,1.38387096774194,1.38709677419355,1.38064516129032,1.37741935483871,1.39032258064516,1.38387096774194,1.38064516129032,1.38387096774194,1.38387096774194,1.3741935483871,1.37741935483871,1.38387096774194,1.38387096774194,1.38064516129032,1.37741935483871,1.36774193548387,1.3741935483871,1.38064516129032,1.36774193548387,1.37741935483871,1.37741935483871,1.37741935483871,1.37096774193548,1.37741935483871,1.38709677419355,1.37096774193548,1.36774193548387,1.37741935483871,1.37096774193548,1.38387096774194,1.37741935483871,1.38709677419355,1.37741935483871,1.37741935483871,1.37741935483871,1.36774193548387,1.37741935483871,1.37096774193548,1.37096774193548,1.38387096774194,1.37741935483871,1.38064516129032,1.38387096774194,1.40645161290323,1.41290322580645,1.42903225806452,1.43548387096774,1.43870967741935,1.45161290322581,1.44193548387097,1.41290322580645,1.39677419354839,1.38387096774194,1.36774193548387,1.37741935483871,1.37741935483871,1.36451612903226,1.3741935483871,1.45161290322581,1.62258064516129,1.79032258064516,1.89354838709677,1.57096774193548,1.41290322580645,1.38387096774194,1.37096774193548,1.38064516129032,1.36774193548387,1.36774193548387,1.35806451612903,1.36451612903226,1.35806451612903,1.36129032258065,1.36129032258065,1.36451612903226,1.34516129032258,1.36451612903226,1.36774193548387,1.37741935483871,1.36774193548387,1.38064516129032,1.39354838709677,1.38064516129032,1.38387096774194,1.38709677419355,1.39354838709677,1.38387096774194,1.40645161290323,1.41935483870968,1.4258064516129,1.43225806451613,1.44516129032258,1.43870967741935,1.45161290322581,1.44193548387097,1.44193548387097,1.43225806451613,1.42258064516129,1.41290322580645,1.40322580645161,1.4,1.38709677419355,1.39032258064516,1.39032258064516,1.38709677419355,1.37741935483871,1.38709677419355,1.37741935483871,1.3741935483871,1.38064516129032,1.38387096774194,1.38709677419355,1.38387096774194,1.38387096774194,1.38709677419355,1.39354838709677,1.39677419354839,1.39354838709677,1.39677419354839,1.39032258064516,1.39677419354839,1.39354838709677,1.38709677419355,1.39032258064516,1.39677419354839,1.39677419354839,1.39354838709677,1.39032258064516,1.39032258064516,1.39032258064516,1.39677419354839,1.39032258064516,1.39677419354839,1.39354838709677,1.39354838709677,1.39354838709677,1.39677419354839,1.39032258064516,1.39354838709677,1.39677419354839,1.4,1.39354838709677,1.39354838709677,1.39354838709677,1.39354838709677,1.39677419354839,1.39677419354839,1.39354838709677,1.39354838709677,1.4,1.40322580645161,1.40645161290323,1.4258064516129,1.43225806451613,1.44838709677419,1.44838709677419
1.38387096774194,1.38387096774194,1.38387096774194,1.38064516129032,1.37741935483871,1.38709677419355,1.37741935483871,1.38387096774194,1.38387096774194,1.38387096774194,1.38387096774194,1.38387096774194,1.39032258064516,1.39032258064516,1.39032258064516,1.39354838709677,1.39677419354839,1.40322580645161,1.41290322580645,1.41612903225806,1.42903225806452,1.43548387096774,1.44193548387097,1.44193548387097,1.45161290322581,1.44838709677419,1.45483870967742,1.44838709677419,1.43870967741935,1.4258064516129,1.41935483870968,1.40645161290323,1.40322580645161,1.4,1.39677419354839,1.39032258064516,1.38709677419355,1.38064516129032,1.38709677419355,1.38387096774194,1.38709677419355,1.38387096774194,1.38709677419355,1.38387096774194,1.39032258064516,1.39032258064516,1.38709677419355,1.39677419354839,1.39032258064516,1.4,1.39354838709677,1.39032258064516,1.38709677419355,1.39032258064516,1.38709677419355,1.39354838709677,1.39032258064516,1.39032258064516,1.38709677419355,1.38709677419355,1.39354838709677,1.38064516129032,1.38709677419355,1.39032258064516,1.38709677419355,1.37741935483871,1.38709677419355,1.38387096774194,1.38709677419355,1.37741935483871,1.38709677419355,1.38709677419355,1.38709677419355,1.37741935483871,1.38064516129032,1.37741935483871,1.38709677419355,1.38709677419355,1.37741935483871,1.38064516129032,1.38709677419355,1.39032258064516,1.38709677419355,1.38064516129032,1.38064516129032,1.39677419354839,1.41290322580645,1.41612903225806,1.43870967741935,1.43870967741935,1.42903225806452,1.45161290322581,1.43870967741935,1.41612903225806,1.4,1.38387096774194,1.37741935483871,1.38064516129032,1.37741935483871,1.37741935483871,1.37741935483871,1.39354838709677,1.48387096774194,1.66451612903226,1.83548387096774,1.69032258064516,1.45483870967742,1.39677419354839,1.38709677419355,1.37741935483871,1.3741935483871,1.3741935483871,1.3741935483871,1.37096774193548,1.37096774193548,1.37096774193548,1.3741935483871,1.3741935483871,1.37096774193548,1.37096774193548,1.37741935483871,1.3741935483871,1.37741935483871,1.37741935483871,1.37741935483871,1.37741935483871,1.38709677419355,1.38709677419355,1.39032258064516,1.4,1.40322580645161,1.40967741935484,1.41935483870968,1.43225806451613,1.43225806451613,1.43870967741935,1.43870967741935,1.43870967741935,1.43548387096774,1.4258064516129,1.41612903225806,1.40967741935484,1.40322580645161,1.38709677419355,1.38709677419355,1.38064516129032,1.38064516129032,1.38064516129032,1.3741935483871,1.3741935483871,1.37741935483871,1.3741935483871,1.3741935483871,1.3741935483871,1.38064516129032,1.37741935483871,1.37741935483871,1.38064516129032,1.38064516129032,1.38064516129032,1.38709677419355,1.39032258064516,1.38064516129032,1.38709677419355,1.38387096774194,1.38387096774194,1.38387096774194,1.38387096774194,1.38387096774194,1.38064516129032,1.38064516129032,1.38064516129032,1.38387096774194,1.38064516129032,1.37741935483871,1.38064516129032,1.38064516129032,1.37741935483871,1.38064516129032,1.37741935483871,1.37741935483871,1.38064516129032,1.38064516129032,1.37741935483871,1.38064516129032,1.38387096774194,1.37741935483871,1.38387096774194,1.38064516129032,1.38709677419355,1.37741935483871,1.37741935483871,1.38709677419355,1.38709677419355,1.38709677419355,1.38387096774194,1.38387096774194,1.38387096774194,1.38709677419355,1.40322580645161,1.42258064516129,1.43870967741935,1.43870967741935,1.43225806451613,1.44838709677419,1.45161290322581,1.42903225806452,1.41290322580645,1.39677419354839,1.38387096774194,1.38064516129032,1.38064516129032,1.37096774193548,1.37741935483871,1.37741935483871,1.44516129032258,1.59677419354839,1.76774193548387,1.89032258064516,1.56129032258065,1.41935483870968,1.37741935483871,1.37741935483871,1.3741935483871,1.36774193548387,1.36774193548387,1.36774193548387,1.36451612903226,1.36774193548387,1.36129032258065,1.37741935483871,1.36774193548387,1.36774193548387,1.37741935483871,1.37741935483871,1.3741935483871,1.3741935483871,1.37741935483871,1.37741935483871,1.37741935483871,1.38709677419355,1.39354838709677,1.39677419354839,1.4,1.40645161290323,1.41612903225806,1.42903225806452,1.4258064516129,1.43870967741935,1.43870967741935,1.44193548387097,1.44516129032258,1.4258064516129,1.41935483870968,1.40967741935484,1.4,1.39677419354839,1.39354838709677,1.38709677419355,1.38064516129032,1.38064516129032,1.38064516129032,1.37741935483871,1.38387096774194,1.38709677419355,1.38709677419355,1.37741935483871,1.38709677419355,1.38709677419355,1.37741935483871,1.37741935483871,1.38709677419355,1.38387096774194,1.38387096774194,1.38387096774194,1.38709677419355,1.38709677419355,1.38709677419355,1.38387096774194,1.38387096774194,1.38709677419355,1.38709677419355,1.38709677419355,1.38387096774194,1.38709677419355,1.38064516129032,1.38387096774194,1.38387096774194,1.38387096774194,1.38387096774194,1.38387096774194,1.38709677419355,1.37741935483871,1.37741935483871,1.37741935483871,1.37741935483871,1.37741935483871,1.37741935483871,1.37741935483871,1.38709677419355,1.37741935483871,1.38387096774194,1.38387096774194,1.38387096774194,1.37741935483871,1.37741935483871,1.38387096774194,1.38387096774194,1.37741935483871,1.37741935483871,1.38064516129032,1.38709677419355,1.38709677419355,1.38064516129032,1.38709677419355,1.38709677419355,1.40967741935484,1.41612903225806,1.43225806451613,1.43870967741935,1.43548387096774,1.44838709677419,1.44516129032258,1.42903225806452,1.40645161290323,1.38387096774194,1.37741935483871,1.38064516129032,1.38064516129032,1.37741935483871,1.37741935483871,1.37741935483871,1.44516129032258,1.60645161290323,1.76451612903226,1.86129032258065,1.55806451612903,1.41290322580645,1.38064516129032,1.38387096774194,1.38064516129032,1.36774193548387,1.36774193548387,1.36774193548387,1.36774193548387,1.36774193548387,1.36774193548387,1.36774193548387,1.36774193548387,1.36774193548387,1.3741935483871,1.3741935483871,1.3741935483871,1.37096774193548,1.38387096774194,1.38387096774194,1.38709677419355,1.39032258064516,1.39677419354839,1.40322580645161,1.40967741935484,1.41935483870968,1.42258064516129,1.42903225806452,1.43870967741935,1.44193548387097,1.44838709677419,1.44838709677419,1.44193548387097,1.43225806451613,1.42258064516129,1.41290322580645,1.40322580645161,1.39677419354839,1.39032258064516,1.38064516129032,1.38709677419355,1.37096774193548,1.38064516129032,1.38064516129032,1.38064516129032,1.3741935483871,1.3741935483871,1.3741935483871,1.38064516129032,1.38064516129032,1.37741935483871,1.38387096774194,1.39032258064516,1.38709677419355,1.38387096774194,1.38709677419355,1.38064516129032,1.38064516129032,1.38064516129032,1.38064516129032,1.38709677419355,1.38064516129032,1.38387096774194,1.39032258064516,1.38064516129032,1.38064516129032,1.38387096774194,1.38064516129032,1.3741935483871,1.38064516129032,1.39354838709677,1.37741935483871,1.38064516129032,1.38387096774194,1.37741935483871,1.38387096774194,1.37741935483871,1.37741935483871,1.38387096774194,1.38387096774194,1.38387096774194,1.38064516129032,1.38387096774194,1.38387096774194,1.37741935483871,1.38387096774194,1.38387096774194,1.38387096774194,1.38709677419355,1.38064516129032,1.38709677419355,1.38387096774194,1.38387096774194,1.38064516129032,1.38709677419355,1.39032258064516,1.40322580645161,1.40645161290323,1.42903225806452,1.42903225806452,1.42903225806452,1.45161290322581,1.44193548387097,1.42258064516129,1.41290322580645,1.39032258064516,1.37741935483871,1.37741935483871,1.38709677419355,1.38387096774194,1.38387096774194,1.38709677419355,1.44516129032258,1.6,1.73870967741935,1.81290322580645,1.53225806451613,1.41290322580645,1.39032258064516,1.38064516129032,1.38064516129032,1.3741935483871,1.37096774193548,1.35806451612903,1.3741935483871,1.3741935483871,1.3741935483871,1.37096774193548,1.3741935483871,1.37741935483871,1.3741935483871,1.38064516129032,1.3741935483871,1.38387096774194,1.39032258064516,1.38709677419355,1.38387096774194,1.38387096774194,1.39677419354839,1.4,1.4,1.41612903225806,1.42258064516129,1.43225806451613,1.44193548387097,1.44516129032258,1.45483870967742,1.44516129032258,1.44193548387097,1.43870967741935,1.42903225806452,1.41612903225806,1.40645161290323,1.39677419354839,1.39032258064516,1.38387096774194,1.38064516129032,1.38064516129032,1.37096774193548,1.37741935483871,1.37741935483871,1.37741935483871,1.38387096774194,1.38064516129032,1.37741935483871,1.37741935483871,1.37741935483871,1.37741935483871,1.38064516129032,1.38387096774194,1.37741935483871,1.38709677419355,1.38387096774194,1.38387096774194,1.38387096774194,1.38387096774194,1.38709677419355,1.38387096774194,1.38387096774194,1.38387096774194,1.38387096774194,1.38387096774194,1.37741935483871,1.37741935483871,1.37741935483871,1.37741935483871,1.38064516129032,1.38064516129032,1.37741935483871,1.3741935483871,1.37741935483871,1.3741935483871,1.38387096774194,1.37741935483871,1.37741935483871,1.38064516129032,1.38064516129032,1.38064516129032,1.38387096774194,1.38387096774194,1.38064516129032,1.38064516129032,1.38064516129032,1.38709677419355,1.38064516129032,1.37741935483871,1.38064516129032,1.38387096774194,1.38387096774194,1.39677419354839,1.40967741935484,1.4258064516129,1.43870967741935,1.42903225806452,1.44193548387097,1.44193548387097,1.43548387096774,1.41290322580645,1.39677419354839,1.38064516129032,1.37741935483871,1.38064516129032,1.37741935483871,1.37741935483871,1.3741935483871,1.41935483870968,1.56451612903226,1.74193548387097,1.9,1.58709677419355,1.41935483870968,1.38387096774194,1.38709677419355,1.38064516129032,1.37741935483871,1.36774193548387,1.36774193548387,1.36451612903226,1.36451612903226,1.36774193548387,1.36129032258065,1.3741935483871,1.37096774193548,1.37096774193548,1.37096774193548,1.3741935483871,1.3741935483871,1.37741935483871,1.38387096774194,1.38709677419355,1.38709677419355,1.38709677419355,1.4,1.40967741935484,1.41290322580645,1.41612903225806,1.42903225806452,1.43548387096774,1.44193548387097,1.43870967741935,1.43870967741935,1.43870967741935,1.43548387096774,1.4258064516129,1.41612903225806,1.40645161290323,1.39354838709677,1.38387096774194,1.38709677419355,1.38387096774194,1.38709677419355,1.3741935483871,1.38064516129032,1.37741935483871,1.3741935483871,1.37741935483871,1.3741935483871,1.37741935483871,1.38064516129032,1.38387096774194,1.37741935483871,1.37741935483871,1.38064516129032,1.38064516129032,1.38064516129032,1.38709677419355,1.39032258064516,1.39032258064516,1.38064516129032,1.38709677419355,1.38709677419355,1.38709677419355,1.39032258064516,1.38387096774194,1.39032258064516,1.39032258064516,1.39032258064516,1.38387096774194,1.38387096774194,1.38709677419355,1.39032258064516,1.38709677419355,1.39032258064516,1.38387096774194,1.38387096774194,1.38387096774194,1.38387096774194,1.38387096774194,1.38387096774194,1.38387096774194,1.38709677419355,1.38709677419355,1.39032258064516,1.38387096774194,1.38387096774194,1.37741935483871,1.38709677419355,1.38709677419355,1.39032258064516,1.38387096774194,1.38709677419355,1.39032258064516,1.39032258064516,1.38387096774194,1.38387096774194,1.38387096774194,1.38387096774194,1.38709677419355,1.38709677419355,1.38709677419355,1.38709677419355,1.39032258064516,1.40645161290323,1.42258064516129,1.43548387096774,1.43548387096774,1.43225806451613,1.44516129032258,1.44838709677419,1.43548387096774,1.40967741935484,1.39032258064516,1.37741935483871,1.38387096774194,1.38387096774194,1.37741935483871,1.37741935483871,1.37741935483871,1.44193548387097,1.59032258064516,1.75806451612903,1.88387096774194,1.57096774193548,1.41290322580645,1.38709677419355,1.38064516129032,1.38387096774194,1.36451612903226,1.36774193548387,1.36774193548387,1.36774193548387,1.36774193548387,1.36774193548387,1.36774193548387,1.37741935483871,1.36774193548387,1.37741935483871,1.37096774193548,1.37096774193548,1.37096774193548,1.37741935483871,1.38064516129032,1.38387096774194,1.38387096774194,1.39032258064516,1.4,1.40322580645161,1.40967741935484,1.41935483870968,1.42903225806452,1.43548387096774,1.44193548387097,1.44193548387097,1.44193548387097,1.44193548387097,1.43548387096774,1.42903225806452,1.41290322580645,1.40645161290323,1.40645161290323,1.39354838709677,1.39032258064516,1.38064516129032,1.38064516129032,1.37741935483871,1.37741935483871,1.37741935483871,1.37741935483871,1.37741935483871,1.38064516129032,1.37741935483871,1.39032258064516,1.37741935483871,1.38387096774194,1.38064516129032,1.38064516129032,1.38064516129032,1.38064516129032,1.38064516129032,1.38709677419355,1.38709677419355,1.38064516129032,1.38709677419355,1.38387096774194,1.39032258064516,1.38064516129032,1.38064516129032,1.38387096774194,1.38709677419355,1.3741935483871,1.38387096774194,1.38709677419355,1.38709677419355,1.38387096774194,1.37741935483871,1.38387096774194,1.38709677419355,1.38709677419355,1.38064516129032,1.37741935483871,1.38064516129032,1.38387096774194,1.38064516129032,1.38064516129032,1.38387096774194,1.38387096774194,1.38387096774194,1.38387096774194,1.38387096774194,1.38387096774194,1.38387096774194,1.38387096774194,1.39032258064516,1.38387096774194,1.38064516129032,1.38064516129032,1.38387096774194,1.39032258064516,1.38387096774194,1.39032258064516,1.38387096774194,1.38387096774194,1.38387096774194,1.38387096774194,1.38387096774194,1.39032258064516,1.38709677419355,1.39032258064516,1.40967741935484,1.41935483870968,1.43548387096774,1.44193548387097,1.43548387096774,1.44516129032258,1.44193548387097,1.4258064516129,1.40967741935484,1.39677419354839,1.38709677419355,1.38709677419355,1.38387096774194,1.38387096774194,1.38387096774194,1.38387096774194,1.47096774193548,1.61612903225806,1.76774193548387,1.78387096774194,1.52903225806452,1.40967741935484,1.38387096774194,1.38709677419355,1.3741935483871,1.37096774193548,1.37096774193548,1.37096774193548,1.3741935483871,1.37096774193548,1.37741935483871,1.37741935483871,1.37741935483871,1.37741935483871,1.37741935483871,1.38387096774194,1.38064516129032,1.38064516129032,1.37741935483871,1.38709677419355,1.38709677419355,1.39354838709677,1.39032258064516,1.4,1.40967741935484,1.41290322580645,1.42903225806452,1.43548387096774,1.43548387096774,1.43870967741935,1.43870967741935,1.44516129032258,1.43548387096774,1.43548387096774,1.42258064516129,1.41612903225806,1.40322580645161,1.39677419354839,1.39677419354839,1.39032258064516,1.38064516129032,1.3741935483871,1.38064516129032,1.3741935483871,1.36774193548387,1.37741935483871,1.37741935483871,1.38064516129032,1.38064516129032,1.3741935483871,1.3741935483871,1.36774193548387,1.39032258064516,1.38709677419355,1.38064516129032,1.38064516129032,1.38064516129032,1.38387096774194,1.38387096774194,1.38387096774194,1.38064516129032,1.38709677419355,1.38387096774194,1.38709677419355,1.38064516129032,1.38709677419355,1.38387096774194,1.38387096774194,1.38064516129032,1.38064516129032,1.3741935483871,1.38064516129032,1.39032258064516,1.38064516129032,1.38064516129032,1.38064516129032,1.38709677419355,1.38064516129032,1.39032258064516,1.38709677419355,1.37741935483871,1.37741935483871,1.38709677419355,1.39032258064516,1.38709677419355,1.38709677419355,1.37741935483871,1.38387096774194,1.38709677419355,1.38387096774194,1.37741935483871,1.37741935483871,1.38709677419355,1.38387096774194,1.38387096774194,1.39354838709677,1.41290322580645,1.42258064516129,1.43225806451613,1.43225806451613,1.43548387096774,1.44193548387097,1.43225806451613,1.41290322580645,1.39032258064516,1.38709677419355,1.37096774193548,1.37741935483871,1.37741935483871,1.37741935483871,1.37741935483871,1.40967741935484,1.52258064516129,1.70645161290323,1.85806451612903,1.6,1.41612903225806,1.38709677419355,1.38709677419355,1.38387096774194,1.3741935483871,1.3741935483871,1.37096774193548,1.37096774193548,1.37096774193548,1.36451612903226,1.37096774193548,1.38064516129032,1.37741935483871,1.38064516129032,1.38064516129032,1.38064516129032,1.38064516129032,1.38387096774194,1.38709677419355,1.38387096774194,1.38709677419355,1.39677419354839,1.40322580645161,1.40322580645161,1.41290322580645,1.42258064516129,1.4258064516129,1.44193548387097,1.43225806451613,1.44838709677419,1.44838709677419,1.44516129032258,1.44193548387097,1.43225806451613,1.41935483870968,1.41935483870968,1.41290322580645,1.39677419354839,1.39354838709677,1.39032258064516,1.39032258064516,1.38709677419355,1.38064516129032,1.37741935483871,1.3741935483871,1.3741935483871,1.37741935483871,1.3741935483871,1.37741935483871,1.3741935483871,1.38387096774194,1.38387096774194,1.3741935483871,1.38064516129032,1.38387096774194,1.38709677419355,1.38387096774194,1.38709677419355,1.38387096774194,1.38387096774194,1.38387096774194,1.38064516129032,1.37741935483871,1.38387096774194,1.37741935483871,1.37741935483871,1.38064516129032,1.38064516129032,1.37741935483871,1.3741935483871,1.37741935483871,1.37741935483871,1.37741935483871,1.38387096774194,1.37741935483871,1.38064516129032,1.37741935483871,1.37741935483871,1.38064516129032,1.37741935483871,1.37741935483871,1.37741935483871,1.37741935483871,1.37741935483871,1.37741935483871,1.37741935483871,1.37741935483871,1.38387096774194,1.37741935483871,1.37741935483871,1.37741935483871,1.38709677419355,1.38709677419355,1.37741935483871,1.38387096774194,1.38064516129032,1.38709677419355,1.40322580645161,1.41612903225806,1.43225806451613,1.43870967741935,1.42903225806452,1.45483870967742,1.45161290322581,1.43870967741935,1.41612903225806,1.4,1.38709677419355,1.38064516129032,1.38387096774194,1.38064516129032,1.38064516129032,1.38064516129032,1.4258064516129,1.55806451612903,1.74516129032258,1.91935483870968,1.61290322580645,1.4258064516129,1.38709677419355,1.38064516129032,1.38387096774194,1.3741935483871,1.37741935483871,1.3741935483871,1.3741935483871,1.3741935483871,1.37096774193548,1.37741935483871,1.37741935483871,1.37741935483871,1.3741935483871,1.37741935483871,1.3741935483871,1.37741935483871,1.37741935483871,1.38064516129032,1.38709677419355,1.38387096774194,1.38709677419355,1.39677419354839,1.4,1.40322580645161,1.41935483870968,1.4258064516129,1.43225806451613,1.43548387096774,1.44193548387097,1.44838709677419,1.44193548387097,1.43225806451613,1.42903225806452,1.40967741935484,1.40967741935484,1.40322580645161,1.39677419354839,1.39032258064516,1.38387096774194,1.38387096774194,1.38387096774194,1.38064516129032,1.38064516129032,1.38387096774194,1.38387096774194,1.38387096774194,1.38387096774194,1.38064516129032,1.38064516129032,1.38064516129032,1.38709677419355,1.38709677419355,1.38387096774194,1.38387096774194,1.38709677419355,1.38709677419355,1.38709677419355,1.38387096774194,1.37741935483871,1.38709677419355,1.38709677419355,1.38709677419355,1.38064516129032,1.38709677419355,1.38064516129032,1.38387096774194,1.38064516129032,1.38387096774194,1.38064516129032,1.38387096774194,1.38387096774194,1.38064516129032,1.38387096774194,1.38064516129032,1.38064516129032,1.38387096774194,1.38387096774194,1.37741935483871,1.38064516129032,1.38387096774194,1.38387096774194,1.38387096774194,1.38387096774194,1.38064516129032,1.3741935483871,1.38387096774194,1.37741935483871,1.3741935483871,1.37741935483871,1.3741935483871,1.37741935483871,1.37741935483871,1.3741935483871,1.37741935483871,1.3741935483871,1.37741935483871,1.39032258064516,1.4,1.41290322580645,1.43548387096774,1.43225806451613,1.43225806451613,1.44193548387097,1.44193548387097,1.4258064516129,1.40322580645161,1.38064516129032,1.36774193548387,1.38064516129032,1.37741935483871,1.38064516129032,1.37096774193548,1.38064516129032,1.46129032258065,1.63225806451613,1.79354838709677,1.80645161290323,1.5258064516129,1.40967741935484,1.3741935483871,1.38064516129032,1.36774193548387,1.36774193548387,1.36451612903226,1.36774193548387,1.36451612903226,1.36451612903226,1.36774193548387,1.37096774193548,1.36451612903226,1.36774193548387,1.37096774193548,1.36451612903226,1.36451612903226,1.37096774193548,1.38064516129032,1.37096774193548,1.38064516129032,1.38387096774194,1.39032258064516,1.4,1.4,1.41290322580645,1.41935483870968,1.4258064516129,1.43548387096774,1.44193548387097,1.44193548387097,1.43225806451613,1.43548387096774,1.4258064516129,1.4258064516129,1.41290322580645,1.39677419354839,1.39677419354839,1.38709677419355,1.39032258064516,1.38387096774194,1.38387096774194,1.38064516129032,1.37741935483871,1.38064516129032,1.37741935483871,1.38064516129032,1.38709677419355,1.38387096774194,1.38709677419355,1.38709677419355,1.38064516129032,1.39677419354839,1.38709677419355,1.39032258064516,1.39032258064516,1.39354838709677,1.39032258064516,1.4,1.4,1.4,1.39032258064516,1.39354838709677,1.39032258064516,1.39354838709677,1.39677419354839,1.39677419354839,1.39677419354839,1.39677419354839,1.4,1.4,1.4,1.4,1.40645161290323,1.40645161290323,1.40322580645161,1.40967741935484,1.40645161290323,1.40645161290323,1.41935483870968,1.41612903225806,1.40967741935484,1.41612903225806,1.42258064516129
1.38387096774194,1.38387096774194,1.38709677419355,1.39032258064516,1.39354838709677,1.39677419354839,1.39677419354839,1.40967741935484,1.41290322580645,1.41935483870968,1.42903225806452,1.43870967741935,1.45161290322581,1.4741935483871,1.48064516129032,1.49032258064516,1.49354838709677,1.49677419354839,1.49354838709677,1.4741935483871,1.45806451612903,1.43548387096774,1.4258064516129,1.40967741935484,1.4,1.39354838709677,1.38387096774194,1.38064516129032,1.37741935483871,1.37741935483871,1.37741935483871,1.3741935483871,1.37741935483871,1.3741935483871,1.37096774193548,1.37741935483871,1.37096774193548,1.37096774193548,1.37096774193548,1.37741935483871,1.37741935483871,1.37741935483871,1.38064516129032,1.37741935483871,1.37741935483871,1.38387096774194,1.37741935483871,1.37741935483871,1.37741935483871,1.37741935483871,1.37096774193548,1.3741935483871,1.37096774193548,1.38064516129032,1.38064516129032,1.3741935483871,1.3741935483871,1.38064516129032,1.38387096774194,1.3741935483871,1.38064516129032,1.38387096774194,1.38709677419355,1.38387096774194,1.38709677419355,1.38387096774194,1.38064516129032,1.38387096774194,1.38064516129032,1.38064516129032,1.38064516129032,1.37741935483871,1.38064516129032,1.38064516129032,1.38387096774194,1.37741935483871,1.38387096774194,1.38064516129032,1.3741935483871,1.38064516129032,1.3741935483871,1.38387096774194,1.38064516129032,1.38064516129032,1.3741935483871,1.38064516129032,1.37741935483871,1.38064516129032,1.39032258064516,1.41935483870968,1.4258064516129,1.4258064516129,1.4258064516129,1.42258064516129,1.43225806451613,1.42903225806452,1.40967741935484,1.39677419354839,1.38064516129032,1.3741935483871,1.37741935483871,1.3741935483871,1.38064516129032,1.39677419354839,1.49354838709677,1.64516129032258,1.73870967741935,1.57741935483871,1.36129032258065,1.34838709677419,1.36129032258065,1.37096774193548,1.3741935483871,1.37096774193548,1.3741935483871,1.3741935483871,1.38064516129032,1.37741935483871,1.3741935483871,1.37096774193548,1.37096774193548,1.37741935483871,1.38387096774194,1.38709677419355,1.39354838709677,1.39677419354839,1.39677419354839,1.40322580645161,1.40967741935484,1.40967741935484,1.42258064516129,1.4258064516129,1.43870967741935,1.44838709677419,1.45483870967742,1.47096774193548,1.48709677419355,1.47741935483871,1.49032258064516,1.48709677419355,1.48709677419355,1.47096774193548,1.45483870967742,1.44193548387097,1.41935483870968,1.40967741935484,1.4,1.39032258064516,1.38709677419355,1.38064516129032,1.38064516129032,1.38064516129032,1.38064516129032,1.37741935483871,1.3741935483871,1.38064516129032,1.38064516129032,1.37741935483871,1.37741935483871,1.37741935483871,1.38064516129032,1.37741935483871,1.38064516129032,1.38064516129032,1.38387096774194,1.38064516129032,1.38064516129032,1.38387096774194,1.38064516129032,1.38064516129032,1.38387096774194,1.38709677419355,1.38064516129032,1.38064516129032,1.38064516129032,1.38064516129032,1.38709677419355,1.38387096774194,1.38709677419355,1.38709677419355,1.38709677419355,1.38709677419355,1.38709677419355,1.38387096774194,1.39677419354839,1.38709677419355,1.38709677419355,1.38709677419355,1.38709677419355,1.39677419354839,1.39032258064516,1.38709677419355,1.38709677419355,1.38709677419355,1.39032258064516,1.38709677419355,1.39032258064516,1.38709677419355,1.39032258064516,1.38709677419355,1.38709677419355,1.38387096774194,1.38709677419355,1.38709677419355,1.38709677419355,1.38709677419355,1.38709677419355,1.38709677419355,1.38709677419355,1.38709677419355,1.38709677419355,1.38709677419355,1.38709677419355,1.38709677419355,1.38709677419355,1.38709677419355,1.38709677419355,1.4,1.42903225806452,1.4258064516129,1.43225806451613,1.43225806451613,1.43225806451613,1.44193548387097,1.43225806451613,1.41290322580645,1.40322580645161,1.38709677419355,1.38064516129032,1.38387096774194,1.38709677419355,1.38064516129032,1.40322580645161,1.49354838709677,1.65161290322581,1.74193548387097,1.58709677419355,1.36774193548387,1.35161290322581,1.36451612903226,1.37741935483871,1.38064516129032,1.37096774193548,1.37096774193548,1.37096774193548,1.37741935483871,1.37741935483871,1.37096774193548,1.36774193548387,1.37096774193548,1.37096774193548,1.38064516129032,1.38064516129032,1.38387096774194,1.38709677419355,1.39032258064516,1.39354838709677,1.40322580645161,1.40322580645161,1.41612903225806,1.41935483870968,1.43225806451613,1.43870967741935,1.45483870967742,1.46451612903226,1.47741935483871,1.48387096774194,1.48387096774194,1.48709677419355,1.48064516129032,1.46451612903226,1.44516129032258,1.43225806451613,1.41612903225806,1.40322580645161,1.39354838709677,1.38064516129032,1.37741935483871,1.3741935483871,1.3741935483871,1.37741935483871,1.37096774193548,1.37741935483871,1.3741935483871,1.3741935483871,1.3741935483871,1.3741935483871,1.3741935483871,1.37741935483871,1.37741935483871,1.37741935483871,1.37741935483871,1.38064516129032,1.38064516129032,1.38064516129032,1.3741935483871,1.3741935483871,1.3741935483871,1.3741935483871,1.38709677419355,1.37741935483871,1.38064516129032,1.38064516129032,1.37741935483871,1.37741935483871,1.3741935483871,1.3741935483871,1.38064516129032,1.38064516129032,1.3741935483871,1.37741935483871,1.38064516129032,1.38064516129032,1.38064516129032,1.38064516129032,1.38064516129032,1.37741935483871,1.37741935483871,1.38064516129032,1.38387096774194,1.38064516129032,1.37741935483871,1.38387096774194,1.38387096774194,1.39032258064516,1.39354838709677,1.38709677419355,1.39032258064516,1.38387096774194,1.38387096774194,1.38387096774194,1.38709677419355,1.38387096774194,1.38387096774194,1.38387096774194,1.38064516129032,1.38064516129032,1.38387096774194,1.38387096774194,1.38387096774194,1.38387096774194,1.38387096774194,1.37741935483871,1.38387096774194,1.38064516129032,1.38064516129032,1.40322580645161,1.41935483870968,1.42903225806452,1.42903225806452,1.42258064516129,1.43870967741935,1.44516129032258,1.41935483870968,1.40967741935484,1.39354838709677,1.37741935483871,1.38064516129032,1.38709677419355,1.38387096774194,1.39032258064516,1.45483870967742,1.58064516129032,1.66774193548387,1.71290322580645,1.43225806451613,1.33548387096774,1.35806451612903,1.3741935483871,1.37741935483871,1.37741935483871,1.37741935483871,1.37741935483871,1.3741935483871,1.38064516129032,1.37741935483871,1.36774193548387,1.38064516129032,1.37096774193548,1.36774193548387,1.38387096774194,1.38387096774194,1.39032258064516,1.39354838709677,1.39677419354839,1.4,1.40322580645161,1.41290322580645,1.4258064516129,1.43548387096774,1.44193548387097,1.45161290322581,1.46451612903226,1.47096774193548,1.48709677419355,1.49677419354839,1.49354838709677,1.48709677419355,1.48709677419355,1.46451612903226,1.44838709677419,1.4258064516129,1.41612903225806,1.40967741935484,1.39354838709677,1.39354838709677,1.38709677419355,1.38064516129032,1.3741935483871,1.38064516129032,1.38064516129032,1.38387096774194,1.38064516129032,1.37741935483871,1.37741935483871,1.37741935483871,1.37741935483871,1.38387096774194,1.38387096774194,1.38709677419355,1.38709677419355,1.39354838709677,1.39354838709677,1.38709677419355,1.38709677419355,1.39032258064516,1.39354838709677,1.38709677419355,1.38709677419355,1.39032258064516,1.37741935483871,1.38709677419355,1.38709677419355,1.38709677419355,1.38709677419355,1.38064516129032,1.38709677419355,1.38064516129032,1.39354838709677,1.38709677419355,1.38709677419355,1.38709677419355,1.39032258064516,1.37741935483871,1.38064516129032,1.38709677419355,1.38709677419355,1.37741935483871,1.38709677419355,1.38064516129032,1.38709677419355,1.38709677419355,1.38709677419355,1.38064516129032,1.38709677419355,1.38064516129032,1.38387096774194,1.37741935483871,1.38709677419355,1.38709677419355,1.4,1.41612903225806,1.43225806451613,1.43225806451613,1.41935483870968,1.43225806451613,1.43870967741935,1.41612903225806,1.40322580645161,1.38064516129032,1.37096774193548,1.37741935483871,1.37741935483871,1.37741935483871,1.38064516129032,1.43225806451613,1.56129032258065,1.65161290322581,1.69354838709677,1.4258064516129,1.33870967741935,1.35483870967742,1.36451612903226,1.3741935483871,1.3741935483871,1.37741935483871,1.3741935483871,1.3741935483871,1.3741935483871,1.37096774193548,1.37096774193548,1.3741935483871,1.36774193548387,1.36774193548387,1.37096774193548,1.38387096774194,1.38387096774194,1.38387096774194,1.39032258064516,1.39032258064516,1.4,1.4,1.40967741935484,1.41290322580645,1.42903225806452,1.43548387096774,1.45161290322581,1.46774193548387,1.46774193548387,1.47096774193548,1.4741935483871,1.46774193548387,1.46129032258065,1.45483870967742,1.43548387096774,1.41612903225806,1.39677419354839,1.38709677419355,1.37741935483871,1.37096774193548,1.37096774193548,1.36451612903226,1.36451612903226,1.36451612903226,1.36451612903226,1.36774193548387,1.3741935483871,1.37096774193548,1.37096774193548,1.36451612903226,1.36774193548387,1.3741935483871,1.37741935483871,1.3741935483871,1.3741935483871,1.38064516129032,1.37741935483871,1.38387096774194,1.38709677419355,1.38064516129032,1.38387096774194,1.37741935483871,1.38064516129032,1.37741935483871,1.38064516129032,1.38387096774194,1.38387096774194,1.38064516129032,1.38387096774194,1.38387096774194,1.38387096774194,1.38387096774194,1.38709677419355,1.38064516129032,1.38064516129032,1.39032258064516,1.37741935483871,1.38709677419355,1.39032258064516,1.38709677419355,1.38709677419355,1.38709677419355,1.38709677419355,1.38709677419355,1.38709677419355,1.38709677419355,1.38709677419355,1.38709677419355,1.39032258064516,1.38064516129032,1.38387096774194,1.38709677419355,1.38064516129032,1.38709677419355,1.39032258064516,1.38709677419355,1.38387096774194,1.39032258064516,1.40645161290323,1.41612903225806,1.43548387096774,1.45161290322581,1.44516129032258,1.44516129032258,1.44838709677419,1.44516129032258,1.41935483870968,1.40322580645161,1.38387096774194,1.37741935483871,1.39354838709677,1.37741935483871,1.38064516129032,1.40967741935484,1.51935483870968,1.66774193548387,1.77741935483871,1.51612903225806,1.35161290322581,1.35161290322581,1.38064516129032,1.38709677419355,1.38064516129032,1.38387096774194,1.38064516129032,1.38064516129032,1.38387096774194,1.38064516129032,1.37741935483871,1.3741935483871,1.38064516129032,1.38387096774194,1.39354838709677,1.39354838709677,1.39677419354839,1.39677419354839,1.39677419354839,1.39677419354839,1.40645161290323,1.40967741935484,1.41290322580645,1.4258064516129,1.43225806451613,1.44838709677419,1.45483870967742,1.46774193548387,1.47096774193548,1.47741935483871,1.48387096774194,1.49032258064516,1.4741935483871,1.46451612903226,1.44838709677419,1.43225806451613,1.41290322580645,1.4,1.4,1.38709677419355,1.38387096774194,1.37741935483871,1.37741935483871,1.38064516129032,1.38064516129032,1.37741935483871,1.37741935483871,1.37741935483871,1.37741935483871,1.38064516129032,1.38064516129032,1.37741935483871,1.38064516129032,1.38709677419355,1.38709677419355,1.38709677419355,1.38709677419355,1.38709677419355,1.38064516129032,1.37741935483871,1.37741935483871,1.38064516129032,1.37741935483871,1.37741935483871,1.37741935483871,1.37741935483871,1.37741935483871,1.38709677419355,1.38709677419355,1.37741935483871,1.38387096774194,1.38709677419355,1.37741935483871,1.38387096774194,1.38709677419355,1.37741935483871,1.38709677419355,1.38709677419355,1.37741935483871,1.38709677419355,1.37741935483871,1.37741935483871,1.38064516129032,1.37741935483871,1.38709677419355,1.38064516129032,1.38064516129032,1.37741935483871,1.38064516129032,1.37741935483871,1.37741935483871,1.3741935483871,1.38387096774194,1.37741935483871,1.37741935483871,1.37741935483871,1.38387096774194,1.38387096774194,1.38064516129032,1.37741935483871,1.38064516129032,1.37741935483871,1.3741935483871,1.37741935483871,1.40967741935484,1.41935483870968,1.41935483870968,1.4258064516129,1.42258064516129,1.42258064516129,1.43548387096774,1.40645161290323,1.39677419354839,1.3741935483871,1.36451612903226,1.3741935483871,1.36774193548387,1.36774193548387,1.39354838709677,1.49354838709677,1.64838709677419,1.74838709677419,1.54516129032258,1.33548387096774,1.34516129032258,1.36129032258065,1.36451612903226,1.36129032258065,1.36451612903226,1.36774193548387,1.36451612903226,1.36774193548387,1.36774193548387,1.36774193548387,1.37096774193548,1.37096774193548,1.3741935483871,1.3741935483871,1.38709677419355,1.39354838709677,1.39354838709677,1.39677419354839,1.40322580645161,1.40967741935484,1.41612903225806,1.41612903225806,1.42258064516129,1.42903225806452,1.44516129032258,1.45483870967742,1.47096774193548,1.47741935483871,1.48387096774194,1.49032258064516,1.49032258064516,1.47741935483871,1.46451612903226,1.45483870967742,1.43548387096774,1.41935483870968,1.41290322580645,1.39677419354839,1.39032258064516,1.38387096774194,1.37741935483871,1.38064516129032,1.38387096774194,1.38387096774194,1.38709677419355,1.38709677419355,1.38709677419355,1.38387096774194,1.38064516129032,1.38064516129032,1.38387096774194,1.38387096774194,1.38709677419355,1.39354838709677,1.38709677419355,1.38387096774194,1.38709677419355,1.38709677419355,1.38709677419355,1.39354838709677,1.38387096774194,1.39032258064516,1.38064516129032,1.38387096774194,1.38387096774194,1.38387096774194,1.38387096774194,1.38387096774194,1.38387096774194,1.38387096774194,1.38387096774194,1.38387096774194,1.38064516129032,1.38709677419355,1.39032258064516,1.38387096774194,1.38709677419355,1.38709677419355,1.39032258064516,1.39032258064516,1.38709677419355,1.38709677419355,1.39032258064516,1.38709677419355,1.38064516129032,1.38064516129032,1.39032258064516,1.38387096774194,1.39032258064516,1.39032258064516,1.38387096774194,1.38064516129032,1.37741935483871,1.38064516129032,1.38387096774194,1.38709677419355,1.38709677419355,1.38709677419355,1.38709677419355,1.38064516129032,1.39032258064516,1.38709677419355,1.38387096774194,1.38387096774194,1.38709677419355,1.38387096774194,1.41612903225806,1.4258064516129,1.42903225806452,1.4258064516129,1.42258064516129,1.43870967741935,1.43225806451613,1.40967741935484,1.40322580645161,1.38064516129032,1.37096774193548,1.38064516129032,1.38064516129032,1.38387096774194,1.39032258064516,1.4741935483871,1.61290322580645,1.65806451612903,1.64193548387097,1.40967741935484,1.36129032258065,1.36129032258065,1.37096774193548,1.38064516129032,1.38064516129032,1.37741935483871,1.3741935483871,1.38064516129032,1.38064516129032,1.38064516129032,1.3741935483871,1.37741935483871,1.38064516129032,1.38064516129032,1.38064516129032,1.39354838709677,1.39354838709677,1.39677419354839,1.39677419354839,1.40322580645161,1.40645161290323,1.41612903225806,1.4258064516129,1.43870967741935,1.44193548387097,1.45806451612903,1.46451612903226,1.47741935483871,1.48709677419355,1.49032258064516,1.49354838709677,1.48709677419355,1.48064516129032,1.46129032258065,1.43870967741935,1.42258064516129,1.40645161290323,1.39677419354839,1.39032258064516,1.38387096774194,1.38064516129032,1.38387096774194,1.38064516129032,1.37741935483871,1.37741935483871,1.37741935483871,1.38064516129032,1.38064516129032,1.37741935483871,1.37741935483871,1.37741935483871,1.38387096774194,1.38387096774194,1.39032258064516,1.39032258064516,1.39032258064516,1.38709677419355,1.38709677419355,1.38709677419355,1.38064516129032,1.38387096774194,1.37741935483871,1.38709677419355,1.37741935483871,1.38709677419355,1.38387096774194,1.38064516129032,1.38064516129032,1.38064516129032,1.38387096774194,1.38064516129032,1.38064516129032,1.38064516129032,1.38064516129032,1.38064516129032,1.38387096774194,1.38064516129032,1.38064516129032,1.38064516129032,1.38064516129032,1.37741935483871,1.3741935483871,1.37741935483871,1.37741935483871,1.3741935483871,1.3741935483871,1.37741935483871,1.37096774193548,1.3741935483871,1.3741935483871,1.37096774193548,1.37096774193548,1.37096774193548,1.3741935483871,1.3741935483871,1.3741935483871,1.37096774193548,1.38064516129032,1.37741935483871,1.37741935483871,1.37741935483871,1.37741935483871,1.39032258064516,1.41290322580645,1.41290322580645,1.41935483870968,1.41935483870968,1.4258064516129,1.42903225806452,1.41935483870968,1.40322580645161,1.38709677419355,1.37741935483871,1.37096774193548,1.38064516129032,1.37741935483871,1.37741935483871,1.40645161290323,1.51290322580645,1.66774193548387,1.77096774193548,1.51290322580645,1.34516129032258,1.34838709677419,1.37096774193548,1.37741935483871,1.37096774193548,1.3741935483871,1.37096774193548,1.37096774193548,1.37741935483871,1.37741935483871,1.3741935483871,1.37096774193548,1.37096774193548,1.37741935483871,1.38709677419355,1.38709677419355,1.39354838709677,1.39354838709677,1.4,1.39354838709677,1.4,1.41290322580645,1.41612903225806,1.43225806451613,1.43548387096774,1.44516129032258,1.45806451612903,1.47096774193548,1.48387096774194,1.49032258064516,1.49354838709677,1.48709677419355,1.48709677419355,1.47096774193548,1.46129032258065,1.43870967741935,1.42258064516129,1.40645161290323,1.39677419354839,1.38709677419355,1.38387096774194,1.38387096774194,1.38064516129032,1.38064516129032,1.38387096774194,1.38064516129032,1.38709677419355,1.39032258064516,1.38709677419355,1.38387096774194,1.38387096774194,1.38709677419355,1.39032258064516,1.38709677419355,1.39032258064516,1.39032258064516,1.39032258064516,1.39032258064516,1.39032258064516,1.38709677419355,1.38387096774194,1.38387096774194,1.38387096774194,1.38387096774194,1.38709677419355,1.38064516129032,1.38064516129032,1.38064516129032,1.38064516129032,1.39032258064516,1.39032258064516,1.38387096774194,1.38709677419355,1.38064516129032,1.38064516129032,1.37741935483871,1.38387096774194,1.38709677419355,1.38709677419355,1.38387096774194,1.38387096774194,1.38064516129032,1.38387096774194,1.38064516129032,1.38709677419355,1.38387096774194,1.38709677419355,1.37741935483871,1.37741935483871,1.38709677419355,1.37741935483871,1.37741935483871,1.38064516129032,1.37741935483871,1.38387096774194,1.38387096774194,1.37741935483871,1.37741935483871,1.37741935483871,1.38387096774194,1.37741935483871,1.37741935483871,1.37741935483871,1.38064516129032,1.38387096774194,1.37741935483871,1.38387096774194,1.39677419354839,1.41290322580645,1.41612903225806,1.41935483870968,1.41935483870968,1.43548387096774,1.43548387096774,1.41935483870968,1.40322580645161,1.39032258064516,1.37741935483871,1.37096774193548,1.3741935483871,1.3741935483871,1.38064516129032,1.43225806451613,1.56774193548387,1.68709677419355,1.77741935483871,1.46451612903226,1.35483870967742,1.35806451612903,1.36774193548387,1.38064516129032,1.38064516129032,1.38064516129032,1.3741935483871,1.3741935483871,1.3741935483871,1.3741935483871,1.37096774193548,1.3741935483871,1.3741935483871,1.37741935483871,1.37741935483871,1.38387096774194,1.38387096774194,1.39032258064516,1.39032258064516,1.39677419354839,1.4,1.40645161290323,1.41935483870968,1.4258064516129,1.43225806451613,1.44838709677419,1.45806451612903,1.47096774193548,1.47741935483871,1.48064516129032,1.48387096774194,1.48387096774194,1.4741935483871,1.46451612903226,1.44838709677419,1.42903225806452,1.41290322580645,1.40322580645161,1.39354838709677,1.39032258064516,1.38387096774194,1.38387096774194,1.3741935483871,1.3741935483871,1.3741935483871,1.3741935483871,1.37096774193548,1.3741935483871,1.3741935483871,1.3741935483871,1.37741935483871,1.3741935483871,1.38064516129032,1.38064516129032,1.38064516129032,1.38064516129032,1.38387096774194,1.38709677419355,1.38387096774194,1.39354838709677,1.39354838709677,1.38709677419355,1.38387096774194,1.38709677419355,1.39032258064516,1.38709677419355,1.38064516129032,1.38387096774194,1.38709677419355,1.38709677419355,1.39032258064516,1.39032258064516,1.39354838709677,1.39032258064516,1.38709677419355,1.39354838709677,1.38709677419355,1.38709677419355,1.39354838709677,1.38709677419355,1.38387096774194,1.38709677419355,1.38709677419355,1.38709677419355,1.39354838709677,1.39354838709677,1.39354838709677,1.39354838709677,1.39354838709677,1.39354838709677,1.39354838709677,1.39677419354839,1.39354838709677,1.39032258064516,1.38387096774194,1.39354838709677,1.38709677419355,1.39354838709677,1.38709677419355,1.39354838709677,1.39032258064516,1.38709677419355,1.39032258064516,1.38387096774194,1.38709677419355,1.38387096774194,1.38709677419355,1.39032258064516,1.38709677419355,1.39677419354839,1.41935483870968,1.42903225806452,1.43225806451613,1.43870967741935,1.43225806451613,1.44516129032258,1.43548387096774,1.41935483870968,1.40322580645161,1.38064516129032,1.38064516129032,1.39354838709677,1.38064516129032,1.38387096774194,1.40967741935484,1.50322580645161,1.63548387096774,1.72258064516129,1.50645161290323,1.33548387096774,1.33225806451613,1.3741935483871,1.36774193548387,1.37741935483871,1.3741935483871,1.37741935483871,1.37741935483871,1.38387096774194,1.3741935483871,1.37096774193548,1.37741935483871,1.3741935483871,1.37741935483871,1.37741935483871,1.38064516129032,1.39032258064516,1.39032258064516,1.38709677419355,1.39032258064516,1.39677419354839,1.40322580645161,1.40322580645161,1.40967741935484
1.36774193548387,1.36774193548387,1.36451612903226,1.36129032258065,1.35806451612903,1.36129032258065,1.36129032258065,1.36451612903226,1.36774193548387,1.36451612903226,1.36774193548387,1.37096774193548,1.37741935483871,1.37741935483871,1.37096774193548,1.37096774193548,1.37096774193548,1.37096774193548,1.37096774193548,1.3741935483871,1.3741935483871,1.3741935483871,1.37096774193548,1.3741935483871,1.36451612903226,1.37096774193548,1.3741935483871,1.36451612903226,1.3741935483871,1.37096774193548,1.37096774193548,1.38064516129032,1.38064516129032,1.38064516129032,1.38387096774194,1.38387096774194,1.38064516129032,1.38387096774194,1.38064516129032,1.39032258064516,1.40322580645161,1.41935483870968,1.43225806451613,1.44516129032258,1.43870967741935,1.45483870967742,1.44838709677419,1.41935483870968,1.40645161290323,1.38709677419355,1.39032258064516,1.39032258064516,1.38064516129032,1.38064516129032,1.38064516129032,1.39354838709677,1.50322580645161,1.7258064516129,1.90645161290323,1.77741935483871,1.5258064516129,1.42903225806452,1.40645161290323,1.39032258064516,1.39032258064516,1.37096774193548,1.37741935483871,1.37096774193548,1.3741935483871,1.3741935483871,1.38064516129032,1.36774193548387,1.36774193548387,1.36774193548387,1.36774193548387,1.36774193548387,1.37096774193548,1.37096774193548,1.37096774193548,1.37741935483871,1.37741935483871,1.37741935483871,1.37741935483871,1.37741935483871,1.38064516129032,1.39032258064516,1.39677419354839,1.4,1.40967741935484,1.41290322580645,1.41935483870968,1.42258064516129,1.42258064516129,1.41935483870968,1.41612903225806,1.40645161290323,1.39677419354839,1.38709677419355,1.38709677419355,1.38387096774194,1.38064516129032,1.37741935483871,1.37741935483871,1.37741935483871,1.37741935483871,1.37096774193548,1.37096774193548,1.37096774193548,1.37096774193548,1.37096774193548,1.37096774193548,1.36129032258065,1.37096774193548,1.38064516129032,1.37741935483871,1.37741935483871,1.38064516129032,1.37741935483871,1.38064516129032,1.38709677419355,1.39032258064516,1.38709677419355,1.38709677419355,1.39354838709677,1.38709677419355,1.38709677419355,1.38709677419355,1.38709677419355,1.38709677419355,1.38709677419355,1.38709677419355,1.38709677419355,1.38709677419355,1.38709677419355,1.38709677419355,1.37741935483871,1.38709677419355,1.38709677419355,1.38387096774194,1.38709677419355,1.38387096774194,1.39032258064516,1.38709677419355,1.37741935483871,1.38709677419355,1.38387096774194,1.38387096774194,1.38387096774194,1.39354838709677,1.41612903225806,1.42258064516129,1.42903225806452,1.43870967741935,1.44516129032258,1.43870967741935,1.41935483870968,1.41290322580645,1.39032258064516,1.38709677419355,1.39354838709677,1.38709677419355,1.38709677419355,1.38387096774194,1.38387096774194,1.48709677419355,1.69032258064516,1.87096774193548,1.83225806451613,1.58709677419355,1.43225806451613,1.40967741935484,1.38709677419355,1.38387096774194,1.37096774193548,1.3741935483871,1.36451612903226,1.36774193548387,1.36451612903226,1.36774193548387,1.37096774193548,1.36774193548387,1.36451612903226,1.36451612903226,1.36451612903226,1.37096774193548,1.36451612903226,1.36774193548387,1.36774193548387,1.37096774193548,1.37096774193548,1.3741935483871,1.3741935483871,1.37741935483871,1.38709677419355,1.38709677419355,1.4,1.4,1.40967741935484,1.41935483870968,1.42258064516129,1.42258064516129,1.4258064516129,1.41612903225806,1.40645161290323,1.4,1.39354838709677,1.39677419354839,1.38387096774194,1.38387096774194,1.38387096774194,1.38387096774194,1.38064516129032,1.37741935483871,1.38064516129032,1.38064516129032,1.37096774193548,1.38064516129032,1.37741935483871,1.38064516129032,1.37741935483871,1.3741935483871,1.37741935483871,1.3741935483871,1.37741935483871,1.38064516129032,1.38387096774194,1.38387096774194,1.38387096774194,1.38387096774194,1.39032258064516,1.38387096774194,1.39032258064516,1.38709677419355,1.38387096774194,1.38387096774194,1.38387096774194,1.37741935483871,1.38709677419355,1.38387096774194,1.37741935483871,1.38064516129032,1.38387096774194,1.38387096774194,1.38387096774194,1.38709677419355,1.38709677419355,1.38387096774194,1.38387096774194,1.38709677419355,1.38064516129032,1.38387096774194,1.38709677419355,1.38387096774194,1.38387096774194,1.37741935483871,1.3741935483871,1.37741935483871,1.38387096774194,1.38387096774194,1.38709677419355,1.39032258064516,1.39032258064516,1.39032258064516,1.38709677419355,1.38709677419355,1.38709677419355,1.39354838709677,1.40322580645161,1.41935483870968,1.42903225806452,1.43548387096774,1.44193548387097,1.44838709677419,1.44838709677419,1.42903225806452,1.40645161290323,1.38709677419355,1.38064516129032,1.38709677419355,1.38709677419355,1.38064516129032,1.38064516129032,1.38709677419355,1.50322580645161,1.71612903225806,1.91612903225806,1.8258064516129,1.56451612903226,1.4258064516129,1.40322580645161,1.38709677419355,1.38064516129032,1.37096774193548,1.37096774193548,1.37096774193548,1.36451612903226,1.36774193548387,1.36451612903226,1.37096774193548,1.36774193548387,1.36774193548387,1.3741935483871,1.37096774193548,1.3741935483871,1.3741935483871,1.3741935483871,1.37741935483871,1.3741935483871,1.38064516129032,1.38064516129032,1.38064516129032,1.39032258064516,1.39354838709677,1.4,1.40322580645161,1.40967741935484,1.41612903225806,1.41935483870968,1.42903225806452,1.42258064516129,1.42258064516129,1.41935483870968,1.41290322580645,1.40645161290323,1.4,1.39354838709677,1.38709677419355,1.38387096774194,1.38387096774194,1.39032258064516,1.38387096774194,1.3741935483871,1.3741935483871,1.38387096774194,1.37741935483871,1.37741935483871,1.38387096774194,1.37741935483871,1.3741935483871,1.37741935483871,1.38064516129032,1.37741935483871,1.37741935483871,1.3741935483871,1.37741935483871,1.38064516129032,1.38064516129032,1.38709677419355,1.38064516129032,1.38064516129032,1.38709677419355,1.38387096774194,1.38387096774194,1.38709677419355,1.39032258064516,1.38709677419355,1.38387096774194,1.38387096774194,1.39354838709677,1.38387096774194,1.39032258064516,1.38709677419355,1.39032258064516,1.38709677419355,1.38709677419355,1.38709677419355,1.38709677419355,1.38709677419355,1.38709677419355,1.38709677419355,1.38064516129032,1.39032258064516,1.38387096774194,1.38064516129032,1.38387096774194,1.38709677419355,1.38387096774194,1.38064516129032,1.38387096774194,1.38709677419355,1.39032258064516,1.39032258064516,1.38709677419355,1.38387096774194,1.38709677419355,1.38387096774194,1.38387096774194,1.38387096774194,1.38387096774194,1.39354838709677,1.40645161290323,1.42258064516129,1.43548387096774,1.43225806451613,1.45483870967742,1.44193548387097,1.4258064516129,1.41290322580645,1.39677419354839,1.37741935483871,1.3741935483871,1.38387096774194,1.3741935483871,1.38064516129032,1.3741935483871,1.41290322580645,1.56774193548387,1.78387096774194,1.97096774193548,1.68064516129032,1.46774193548387,1.39354838709677,1.39354838709677,1.38064516129032,1.37096774193548,1.37096774193548,1.36451612903226,1.36451612903226,1.37096774193548,1.36451612903226,1.36451612903226,1.3741935483871,1.36774193548387,1.36129032258065,1.36129032258065,1.36774193548387,1.36774193548387,1.37096774193548,1.36451612903226,1.37096774193548,1.36451612903226,1.37741935483871,1.37741935483871,1.38064516129032,1.38387096774194,1.38709677419355,1.39354838709677,1.40322580645161,1.40967741935484,1.41612903225806,1.42258064516129,1.41612903225806,1.41935483870968,1.41612903225806,1.41290322580645,1.40645161290323,1.40645161290323,1.39677419354839,1.38387096774194,1.39032258064516,1.37741935483871,1.38064516129032,1.38064516129032,1.37741935483871,1.38064516129032,1.3741935483871,1.37741935483871,1.37741935483871,1.3741935483871,1.3741935483871,1.3741935483871,1.38064516129032,1.3741935483871,1.37741935483871,1.37741935483871,1.37741935483871,1.37741935483871,1.38387096774194,1.38064516129032,1.38387096774194,1.38709677419355,1.38387096774194,1.38064516129032,1.38064516129032,1.38709677419355,1.38709677419355,1.38709677419355,1.38387096774194,1.39032258064516,1.37741935483871,1.37741935483871,1.38064516129032,1.3741935483871,1.37741935483871,1.38064516129032,1.37741935483871,1.38064516129032,1.38709677419355,1.38064516129032,1.38387096774194,1.38387096774194,1.38709677419355,1.38064516129032,1.38709677419355,1.38064516129032,1.38387096774194,1.38709677419355,1.38709677419355,1.38709677419355,1.38709677419355,1.38387096774194,1.38709677419355,1.39677419354839,1.40967741935484,1.4258064516129,1.44193548387097,1.43225806451613,1.44193548387097,1.44838709677419,1.42903225806452,1.41290322580645,1.4,1.39032258064516,1.39032258064516,1.38709677419355,1.38387096774194,1.38709677419355,1.38064516129032,1.40645161290323,1.55161290322581,1.76774193548387,1.9258064516129,1.69032258064516,1.47741935483871,1.41290322580645,1.39677419354839,1.39677419354839,1.39032258064516,1.38064516129032,1.37741935483871,1.37741935483871,1.38064516129032,1.3741935483871,1.3741935483871,1.37741935483871,1.3741935483871,1.3741935483871,1.37741935483871,1.37096774193548,1.37741935483871,1.37096774193548,1.37741935483871,1.3741935483871,1.38064516129032,1.38387096774194,1.38387096774194,1.38387096774194,1.39032258064516,1.39032258064516,1.4,1.40645161290323,1.41290322580645,1.42258064516129,1.42258064516129,1.4258064516129,1.42903225806452,1.43225806451613,1.42258064516129,1.41612903225806,1.40322580645161,1.4,1.39354838709677,1.39354838709677,1.38387096774194,1.38387096774194,1.38064516129032,1.37741935483871,1.3741935483871,1.38709677419355,1.3741935483871,1.37741935483871,1.37741935483871,1.37741935483871,1.38387096774194,1.3741935483871,1.37741935483871,1.38709677419355,1.37096774193548,1.37096774193548,1.37096774193548,1.37741935483871,1.38387096774194,1.37741935483871,1.38387096774194,1.38064516129032,1.38387096774194,1.38064516129032,1.38387096774194,1.38064516129032,1.38064516129032,1.38709677419355,1.38709677419355,1.3741935483871,1.37741935483871,1.38064516129032,1.38064516129032,1.37741935483871,1.38064516129032,1.37741935483871,1.3741935483871,1.3741935483871,1.38064516129032,1.38064516129032,1.38709677419355,1.37741935483871,1.37741935483871,1.38387096774194,1.37741935483871,1.38387096774194,1.3741935483871,1.3741935483871,1.38387096774194,1.38387096774194,1.38387096774194,1.38064516129032,1.38387096774194,1.39354838709677,1.40645161290323,1.42903225806452,1.4258064516129,1.42903225806452,1.43548387096774,1.43548387096774,1.41290322580645,1.4,1.38387096774194,1.36774193548387,1.37741935483871,1.3741935483871,1.36774193548387,1.36774193548387,1.3741935483871,1.47741935483871,1.70322580645161,1.89354838709677,1.83870967741935,1.57741935483871,1.43548387096774,1.39677419354839,1.38387096774194,1.38064516129032,1.3741935483871,1.37096774193548,1.36129032258065,1.36451612903226,1.36451612903226,1.36451612903226,1.37096774193548,1.36129032258065,1.36451612903226,1.36451612903226,1.36451612903226,1.36451612903226,1.37096774193548,1.3741935483871,1.3741935483871,1.3741935483871,1.37741935483871,1.37096774193548,1.37741935483871,1.38387096774194,1.38387096774194,1.39354838709677,1.4,1.40322580645161,1.40645161290323,1.42258064516129,1.42258064516129,1.42903225806452,1.4258064516129,1.42258064516129,1.41935483870968,1.40645161290323,1.4,1.39677419354839,1.38387096774194,1.38709677419355,1.38387096774194,1.38387096774194,1.38387096774194,1.38387096774194,1.38387096774194,1.38387096774194,1.38064516129032,1.38387096774194,1.38064516129032,1.38387096774194,1.38387096774194,1.38387096774194,1.38064516129032,1.38387096774194,1.38064516129032,1.38387096774194,1.38387096774194,1.38709677419355,1.38709677419355,1.39032258064516,1.38709677419355,1.38709677419355,1.38709677419355,1.38387096774194,1.38709677419355,1.38387096774194,1.38387096774194,1.38387096774194,1.39032258064516,1.38064516129032,1.38064516129032,1.39032258064516,1.38709677419355,1.39032258064516,1.39032258064516,1.38064516129032,1.38387096774194,1.39032258064516,1.38064516129032,1.39032258064516,1.39032258064516,1.38064516129032,1.39354838709677,1.38387096774194,1.38709677419355,1.38709677419355,1.38709677419355,1.38709677419355,1.38709677419355,1.38709677419355,1.38387096774194,1.38709677419355,1.39677419354839,1.38709677419355,1.39032258064516,1.39032258064516,1.39354838709677,1.38387096774194,1.38709677419355,1.39354838709677,1.40967741935484,1.43225806451613,1.43225806451613,1.43225806451613,1.45483870967742,1.45483870967742,1.43870967741935,1.41612903225806,1.39677419354839,1.38709677419355,1.39032258064516,1.39032258064516,1.38709677419355,1.38709677419355,1.38064516129032,1.42258064516129,1.58064516129032,1.79677419354839,1.98387096774194,1.71290322580645,1.4741935483871,1.40645161290323,1.39354838709677,1.38387096774194,1.3741935483871,1.37096774193548,1.36129032258065,1.3741935483871,1.36129032258065,1.35806451612903,1.36129032258065,1.36129032258065,1.36129032258065,1.36129032258065,1.36129032258065,1.36774193548387,1.36129032258065,1.36774193548387,1.36451612903226,1.36774193548387,1.37096774193548,1.37096774193548,1.37741935483871,1.38064516129032,1.38387096774194,1.38387096774194,1.4,1.4,1.40967741935484,1.41935483870968,1.41290322580645,1.41935483870968,1.4258064516129,1.42903225806452,1.41290322580645,1.40645161290323,1.39677419354839,1.39354838709677,1.39032258064516,1.39032258064516,1.37741935483871,1.37741935483871,1.38387096774194,1.37741935483871,1.3741935483871,1.3741935483871,1.3741935483871,1.3741935483871,1.3741935483871,1.37741935483871,1.3741935483871,1.38064516129032,1.37741935483871,1.37741935483871,1.3741935483871,1.37741935483871,1.38064516129032,1.39032258064516,1.38709677419355,1.38064516129032,1.38064516129032,1.38064516129032,1.38387096774194,1.39032258064516,1.37741935483871,1.38387096774194,1.37741935483871,1.38064516129032,1.38064516129032,1.38064516129032,1.38064516129032,1.3741935483871,1.38064516129032,1.37741935483871,1.38064516129032,1.38064516129032,1.37741935483871,1.38064516129032,1.37096774193548,1.39354838709677,1.38064516129032,1.38064516129032,1.38064516129032,1.38064516129032,1.38709677419355,1.38709677419355,1.38064516129032,1.38064516129032,1.38709677419355,1.38387096774194,1.38709677419355,1.38064516129032,1.38709677419355,1.38709677419355,1.38709677419355,1.38064516129032,1.38387096774194,1.40322580645161,1.40967741935484,1.43225806451613,1.43225806451613,1.4258064516129,1.44838709677419,1.44838709677419,1.42903225806452,1.41612903225806,1.39354838709677,1.38387096774194,1.38709677419355,1.38709677419355,1.39354838709677,1.38709677419355,1.38709677419355,1.43225806451613,1.59677419354839,1.78709677419355,1.95161290322581,1.65483870967742,1.47096774193548,1.40322580645161,1.39032258064516,1.38709677419355,1.38387096774194,1.38064516129032,1.37096774193548,1.37096774193548,1.37096774193548,1.37096774193548,1.37096774193548,1.36129032258065,1.37096774193548,1.36774193548387,1.36774193548387,1.3741935483871,1.37096774193548,1.37096774193548,1.37096774193548,1.37741935483871,1.37096774193548,1.37741935483871,1.37741935483871,1.38387096774194,1.38387096774194,1.38064516129032,1.39677419354839,1.40322580645161,1.41290322580645,1.41612903225806,1.41935483870968,1.42258064516129,1.42258064516129,1.42258064516129,1.40967741935484,1.40967741935484,1.4,1.39032258064516,1.38387096774194,1.38064516129032,1.37741935483871,1.37741935483871,1.37741935483871,1.3741935483871,1.37096774193548,1.3741935483871,1.3741935483871,1.3741935483871,1.3741935483871,1.37741935483871,1.3741935483871,1.38064516129032,1.37741935483871,1.38387096774194,1.3741935483871,1.37741935483871,1.38387096774194,1.38387096774194,1.37741935483871,1.38387096774194,1.38709677419355,1.38387096774194,1.38387096774194,1.38064516129032,1.38064516129032,1.37741935483871,1.38387096774194,1.38387096774194,1.37741935483871,1.37741935483871,1.38064516129032,1.38064516129032,1.38064516129032,1.37741935483871,1.38387096774194,1.38064516129032,1.38387096774194,1.38387096774194,1.38387096774194,1.38387096774194,1.38387096774194,1.38709677419355,1.38387096774194,1.39032258064516,1.38387096774194,1.38709677419355,1.38387096774194,1.39032258064516,1.39032258064516,1.38387096774194,1.38709677419355,1.39354838709677,1.40322580645161,1.4258064516129,1.43225806451613,1.43548387096774,1.44838709677419,1.45161290322581,1.44193548387097,1.41935483870968,1.40322580645161,1.38387096774194,1.3741935483871,1.38709677419355,1.38709677419355,1.38387096774194,1.38387096774194,1.39032258064516,1.50645161290323,1.74193548387097,1.92258064516129,1.81612903225806,1.54516129032258,1.43225806451613,1.39677419354839,1.39354838709677,1.3741935483871,1.3741935483871,1.37096774193548,1.36774193548387,1.36774193548387,1.36129032258065,1.36774193548387,1.36774193548387,1.36774193548387,1.36774193548387,1.36129032258065,1.36129032258065,1.36129032258065,1.36451612903226,1.36774193548387,1.36774193548387,1.36774193548387,1.3741935483871,1.37096774193548,1.37741935483871,1.38064516129032,1.38387096774194,1.39354838709677,1.40322580645161,1.40645161290323,1.40967741935484,1.41290322580645,1.42258064516129,1.42258064516129,1.4258064516129,1.42258064516129,1.41290322580645,1.40645161290323,1.39677419354839,1.38387096774194,1.37741935483871,1.38064516129032,1.37741935483871,1.37741935483871,1.38387096774194,1.38387096774194,1.38064516129032,1.38064516129032,1.37741935483871,1.38064516129032,1.3741935483871,1.37741935483871,1.37096774193548,1.37096774193548,1.3741935483871,1.37741935483871,1.37741935483871,1.37741935483871,1.37741935483871,1.38387096774194,1.38387096774194,1.38709677419355,1.38709677419355,1.39354838709677,1.38387096774194,1.38387096774194,1.38709677419355,1.38387096774194,1.38064516129032,1.38064516129032,1.38709677419355,1.38064516129032,1.38064516129032,1.38064516129032,1.38064516129032,1.38064516129032,1.38064516129032,1.38064516129032,1.38064516129032,1.38064516129032,1.37741935483871,1.38064516129032,1.38064516129032,1.3741935483871,1.38064516129032,1.37741935483871,1.3741935483871,1.38064516129032,1.38064516129032,1.38064516129032,1.38387096774194,1.38387096774194,1.38709677419355,1.38387096774194,1.39032258064516,1.38387096774194,1.38387096774194,1.39032258064516,1.39032258064516,1.38709677419355,1.39032258064516,1.40967741935484,1.41612903225806,1.43548387096774,1.44516129032258,1.43548387096774,1.46774193548387,1.45161290322581,1.42903225806452,1.41290322580645,1.39677419354839,1.38387096774194,1.39354838709677,1.38387096774194,1.38387096774194,1.38387096774194,1.38064516129032,1.48387096774194,1.68064516129032,1.87741935483871,1.88709677419355,1.6258064516129,1.45161290322581,1.40322580645161,1.39354838709677,1.38387096774194,1.3741935483871,1.37741935483871,1.36774193548387,1.37096774193548,1.37096774193548,1.3741935483871,1.37096774193548,1.37096774193548,1.37741935483871,1.3741935483871,1.3741935483871,1.37096774193548,1.37096774193548,1.37096774193548,1.37741935483871,1.37741935483871,1.38387096774194,1.38064516129032,1.38387096774194,1.38387096774194,1.38387096774194,1.39032258064516,1.39677419354839,1.40645161290323,1.41612903225806,1.42258064516129,1.42258064516129,1.42903225806452,1.43225806451613,1.42258064516129,1.41290322580645,1.40645161290323,1.40645161290323,1.39032258064516,1.39032258064516,1.39354838709677,1.3741935483871,1.38387096774194,1.38387096774194,1.38387096774194,1.38387096774194,1.38064516129032,1.38064516129032,1.38064516129032,1.38064516129032,1.38064516129032,1.38387096774194,1.38064516129032,1.38064516129032,1.37096774193548,1.38064516129032,1.38387096774194,1.3741935483871,1.38387096774194,1.37741935483871,1.38064516129032,1.38387096774194,1.38387096774194,1.38387096774194,1.37741935483871,1.38064516129032,1.38387096774194,1.38387096774194,1.38709677419355,1.38387096774194,1.3741935483871,1.38064516129032,1.37741935483871,1.3741935483871,1.38064516129032,1.37096774193548,1.36451612903226,1.37741935483871,1.3741935483871,1.3741935483871,1.37741935483871,1.38064516129032,1.38387096774194,1.3741935483871,1.37741935483871,1.37741935483871,1.3741935483871,1.37741935483871,1.38064516129032,1.37096774193548,1.38064516129032,1.38387096774194,1.37741935483871,1.37096774193548,1.3741935483871,1.39032258064516,1.40322580645161,1.4258064516129,1.42258064516129,1.41612903225806,1.43870967741935,1.43548387096774,1.41612903225806,1.40967741935484,1.38709677419355,1.37741935483871,1.37741935483871,1.38387096774194,1.38064516129032,1.3741935483871,1.37096774193548,1.41290322580645,1.56774193548387,1.76129032258065,1.9258064516129,1.65161290322581,1.46129032258065,1.39677419354839,1.39354838709677,1.38064516129032,1.36774193548387,1.36774193548387,1.36774193548387,1.36774193548387,1.36129032258065,1.36451612903226,1.37096774193548,1.36451612903226,1.36451612903226,1.37096774193548,1.37096774193548,1.36774193548387,1.36774193548387,1.36774193548387,1.37096774193548,1.37096774193548,1.3741935483871,1.37741935483871,1.38064516129032,1.38387096774194,1.38709677419355,1.39354838709677,1.39677419354839
