1.14193548387097,1.22903225806452,1.39677419354839,1.41935483870968,1.36451612903226,1.39032258064516,1.44838709677419,1.45161290322581,1.45161290322581,1.47096774193548,1.49354838709677,1.50967741935484,1.51935483870968,1.53548387096774,1.56774193548387,1.6,1.61935483870968,1.65806451612903,1.71290322580645,1.74193548387097,1.75161290322581,1.77096774193548,1.78387096774194,1.76774193548387,1.74516129032258,1.71290322580645,1.63225806451613,1.51612903225806,1.41290322580645,1.32903225806452,1.26129032258065,1.23548387096774,1.24193548387097,1.23548387096774,1.21935483870968,1.21290322580645,1.21935483870968,1.22903225806452,1.24193548387097,1.24516129032258,1.2258064516129,1.21612903225806,1.23225806451613,1.24516129032258,1.24193548387097,1.23870967741935,1.24516129032258,1.24838709677419,1.24838709677419,1.24193548387097,1.24193548387097,1.24516129032258,1.23548387096774,1.24838709677419,1.28709677419355,1.3,1.27741935483871,1.27741935483871,1.30967741935484,1.33225806451613,1.33870967741935,1.34516129032258,1.34516129032258,1.35161290322581,1.35806451612903,1.3258064516129,1.27096774193548,1.26774193548387,1.31290322580645,1.31935483870968,1.28709677419355,1.2741935483871,1.29354838709677,1.35161290322581,1.59032258064516,1.97741935483871,2.05161290322581,1.42903225806452,0.596774193548387,0.416129032258065,0.848387096774194,1.17096774193548,1.21612903225806,1.30322580645161,1.43870967741935,1.44193548387097,1.4,1.44838709677419,1.51290322580645,1.51612903225806,1.50322580645161,1.51612903225806,1.54193548387097,1.56451612903226,1.58064516129032,1.60322580645161,1.64193548387097,1.68387096774194,1.71935483870968,1.74516129032258,1.7741935483871,1.80322580645161,1.81935483870968,1.83225806451613,1.84193548387097,1.83870967741935,1.81290322580645,1.73870967741935,1.64193548387097,1.56451612903226,1.5,1.41290322580645,1.32903225806452,1.29677419354839,1.30322580645161,1.3,1.29354838709677,1.30322580645161,1.31290322580645,1.31290322580645,1.31290322580645,1.30967741935484,1.30322580645161,1.31290322580645,1.33225806451613,1.33225806451613,1.31290322580645,1.30967741935484,1.3258064516129,1.33548387096774,1.31935483870968,1.30322580645161,1.30967741935484,1.32258064516129,1.3258064516129,1.33225806451613,1.33548387096774,1.3258064516129,1.33548387096774,1.38064516129032,1.4,1.36451612903226,1.35161290322581,1.4,1.43870967741935,1.41290322580645,1.37741935483871,1.36451612903226,1.35483870967742,1.34193548387097,1.32903225806452,1.32258064516129,1.32258064516129,1.3258064516129,1.30645161290323,1.28387096774194,1.41612903225806,1.79677419354839,2.08064516129032,1.73870967741935,0.916129032258065,0.445161290322581,0.674193548387097,1.06129032258065,1.19032258064516,1.25483870967742,1.37741935483871,1.42258064516129,1.38387096774194,1.39677419354839,1.44838709677419,1.45806451612903,1.44838709677419,1.45806451612903,1.49032258064516,1.51935483870968,1.53548387096774,1.55806451612903,1.59354838709677,1.62258064516129,1.64516129032258,1.66451612903226,1.69354838709677,1.7258064516129,1.75806451612903,1.77741935483871,1.78064516129032,1.78064516129032,1.77096774193548,1.7258064516129,1.64193548387097,1.54838709677419,1.46129032258065,1.37741935483871,1.30645161290323,1.26129032258065,1.25161290322581,1.25161290322581,1.24516129032258,1.24516129032258,1.24838709677419,1.23870967741935,1.23225806451613,1.26129032258065,1.28387096774194,1.24838709677419,1.21612903225806,1.24516129032258,1.27741935483871,1.27096774193548,1.26129032258065,1.26451612903226,1.26451612903226,1.26129032258065,1.26129032258065,1.26774193548387,1.27741935483871,1.29032258064516,1.28709677419355,1.2741935483871,1.28064516129032,1.30967741935484,1.33225806451613,1.33548387096774,1.34516129032258,1.36774193548387,1.39032258064516,1.40645161290323,1.41290322580645,1.39354838709677,1.34516129032258,1.31290322580645,1.32258064516129,1.33548387096774,1.3258064516129,1.30967741935484,1.31290322580645,1.30967741935484,1.28387096774194,1.39032258064516,1.77096774193548,2.14838709677419,1.90322580645161,1.03870967741935,0.412903225806452,0.57741935483871,1.02258064516129,1.19677419354839,1.24516129032258,1.3741935483871,1.45161290322581,1.43225806451613,1.44193548387097,1.48709677419355,1.49354838709677,1.48387096774194,1.50322580645161,1.5258064516129,1.53870967741935,1.55483870967742,1.58709677419355,1.6258064516129,1.66129032258065,1.68709677419355,1.71290322580645,1.75161290322581,1.79032258064516,1.80967741935484,1.81935483870968,1.81935483870968,1.81612903225806,1.80645161290323,1.77096774193548,1.69677419354839,1.59677419354839,1.5,1.4258064516129,1.36451612903226,1.31290322580645,1.27741935483871,1.26129032258065,1.25806451612903,1.26451612903226,1.27741935483871,1.28387096774194,1.27741935483871,1.2741935483871,1.27741935483871,1.27741935483871,1.28709677419355,1.29032258064516,1.27096774193548,1.25806451612903,1.27741935483871,1.3,1.29354838709677,1.28709677419355,1.30645161290323,1.31612903225806,1.3,1.29032258064516,1.30322580645161,1.3258064516129,1.33870967741935,1.34193548387097,1.33870967741935,1.34838709677419,1.38387096774194,1.40322580645161,1.38064516129032,1.32903225806452,1.30967741935484,1.33225806451613,1.34838709677419,1.32258064516129,1.29677419354839,1.30645161290323,1.31612903225806,1.29032258064516,1.37096774193548,1.73548387096774,2.15806451612903,2.01290322580645,1.19677419354839,0.480645161290323,0.5,0.9,1.12258064516129,1.20967741935484,1.35161290322581,1.42903225806452,1.41290322580645,1.4258064516129,1.47096774193548,1.46774193548387,1.46451612903226,1.49677419354839,1.50967741935484,1.50645161290323,1.53870967741935,1.58709677419355,1.60967741935484,1.62903225806452,1.65806451612903,1.68064516129032,1.69677419354839,1.73548387096774,1.79032258064516,1.80322580645161,1.79354838709677,1.80967741935484,1.81935483870968,1.75806451612903,1.65161290322581,1.57096774193548,1.49677419354839,1.4,1.31935483870968,1.29354838709677,1.29677419354839,1.28709677419355,1.27096774193548,1.27096774193548,1.2741935483871,1.27741935483871,1.2741935483871,1.2741935483871,1.27096774193548,1.26774193548387,1.28064516129032,1.29354838709677,1.29032258064516,1.27096774193548,1.26129032258065,1.26774193548387,1.27741935483871,1.28064516129032,1.28064516129032,1.28387096774194,1.31290322580645,1.34516129032258,1.33870967741935,1.3258064516129,1.34516129032258,1.36774193548387,1.35806451612903,1.34838709677419,1.35806451612903,1.34838709677419,1.30322580645161,1.27741935483871,1.29354838709677,1.30645161290323,1.29677419354839,1.29677419354839,1.30645161290323,1.31290322580645,1.45483870967742,1.85161290322581,2.13870967741935,1.71935483870968,0.832258064516129,0.403225806451613,0.712903225806452,1.11612903225806,1.22258064516129,1.26451612903226,1.36451612903226,1.40967741935484,1.40645161290323,1.42258064516129,1.43548387096774,1.44516129032258,1.47741935483871,1.5,1.51612903225806,1.5258064516129,1.52903225806452,1.54838709677419,1.60322580645161,1.64516129032258,1.64193548387097,1.65161290322581,1.71612903225806,1.78709677419355,1.79677419354839,1.7741935483871,1.7741935483871,1.78709677419355,1.76774193548387,1.70322580645161,1.61612903225806,1.51612903225806,1.42903225806452,1.35806451612903,1.30322580645161,1.27741935483871,1.28064516129032,1.28387096774194,1.26774193548387,1.24193548387097,1.23870967741935,1.25806451612903,1.2741935483871,1.27741935483871,1.27741935483871,1.2741935483871,1.26774193548387,1.27096774193548,1.28387096774194,1.29032258064516,1.28064516129032,1.26774193548387,1.26774193548387,1.28709677419355,1.30967741935484,1.31612903225806,1.3258064516129,1.34193548387097,1.35806451612903,1.36451612903226,1.36129032258065,1.35806451612903,1.36774193548387,1.3741935483871,1.35483870967742,1.31612903225806,1.3,1.3,1.29032258064516,1.29032258064516,1.30322580645161,1.29677419354839,1.3258064516129,1.58709677419355,2.03870967741935,2.14516129032258,1.5,0.638709677419355,0.432258064516129,0.82258064516129,1.11290322580645,1.16774193548387,1.28709677419355,1.43870967741935,1.43225806451613,1.38064516129032,1.41612903225806,1.46451612903226,1.4741935483871,1.47741935483871,1.49354838709677,1.51290322580645,1.53870967741935,1.55806451612903,1.56129032258065,1.59354838709677,1.65161290322581,1.68387096774194,1.68709677419355,1.71935483870968,1.76774193548387,1.77096774193548,1.76451612903226,1.79032258064516,1.8,1.74193548387097,1.6741935483871,1.62903225806452,1.54516129032258,1.42258064516129,1.33548387096774,1.31290322580645,1.29032258064516,1.26451612903226,1.2741935483871,1.28064516129032,1.25806451612903,1.24838709677419,1.28064516129032,1.30645161290323,1.29032258064516,1.26774193548387,1.28064516129032,1.30967741935484,1.30322580645161,1.27096774193548,1.25806451612903,1.28064516129032,1.3,1.29677419354839,1.30645161290323,1.34193548387097,1.36774193548387,1.35806451612903,1.35161290322581,1.38387096774194,1.40967741935484,1.39354838709677,1.35161290322581,1.32258064516129,1.30322580645161,1.30322580645161,1.30645161290323,1.29354838709677,1.27741935483871,1.29354838709677,1.31612903225806,1.35806451612903,1.6,2.03225806451613,2.13870967741935,1.48709677419355,0.6,0.387096774193548,0.806451612903226,1.11935483870968,1.15806451612903,1.26129032258065,1.41935483870968,1.43870967741935,1.39354838709677,1.42258064516129,1.4741935483871,1.49032258064516,1.5,1.50322580645161,1.50322580645161,1.5258064516129,1.56774193548387,1.6,1.61935483870968,1.62903225806452,1.65161290322581,1.70967741935484,1.76451612903226,1.78387096774194,1.77741935483871,1.77096774193548,1.77741935483871,1.78387096774194,1.77096774193548,1.70322580645161,1.59677419354839,1.49354838709677,1.41290322580645,1.33870967741935,1.28064516129032,1.26129032258065,1.26451612903226,1.27096774193548,1.2741935483871,1.2741935483871,1.26129032258065,1.25483870967742,1.26451612903226,1.2741935483871,1.2741935483871,1.2741935483871,1.27741935483871,1.27741935483871,1.27741935483871,1.27096774193548,1.28064516129032,1.30967741935484,1.33870967741935,1.33870967741935,1.3258064516129,1.32903225806452,1.34838709677419,1.35483870967742,1.35806451612903,1.35483870967742,1.3258064516129,1.2741935483871,1.25161290322581,1.2741935483871,1.29354838709677,1.28709677419355,1.28709677419355,1.28064516129032,1.28064516129032,1.47741935483871,1.91935483870968,2.14193548387097,1.61290322580645,0.690322580645161,0.319354838709677,0.67741935483871,1.07741935483871,1.18064516129032,1.24838709677419,1.38387096774194,1.42903225806452,1.40645161290323,1.41612903225806,1.43548387096774,1.43870967741935,1.45806451612903,1.48064516129032,1.49677419354839,1.51935483870968,1.54193548387097,1.56774193548387,1.60645161290323,1.65161290322581,1.67096774193548,1.69032258064516,1.72903225806452,1.77096774193548,1.78709677419355,1.7741935483871,1.7741935483871,1.79032258064516,1.77741935483871,1.70322580645161,1.60322580645161,1.50322580645161,1.40967741935484,1.33870967741935,1.30322580645161,1.29032258064516,1.28387096774194,1.28709677419355,1.28709677419355,1.27741935483871,1.26774193548387,1.27096774193548,1.2741935483871,1.28064516129032,1.29032258064516,1.29354838709677,1.29032258064516,1.29032258064516,1.29677419354839,1.3,1.30322580645161,1.31935483870968,1.33548387096774,1.34516129032258,1.34516129032258,1.35161290322581,1.36774193548387,1.38064516129032,1.38064516129032,1.35483870967742,1.30967741935484,1.27741935483871,1.27741935483871,1.28064516129032,1.28064516129032,1.28709677419355,1.29032258064516,1.26129032258065,1.33548387096774,1.69032258064516,2.09677419354839,1.93225806451613,1.10322580645161,0.425806451612903,0.519354838709677,0.964516129032258,1.14838709677419,1.18064516129032,1.32258064516129,1.43870967741935,1.41290322580645,1.39354838709677,1.43870967741935,1.46451612903226,1.47096774193548,1.5,1.5258064516129,1.52258064516129,1.52903225806452,1.55483870967742,1.58064516129032,1.60967741935484,1.65161290322581,1.69032258064516,1.71612903225806,1.73870967741935,1.76129032258065,1.78064516129032,1.79677419354839,1.79354838709677,1.76451612903226,1.71935483870968,1.65806451612903,1.58064516129032,1.47741935483871,1.38064516129032,1.31612903225806,1.28709677419355,1.27741935483871,1.28064516129032,1.29032258064516,1.28709677419355,1.27096774193548,1.26774193548387,1.29032258064516,1.31612903225806,1.30645161290323,1.28064516129032,1.27096774193548,1.28387096774194,1.29032258064516,1.29032258064516,1.3,1.3258064516129,1.33870967741935,1.32258064516129,1.31290322580645,1.34193548387097,1.38387096774194,1.39677419354839,1.37096774193548,1.34516129032258,1.32258064516129,1.29354838709677,1.27096774193548,1.27741935483871,1.28064516129032,1.27741935483871,1.29032258064516,1.3,1.36129032258065,1.66129032258065,2.05806451612903,1.95806451612903,1.19032258064516,0.493548387096774,0.512903225806452,0.906451612903226,1.11290322580645,1.17741935483871,1.31612903225806,1.4258064516129,1.41935483870968,1.40322580645161,1.43548387096774,1.46129032258065,1.46451612903226,1.4741935483871,1.50322580645161,1.54193548387097,1.57096774193548,1.58064516129032,1.59032258064516,1.61612903225806,1.65483870967742,1.69032258064516,1.71935483870968,1.74516129032258,1.7741935483871,1.8,1.81290322580645,1.80645161290323,1.77741935483871,1.73225806451613,1.66774193548387,1.57096774193548,1.44838709677419,1.35161290322581,1.30967741935484,1.29354838709677,1.2741935483871,1.26451612903226,1.26774193548387,1.26774193548387,1.25483870967742,1.25483870967742,1.27096774193548,1.29032258064516,1.28387096774194,1.25806451612903,1.25806451612903,1.29032258064516,1.29354838709677,1.25806451612903,1.25161290322581,1.3,1.3258064516129,1.30645161290323,1.29677419354839,1.32903225806452,1.36451612903226,1.35806451612903,1.34838709677419,1.36451612903226,1.38064516129032,1.35161290322581,1.29677419354839,1.28387096774194,1.3,1.29677419354839,1.28064516129032,1.29677419354839,1.30967741935484,1.26774193548387,1.33870967741935,1.71290322580645,2.11612903225806,1.92258064516129,1.09677419354839,0.448387096774194,0.545161290322581,0.970967741935484,1.16774193548387,1.22903225806452,1.35161290322581,1.4258064516129,1.4,1.40322580645161,1.45483870967742,1.46129032258065,1.45161290322581,1.48064516129032,1.50645161290323,1.50322580645161,1.51612903225806,1.57096774193548,1.61612903225806,1.6258064516129,1.63225806451613,1.66774193548387,1.72258064516129,1.74516129032258,1.73548387096774,1.73548387096774,1.75806451612903,1.7741935483871,1.75483870967742,1.71290322580645,1.65806451612903,1.58064516129032,1.46774193548387,1.38064516129032,1.34838709677419,1.3258064516129,1.28709677419355,1.26129032258065,1.27096774193548,1.29032258064516,1.28709677419355,1.27096774193548,1.27096774193548,1.28709677419355,1.29354838709677,1.28387096774194,1.28709677419355,1.29354838709677,1.28387096774194,1.28064516129032,1.29677419354839,1.3,1.29354838709677,1.30322580645161,1.31612903225806,1.31612903225806,1.30645161290323,1.30322580645161,1.30645161290323,1.31612903225806,1.31935483870968,1.32258064516129,1.34516129032258,1.36774193548387,1.3741935483871,1.38709677419355,1.42258064516129,1.44193548387097,1.4258064516129,1.40967741935484,1.39032258064516,1.35483870967742,1.3258064516129,1.32258064516129,1.31935483870968,1.31612903225806,1.32903225806452,1.3258064516129,1.29677419354839,1.4,1.7741935483871,2.11935483870968,1.85806451612903,1.03870967741935,0.474193548387097,0.629032258064516,1.02903225806452,1.19032258064516,1.26451612903226,1.39677419354839,1.43870967741935,1.39032258064516,1.40967741935484,1.46451612903226,1.46451612903226,1.46451612903226,1.50645161290323,1.52258064516129,1.51612903225806,1.54193548387097,1.58387096774194,1.6,1.59354838709677,1.61612903225806,1.65806451612903,1.69677419354839,1.71612903225806,1.72903225806452,1.74838709677419,1.75806451612903,1.75161290322581,1.74838709677419,1.73548387096774,1.68387096774194,1.60645161290323,1.51935483870968,1.4258064516129,1.34838709677419,1.31935483870968,1.31290322580645,1.29354838709677,1.27741935483871,1.29032258064516,1.29677419354839,1.27741935483871,1.2741935483871,1.3,1.31290322580645,1.29677419354839,1.27741935483871,1.28064516129032,1.29032258064516,1.28709677419355,1.28709677419355,1.3,1.30322580645161,1.28709677419355,1.2741935483871,1.28064516129032,1.30322580645161,1.31935483870968,1.31290322580645,1.29354838709677,1.28387096774194,1.3,1.33225806451613,1.36451612903226,1.38064516129032,1.3741935483871,1.37741935483871,1.40322580645161,1.42258064516129,1.41612903225806,1.39032258064516,1.36129032258065,1.32903225806452,1.31290322580645,1.30645161290323,1.3,1.29677419354839,1.30967741935484,1.30645161290323,1.29354838709677,1.46774193548387,1.9,2.14193548387097,1.65161290322581,0.754838709677419,0.374193548387097,0.712903225806452,1.09032258064516,1.18387096774194,1.27741935483871,1.43225806451613,1.44516129032258,1.38709677419355,1.41612903225806,1.47096774193548,1.4741935483871,1.47741935483871,1.49677419354839,1.51612903225806,1.53870967741935,1.55806451612903,1.57096774193548,1.59032258064516,1.62258064516129,1.65161290322581,1.66774193548387,1.69354838709677,1.73225806451613,1.76774193548387,1.78064516129032,1.77096774193548,1.75806451612903,1.74838709677419,1.72258064516129,1.65161290322581,1.56129032258065,1.47096774193548,1.39677419354839,1.33548387096774,1.30322580645161,1.29677419354839,1.28387096774194,1.26774193548387,1.26774193548387,1.27096774193548,1.26451612903226,1.26451612903226,1.28709677419355,1.3,1.29032258064516,1.28387096774194,1.3,1.31612903225806,1.30645161290323,1.28709677419355,1.28709677419355,1.29354838709677,1.29032258064516,1.28387096774194,1.28709677419355,1.30322580645161,1.31612903225806,1.31935483870968,1.30967741935484,1.3,1.31612903225806,1.33870967741935,1.34838709677419,1.35806451612903,1.37741935483871,1.4,1.41290322580645,1.41935483870968,1.41290322580645,1.4,1.39032258064516,1.3741935483871,1.33548387096774,1.30967741935484,1.31290322580645,1.3258064516129,1.33225806451613,1.33225806451613,1.31612903225806,1.35161290322581,1.61290322580645,2.04838709677419,2.14838709677419,1.51612903225806,0.645161290322581,0.403225806451613,0.796774193548387,1.13870967741935,1.20967741935484,1.29032258064516,1.40967741935484,1.41935483870968,1.4,1.45161290322581,1.49677419354839,1.49677419354839,1.50645161290323,1.53870967741935,1.55161290322581,1.55161290322581,1.5741935483871,1.59677419354839,1.61290322580645,1.64193548387097,1.6741935483871,1.70322580645161,1.73548387096774,1.77741935483871,1.79032258064516,1.78387096774194,1.8,1.81612903225806,1.78064516129032,1.70645161290323,1.63548387096774,1.55806451612903,1.46451612903226,1.3741935483871,1.31612903225806,1.29354838709677,1.28387096774194,1.27741935483871,1.28064516129032,1.28064516129032,1.27096774193548,1.25806451612903,1.26451612903226,1.28709677419355,1.29354838709677,1.28064516129032,1.2741935483871,1.28709677419355,1.3,1.29032258064516,1.27096774193548,1.2741935483871,1.29354838709677,1.30322580645161,1.29354838709677,1.28064516129032,1.27096774193548,1.27741935483871,1.29354838709677,1.30322580645161,1.30645161290323,1.3258064516129,1.33870967741935,1.33225806451613,1.35483870967742,1.4,1.40967741935484,1.37096774193548,1.33548387096774,1.3258064516129,1.31612903225806,1.30322580645161,1.29354838709677,1.29032258064516,1.28709677419355,1.29677419354839,1.29677419354839,1.29677419354839,1.44193548387097,1.8258064516129,2.09354838709677,1.6741935483871,0.793548387096774,0.370967741935484,0.683870967741935,1.06451612903226,1.15806451612903,1.23548387096774,1.39032258064516,1.42258064516129,1.37741935483871,1.40645161290323,1.45806451612903,1.45806451612903,1.45806451612903,1.48709677419355,1.50967741935484,1.51612903225806,1.5258064516129,1.56129032258065,1.6,1.62903225806452,1.65161290322581,1.67741935483871,1.71290322580645,1.74838709677419,1.76129032258065,1.76129032258065,1.77741935483871,1.79032258064516,1.76451612903226,1.70645161290323,1.63870967741935,1.55161290322581,1.44838709677419,1.36129032258065,1.31612903225806,1.30322580645161,1.30322580645161,1.28709677419355,1.26774193548387,1.25806451612903,1.26451612903226,1.28064516129032,1.29354838709677,1.29677419354839,1.28709677419355,1.28064516129032,1.3,1.32258064516129,1.31935483870968,1.29677419354839,1.29032258064516,1.30967741935484,1.3258064516129,1.3258064516129,1.31612903225806,1.33225806451613,1.34838709677419,1.33548387096774,1.31612903225806,1.3258064516129,1.36129032258065,1.38064516129032,1.39032258064516,1.41290322580645,1.42903225806452,1.44193548387097,1.47096774193548,1.5,1.49032258064516,1.46129032258065,1.44516129032258,1.43225806451613
1.30322580645161,1.30645161290323,1.30322580645161,1.29677419354839,1.3,1.31612903225806,1.3258064516129,1.32258064516129,1.30967741935484,1.31290322580645,1.34193548387097,1.37096774193548,1.37741935483871,1.36774193548387,1.38064516129032,1.41290322580645,1.42258064516129,1.39677419354839,1.37741935483871,1.35806451612903,1.32903225806452,1.30645161290323,1.31290322580645,1.32903225806452,1.33225806451613,1.33225806451613,1.32258064516129,1.32903225806452,1.53548387096774,1.98064516129032,2.16451612903226,1.5741935483871,0.654838709677419,0.387096774193548,0.832258064516129,1.20967741935484,1.24838709677419,1.28709677419355,1.40645161290323,1.43548387096774,1.41612903225806,1.44193548387097,1.46451612903226,1.46129032258065,1.48387096774194,1.51612903225806,1.5258064516129,1.52903225806452,1.54838709677419,1.5741935483871,1.59354838709677,1.61935483870968,1.64838709677419,1.66774193548387,1.69677419354839,1.7258064516129,1.74838709677419,1.76129032258065,1.77096774193548,1.76774193548387,1.73870967741935,1.68709677419355,1.61612903225806,1.52258064516129,1.43870967741935,1.38387096774194,1.34193548387097,1.29677419354839,1.26774193548387,1.28064516129032,1.3,1.29032258064516,1.2741935483871,1.28387096774194,1.29032258064516,1.27741935483871,1.27096774193548,1.29032258064516,1.3,1.3,1.30322580645161,1.30645161290323,1.29032258064516,1.2741935483871,1.28709677419355,1.30322580645161,1.29032258064516,1.28064516129032,1.29677419354839,1.31290322580645,1.3,1.29677419354839,1.31290322580645,1.34193548387097,1.35806451612903,1.36451612903226,1.36129032258065,1.3741935483871,1.39677419354839,1.40645161290323,1.39032258064516,1.37096774193548,1.34516129032258,1.32258064516129,1.30967741935484,1.30322580645161,1.30322580645161,1.31935483870968,1.3258064516129,1.28064516129032,1.29677419354839,1.59354838709677,2.06774193548387,2.10967741935484,1.37741935483871,0.532258064516129,0.432258064516129,0.893548387096774,1.19354838709677,1.23548387096774,1.33548387096774,1.45161290322581,1.42903225806452,1.38387096774194,1.42903225806452,1.47741935483871,1.47096774193548,1.47096774193548,1.51290322580645,1.54838709677419,1.55161290322581,1.55483870967742,1.57741935483871,1.6,1.61612903225806,1.64516129032258,1.69032258064516,1.72258064516129,1.7258064516129,1.73548387096774,1.75483870967742,1.76451612903226,1.75161290322581,1.72258064516129,1.68064516129032,1.61935483870968,1.52258064516129,1.41612903225806,1.34838709677419,1.32903225806452,1.31612903225806,1.28709677419355,1.2741935483871,1.28709677419355,1.28709677419355,1.2741935483871,1.27741935483871,1.30967741935484,1.31612903225806,1.29677419354839,1.28709677419355,1.29677419354839,1.30967741935484,1.30322580645161,1.28387096774194,1.27741935483871,1.3,1.31612903225806,1.30967741935484,1.29677419354839,1.30322580645161,1.30645161290323,1.3,1.30322580645161,1.31612903225806,1.33548387096774,1.35161290322581,1.36129032258065,1.36451612903226,1.37741935483871,1.40322580645161,1.41612903225806,1.40645161290323,1.39677419354839,1.38387096774194,1.35161290322581,1.32258064516129,1.32258064516129,1.3258064516129,1.31612903225806,1.32258064516129,1.32903225806452,1.3,1.38064516129032,1.74516129032258,2.10967741935484,1.83870967741935,0.948387096774194,0.351612903225806,0.574193548387097,1.05806451612903,1.2258064516129,1.25483870967742,1.37741935483871,1.45483870967742,1.4258064516129,1.42903225806452,1.47096774193548,1.48064516129032,1.48064516129032,1.50967741935484,1.53548387096774,1.55483870967742,1.57096774193548,1.59354838709677,1.61290322580645,1.62258064516129,1.63548387096774,1.66774193548387,1.71935483870968,1.76129032258065,1.78387096774194,1.79354838709677,1.79354838709677,1.79032258064516,1.78064516129032,1.73870967741935,1.66451612903226,1.58709677419355,1.50645161290323,1.41290322580645,1.33548387096774,1.31290322580645,1.3258064516129,1.32258064516129,1.29677419354839,1.2741935483871,1.2741935483871,1.28709677419355,1.28709677419355,1.28709677419355,1.29354838709677,1.29677419354839,1.28064516129032,1.27741935483871,1.29354838709677,1.30322580645161,1.30322580645161,1.30322580645161,1.3,1.28064516129032,1.28387096774194,1.30967741935484,1.31612903225806,1.29354838709677,1.29032258064516,1.31290322580645,1.33548387096774,1.34516129032258,1.34838709677419,1.34838709677419,1.36774193548387,1.4,1.40967741935484,1.39677419354839,1.37096774193548,1.34193548387097,1.31612903225806,1.30645161290323,1.30322580645161,1.3,1.30967741935484,1.31935483870968,1.29032258064516,1.36451612903226,1.71935483870968,2.09677419354839,1.81935483870968,0.9,0.283870967741935,0.519354838709677,1.00645161290323,1.16774193548387,1.22258064516129,1.37741935483871,1.45483870967742,1.42258064516129,1.43225806451613,1.46774193548387,1.46129032258065,1.46451612903226,1.50322580645161,1.52258064516129,1.53225806451613,1.55806451612903,1.58709677419355,1.60322580645161,1.62258064516129,1.65161290322581,1.68709677419355,1.71612903225806,1.74193548387097,1.76451612903226,1.78064516129032,1.79032258064516,1.79354838709677,1.78064516129032,1.74516129032258,1.67096774193548,1.56451612903226,1.45161290322581,1.37741935483871,1.33548387096774,1.29677419354839,1.26451612903226,1.25483870967742,1.25483870967742,1.24838709677419,1.24193548387097,1.25806451612903,1.2741935483871,1.27096774193548,1.26129032258065,1.26129032258065,1.27096774193548,1.28064516129032,1.28387096774194,1.2741935483871,1.25806451612903,1.25806451612903,1.27096774193548,1.27096774193548,1.26129032258065,1.26774193548387,1.28709677419355,1.29677419354839,1.29032258064516,1.3,1.32258064516129,1.33870967741935,1.34838709677419,1.37096774193548,1.38387096774194,1.37741935483871,1.36774193548387,1.35161290322581,1.32258064516129,1.29677419354839,1.3,1.31290322580645,1.30645161290323,1.30322580645161,1.30322580645161,1.31935483870968,1.5,1.89354838709677,2.09354838709677,1.59677419354839,0.709677419354839,0.338709677419355,0.687096774193548,1.08064516129032,1.17096774193548,1.25161290322581,1.42258064516129,1.4741935483871,1.43225806451613,1.45806451612903,1.50967741935484,1.50645161290323,1.50967741935484,1.54516129032258,1.56129032258065,1.55806451612903,1.58387096774194,1.62903225806452,1.65806451612903,1.68064516129032,1.70967741935484,1.73548387096774,1.75806451612903,1.79032258064516,1.82903225806452,1.84838709677419,1.83870967741935,1.82903225806452,1.81935483870968,1.7741935483871,1.68064516129032,1.57096774193548,1.4741935483871,1.40645161290323,1.35806451612903,1.31612903225806,1.29354838709677,1.29032258064516,1.29677419354839,1.30322580645161,1.3,1.3,1.30967741935484,1.31935483870968,1.31612903225806,1.30645161290323,1.30645161290323,1.30645161290323,1.30322580645161,1.29677419354839,1.29677419354839,1.29677419354839,1.30322580645161,1.30967741935484,1.30967741935484,1.31290322580645,1.30322580645161,1.29354838709677,1.30645161290323,1.33548387096774,1.35161290322581,1.35161290322581,1.35161290322581,1.36451612903226,1.38064516129032,1.39354838709677,1.39354838709677,1.39032258064516,1.3741935483871,1.33548387096774,1.29677419354839,1.29032258064516,1.30645161290323,1.3258064516129,1.33225806451613,1.30645161290323,1.30322580645161,1.50967741935484,1.94193548387097,2.11935483870968,1.55806451612903,0.667741935483871,0.367741935483871,0.751612903225806,1.10967741935484,1.18064516129032,1.27096774193548,1.41612903225806,1.42903225806452,1.39032258064516,1.43548387096774,1.47096774193548,1.45161290322581,1.45483870967742,1.50322580645161,1.51935483870968,1.50322580645161,1.51290322580645,1.56774193548387,1.61290322580645,1.62903225806452,1.63870967741935,1.66451612903226,1.70645161290323,1.73870967741935,1.75161290322581,1.74516129032258,1.75483870967742,1.77096774193548,1.75483870967742,1.69032258064516,1.60967741935484,1.51612903225806,1.41612903225806,1.33548387096774,1.30645161290323,1.30322580645161,1.28387096774194,1.26129032258065,1.25806451612903,1.26774193548387,1.26774193548387,1.26451612903226,1.27096774193548,1.28064516129032,1.28064516129032,1.28064516129032,1.28709677419355,1.28064516129032,1.26774193548387,1.27096774193548,1.29354838709677,1.29677419354839,1.27096774193548,1.27096774193548,1.28064516129032,1.27096774193548,1.27096774193548,1.3,1.31290322580645,1.29354838709677,1.29677419354839,1.31612903225806,1.31612903225806,1.30967741935484,1.31935483870968,1.32903225806452,1.31612903225806,1.31935483870968,1.35483870967742,1.3741935483871,1.36129032258065,1.3741935483871,1.42258064516129,1.44193548387097,1.41290322580645,1.38064516129032,1.3741935483871,1.3741935483871,1.35483870967742,1.33225806451613,1.3258064516129,1.33548387096774,1.34193548387097,1.31290322580645,1.29032258064516,1.45483870967742,1.88387096774194,2.15806451612903,1.71290322580645,0.825806451612903,0.432258064516129,0.77741935483871,1.1741935483871,1.25161290322581,1.29032258064516,1.41935483870968,1.46129032258065,1.4258064516129,1.43225806451613,1.4741935483871,1.49032258064516,1.50322580645161,1.5258064516129,1.53870967741935,1.53870967741935,1.55483870967742,1.57741935483871,1.59677419354839,1.61935483870968,1.65161290322581,1.68064516129032,1.7,1.72903225806452,1.75483870967742,1.75161290322581,1.73548387096774,1.74516129032258,1.76451612903226,1.74193548387097,1.66774193548387,1.5741935483871,1.48064516129032,1.41290322580645,1.37096774193548,1.33225806451613,1.30645161290323,1.29677419354839,1.29032258064516,1.28709677419355,1.3,1.31612903225806,1.30967741935484,1.30322580645161,1.30645161290323,1.30322580645161,1.30645161290323,1.31935483870968,1.32258064516129,1.3,1.28387096774194,1.3,1.31290322580645,1.30967741935484,1.30322580645161,1.30645161290323,1.31612903225806,1.32258064516129,1.32258064516129,1.30967741935484,1.3,1.31290322580645,1.33548387096774,1.33548387096774,1.31935483870968,1.3258064516129,1.34193548387097,1.33870967741935,1.3258064516129,1.34516129032258,1.37741935483871,1.37096774193548,1.33870967741935,1.33548387096774,1.36129032258065,1.36451612903226,1.36129032258065,1.38387096774194,1.40967741935484,1.40322580645161,1.38709677419355,1.40967741935484,1.45483870967742,1.46129032258065,1.42903225806452,1.40645161290323,1.39032258064516,1.36774193548387,1.34838709677419,1.34193548387097,1.34838709677419,1.35483870967742,1.34516129032258,1.30645161290323,1.3741935483871,1.71612903225806,2.1258064516129,1.99032258064516,1.19354838709677,0.519354838709677,0.609677419354839,1.06451612903226,1.25806451612903,1.26774193548387,1.36774193548387,1.46129032258065,1.44516129032258,1.43225806451613,1.47096774193548,1.48387096774194,1.47096774193548,1.4741935483871,1.50322580645161,1.53225806451613,1.55161290322581,1.56129032258065,1.5741935483871,1.6,1.62258064516129,1.64193548387097,1.66451612903226,1.69032258064516,1.70967741935484,1.7258064516129,1.74193548387097,1.74838709677419,1.73225806451613,1.70645161290323,1.67096774193548,1.61290322580645,1.52903225806452,1.45806451612903,1.40322580645161,1.34516129032258,1.29354838709677,1.27741935483871,1.28709677419355,1.29677419354839,1.29032258064516,1.28709677419355,1.29032258064516,1.29677419354839,1.29354838709677,1.28387096774194,1.28709677419355,1.3,1.3,1.28387096774194,1.28709677419355,1.31290322580645,1.31290322580645,1.28709677419355,1.27741935483871,1.29677419354839,1.30322580645161,1.29032258064516,1.29677419354839,1.31935483870968,1.3258064516129,1.30967741935484,1.29677419354839,1.3,1.30322580645161,1.30322580645161,1.31612903225806,1.3258064516129,1.32258064516129,1.31935483870968,1.33548387096774,1.34838709677419,1.33225806451613,1.31612903225806,1.32903225806452,1.35806451612903,1.36129032258065,1.33870967741935,1.33225806451613,1.36129032258065,1.39677419354839,1.40322580645161,1.40967741935484,1.43870967741935,1.45161290322581,1.43225806451613,1.41935483870968,1.41290322580645,1.38064516129032,1.34838709677419,1.34838709677419,1.35806451612903,1.35161290322581,1.35483870967742,1.35806451612903,1.32258064516129,1.38064516129032,1.70967741935484,2.09354838709677,1.9258064516129,1.12903225806452,0.496774193548387,0.62258064516129,1.06451612903226,1.24193548387097,1.26451612903226,1.37741935483871,1.45806451612903,1.43225806451613,1.43225806451613,1.48387096774194,1.49677419354839,1.48387096774194,1.5,1.53225806451613,1.54838709677419,1.55161290322581,1.56451612903226,1.59032258064516,1.61612903225806,1.62903225806452,1.64193548387097,1.67096774193548,1.71290322580645,1.73548387096774,1.73870967741935,1.73870967741935,1.74838709677419,1.75806451612903,1.74193548387097,1.69677419354839,1.63225806451613,1.54838709677419,1.44516129032258,1.36129032258065,1.33548387096774,1.33225806451613,1.30322580645161,1.2741935483871,1.28387096774194,1.30322580645161,1.29032258064516,1.26774193548387,1.2741935483871,1.30322580645161,1.31612903225806,1.30645161290323,1.3,1.29677419354839,1.29354838709677,1.30322580645161,1.30322580645161,1.28709677419355,1.28387096774194,1.30645161290323,1.31612903225806,1.3,1.29032258064516,1.30322580645161,1.31290322580645,1.30967741935484,1.3,1.29354838709677,1.30645161290323,1.3258064516129,1.32903225806452,1.31935483870968,1.31290322580645,1.31935483870968,1.3258064516129,1.33548387096774,1.34516129032258,1.34193548387097,1.33225806451613,1.33548387096774,1.35483870967742,1.36451612903226,1.34193548387097,1.33548387096774,1.35806451612903,1.36451612903226,1.36129032258065,1.39032258064516,1.42258064516129,1.41612903225806,1.41612903225806,1.45161290322581,1.46774193548387,1.43870967741935,1.41290322580645,1.41290322580645,1.4,1.36451612903226,1.34838709677419,1.35483870967742,1.36129032258065,1.36451612903226,1.35483870967742,1.33870967741935,1.45161290322581,1.82258064516129,2.10967741935484,1.73870967741935,0.880645161290323,0.429032258064516,0.712903225806452,1.11290322580645,1.22258064516129,1.28709677419355,1.43870967741935,1.49032258064516,1.44193548387097,1.44838709677419,1.49032258064516,1.49032258064516,1.49032258064516,1.52258064516129,1.53870967741935,1.53548387096774,1.55806451612903,1.60645161290323,1.63548387096774,1.63548387096774,1.64516129032258,1.67741935483871,1.71935483870968,1.74516129032258,1.76129032258065,1.77096774193548,1.77741935483871,1.78387096774194,1.79032258064516,1.7741935483871,1.72258064516129,1.64193548387097,1.53870967741935,1.44193548387097,1.3741935483871,1.3258064516129,1.29032258064516,1.27096774193548,1.27741935483871,1.28709677419355,1.28709677419355,1.29032258064516,1.29354838709677,1.28709677419355,1.27741935483871,1.28387096774194,1.28709677419355,1.2741935483871,1.27096774193548,1.29032258064516,1.31290322580645,1.3,1.27741935483871,1.2741935483871,1.29354838709677,1.31612903225806,1.31612903225806,1.3,1.28387096774194,1.29032258064516,1.30645161290323,1.31612903225806,1.3,1.29354838709677,1.30967741935484,1.3258064516129,1.31935483870968,1.31290322580645,1.3258064516129,1.33870967741935,1.33225806451613,1.31935483870968,1.32258064516129,1.33548387096774,1.34193548387097,1.33870967741935,1.33548387096774,1.33548387096774,1.34838709677419,1.36451612903226,1.3741935483871,1.38709677419355,1.39032258064516,1.37741935483871,1.39354838709677,1.45161290322581,1.48064516129032,1.45161290322581,1.41935483870968,1.41290322580645,1.38709677419355,1.34838709677419,1.33548387096774,1.34193548387097,1.35161290322581,1.36774193548387,1.36451612903226,1.3258064516129,1.39354838709677,1.73225806451613,2.10322580645161,1.91612903225806,1.09354838709677,0.432258064516129,0.535483870967742,0.990322580645161,1.2,1.24193548387097,1.35806451612903,1.44516129032258,1.4258064516129,1.42903225806452,1.47741935483871,1.49032258064516,1.48387096774194,1.50967741935484,1.53870967741935,1.54838709677419,1.56451612903226,1.59032258064516,1.6,1.60645161290323,1.64193548387097,1.68709677419355,1.71612903225806,1.72903225806452,1.75483870967742,1.78709677419355,1.79354838709677,1.78387096774194,1.79354838709677,1.78709677419355,1.72903225806452,1.64516129032258,1.56129032258065,1.4741935483871,1.39032258064516,1.33225806451613,1.30967741935484,1.29032258064516,1.2741935483871,1.26774193548387,1.27741935483871,1.29032258064516,1.29354838709677,1.28709677419355,1.2741935483871,1.2741935483871,1.28064516129032,1.29032258064516,1.28709677419355,1.29032258064516,1.3,1.3,1.28709677419355,1.28387096774194,1.29354838709677,1.3,1.30322580645161,1.29677419354839,1.28709677419355,1.29032258064516,1.30967741935484,1.30967741935484,1.29677419354839,1.30322580645161,1.31935483870968,1.32258064516129,1.31290322580645,1.30967741935484,1.31290322580645,1.31612903225806,1.3258064516129,1.34193548387097,1.33870967741935,1.3258064516129,1.33548387096774,1.3741935483871,1.39677419354839,1.39677419354839,1.39677419354839,1.41612903225806,1.43548387096774,1.42258064516129,1.39677419354839,1.38709677419355,1.38709677419355,1.37096774193548,1.34838709677419,1.32903225806452,1.3258064516129,1.33548387096774,1.33870967741935,1.3258064516129,1.41612903225806,1.74193548387097,2.09354838709677,1.91290322580645,1.12258064516129,0.458064516129032,0.519354838709677,0.935483870967742,1.14838709677419,1.2258064516129,1.37096774193548,1.46129032258065,1.4258064516129,1.41290322580645,1.45806451612903,1.48064516129032,1.5,1.52903225806452,1.53870967741935,1.53548387096774,1.55483870967742,1.59354838709677,1.61612903225806,1.63548387096774,1.65483870967742,1.67741935483871,1.70645161290323,1.75161290322581,1.79032258064516,1.80645161290323,1.81290322580645,1.82258064516129,1.82258064516129,1.79354838709677,1.73548387096774,1.64193548387097,1.5258064516129,1.43548387096774,1.38064516129032,1.33225806451613,1.28387096774194,1.26129032258065,1.24838709677419,1.24193548387097,1.25161290322581,1.27741935483871,1.27741935483871,1.26451612903226,1.26129032258065,1.27096774193548,1.2741935483871,1.2741935483871,1.28709677419355,1.29354838709677,1.29032258064516,1.28064516129032,1.27096774193548,1.26451612903226,1.2741935483871,1.28709677419355,1.28387096774194,1.27096774193548,1.28387096774194,1.30322580645161,1.29677419354839,1.28387096774194,1.29354838709677,1.30645161290323,1.30645161290323,1.30322580645161,1.30967741935484,1.31612903225806,1.33225806451613,1.36451612903226,1.38064516129032,1.36774193548387,1.3741935483871,1.40645161290323,1.42258064516129,1.40645161290323,1.39354838709677,1.37741935483871,1.33870967741935,1.31612903225806,1.3258064516129,1.32903225806452,1.32258064516129,1.33548387096774,1.33870967741935,1.33548387096774,1.51290322580645,1.93870967741935,2.16129032258065,1.64838709677419,0.751612903225806,0.406451612903226,0.761290322580645,1.11935483870968,1.18387096774194,1.26129032258065,1.41290322580645,1.44838709677419,1.41290322580645,1.45161290322581,1.5,1.49677419354839,1.49677419354839,1.5258064516129,1.55161290322581,1.56129032258065,1.5741935483871,1.6,1.61935483870968,1.64516129032258,1.67096774193548,1.70645161290323,1.74838709677419,1.8,1.83548387096774,1.83225806451613,1.82258064516129,1.82903225806452,1.8258064516129,1.7741935483871,1.68064516129032,1.5741935483871,1.46451612903226,1.38387096774194,1.34516129032258,1.31612903225806,1.28709677419355,1.27741935483871,1.28064516129032,1.27096774193548,1.2741935483871,1.29032258064516,1.29032258064516,1.28064516129032,1.27741935483871,1.28709677419355,1.29032258064516,1.29354838709677,1.30645161290323,1.31290322580645,1.3,1.28387096774194,1.28387096774194,1.29677419354839,1.30322580645161,1.29354838709677,1.29354838709677,1.30322580645161,1.31612903225806,1.31935483870968,1.30967741935484,1.30645161290323,1.31612903225806,1.32903225806452,1.3258064516129,1.31612903225806,1.31290322580645,1.31935483870968,1.32903225806452,1.34838709677419,1.36129032258065,1.36129032258065,1.38387096774194,1.42903225806452,1.44516129032258,1.42903225806452,1.41612903225806,1.41290322580645,1.37741935483871,1.3258064516129,1.30967741935484,1.32258064516129,1.3258064516129,1.3258064516129,1.3258064516129,1.29354838709677,1.30967741935484,1.5741935483871,2.0258064516129,2.10967741935484,1.43548387096774,0.590322580645161,0.445161290322581,0.87741935483871,1.17741935483871,1.21935483870968,1.30645161290323,1.40645161290323,1.4,1.38387096774194,1.42258064516129,1.43548387096774,1.43870967741935,1.46451612903226,1.49032258064516,1.49677419354839,1.51290322580645,1.52903225806452,1.53548387096774,1.55806451612903,1.59677419354839,1.62903225806452,1.65161290322581,1.6741935483871,1.7,1.70967741935484,1.71935483870968,1.73225806451613,1.72903225806452,1.69354838709677,1.64516129032258,1.57741935483871,1.47741935483871,1.36451612903226,1.27741935483871,1.23225806451613,1.20967741935484,1.18709677419355,1.16774193548387,1.15483870967742,1.14838709677419,1.14193548387097,1.13548387096774
1.31290322580645,1.30967741935484,1.28709677419355,1.28709677419355,1.31612903225806,1.33870967741935,1.34838709677419,1.35806451612903,1.3741935483871,1.39677419354839,1.40322580645161,1.40322580645161,1.39677419354839,1.36774193548387,1.32903225806452,1.31935483870968,1.3258064516129,1.30967741935484,1.3,1.32903225806452,1.32903225806452,1.29354838709677,1.4258064516129,1.83548387096774,2.13870967741935,1.7741935483871,0.909677419354839,0.412903225806452,0.651612903225806,1.05483870967742,1.17741935483871,1.22903225806452,1.37096774193548,1.43225806451613,1.4,1.42258064516129,1.48064516129032,1.48064516129032,1.45483870967742,1.46774193548387,1.51290322580645,1.55161290322581,1.56451612903226,1.55806451612903,1.5741935483871,1.61290322580645,1.65806451612903,1.69677419354839,1.72903225806452,1.75161290322581,1.78064516129032,1.8,1.8,1.79032258064516,1.7741935483871,1.73548387096774,1.65483870967742,1.54516129032258,1.44516129032258,1.39354838709677,1.35483870967742,1.30645161290323,1.2741935483871,1.2741935483871,1.27096774193548,1.25806451612903,1.26451612903226,1.28387096774194,1.28387096774194,1.28387096774194,1.3,1.30322580645161,1.28387096774194,1.28709677419355,1.31935483870968,1.31612903225806,1.29032258064516,1.28387096774194,1.30322580645161,1.30322580645161,1.29032258064516,1.28709677419355,1.3,1.31612903225806,1.32258064516129,1.30967741935484,1.29354838709677,1.30645161290323,1.33548387096774,1.32903225806452,1.30322580645161,1.30967741935484,1.35483870967742,1.3741935483871,1.35483870967742,1.34838709677419,1.37741935483871,1.40322580645161,1.40322580645161,1.40645161290323,1.42903225806452,1.43548387096774,1.39354838709677,1.34193548387097,1.3258064516129,1.3258064516129,1.31290322580645,1.3258064516129,1.36129032258065,1.33548387096774,1.30645161290323,1.5,1.94193548387097,2.15161290322581,1.67096774193548,0.838709677419355,0.467741935483871,0.745161290322581,1.1,1.2258064516129,1.30322580645161,1.39677419354839,1.40967741935484,1.40645161290323,1.44838709677419,1.46451612903226,1.44516129032258,1.46129032258065,1.49677419354839,1.50322580645161,1.50322580645161,1.53548387096774,1.5741935483871,1.6,1.60967741935484,1.63870967741935,1.68387096774194,1.7258064516129,1.74516129032258,1.76451612903226,1.78064516129032,1.77741935483871,1.77096774193548,1.77096774193548,1.73225806451613,1.64193548387097,1.54516129032258,1.47741935483871,1.40645161290323,1.32903225806452,1.29032258064516,1.3,1.29677419354839,1.2741935483871,1.26129032258065,1.27096774193548,1.28064516129032,1.28387096774194,1.28709677419355,1.27741935483871,1.26774193548387,1.27741935483871,1.29677419354839,1.3,1.29354838709677,1.30322580645161,1.31935483870968,1.31935483870968,1.29677419354839,1.27741935483871,1.28064516129032,1.29677419354839,1.3,1.30645161290323,1.31612903225806,1.31290322580645,1.30322580645161,1.32903225806452,1.36451612903226,1.35161290322581,1.30645161290323,1.30322580645161,1.34193548387097,1.37096774193548,1.37096774193548,1.37096774193548,1.39354838709677,1.4258064516129,1.43870967741935,1.4258064516129,1.40322580645161,1.38387096774194,1.36129032258065,1.33548387096774,1.31935483870968,1.31935483870968,1.3258064516129,1.32903225806452,1.3258064516129,1.31935483870968,1.42903225806452,1.7741935483871,2.1,1.84516129032258,1.02903225806452,0.454838709677419,0.612903225806452,1.0258064516129,1.19354838709677,1.25806451612903,1.38387096774194,1.43870967741935,1.4,1.42258064516129,1.48064516129032,1.48064516129032,1.46451612903226,1.48387096774194,1.51290322580645,1.52903225806452,1.55483870967742,1.5741935483871,1.57741935483871,1.6,1.65161290322581,1.7,1.7258064516129,1.74516129032258,1.77096774193548,1.8,1.80967741935484,1.78709677419355,1.75806451612903,1.73548387096774,1.70322580645161,1.62258064516129,1.50645161290323,1.40645161290323,1.33870967741935,1.3,1.28387096774194,1.28064516129032,1.2741935483871,1.26774193548387,1.26451612903226,1.27096774193548,1.28064516129032,1.28064516129032,1.2741935483871,1.2741935483871,1.28709677419355,1.30645161290323,1.31935483870968,1.30645161290323,1.27741935483871,1.27096774193548,1.28709677419355,1.28064516129032,1.26451612903226,1.28064516129032,1.30967741935484,1.31290322580645,1.30322580645161,1.31612903225806,1.32258064516129,1.30645161290323,1.29032258064516,1.29677419354839,1.31935483870968,1.35161290322581,1.37096774193548,1.35161290322581,1.33548387096774,1.37741935483871,1.43870967741935,1.44193548387097,1.40645161290323,1.39677419354839,1.38709677419355,1.35161290322581,1.3258064516129,1.32258064516129,1.30967741935484,1.3,1.31935483870968,1.32903225806452,1.33548387096774,1.52903225806452,1.94193548387097,2.13870967741935,1.65161290322581,0.8,0.425806451612903,0.706451612903226,1.07096774193548,1.18387096774194,1.25806451612903,1.38064516129032,1.42258064516129,1.4,1.43548387096774,1.48387096774194,1.48064516129032,1.46451612903226,1.49354838709677,1.53225806451613,1.54516129032258,1.54838709677419,1.56774193548387,1.60322580645161,1.64516129032258,1.6741935483871,1.68709677419355,1.70967741935484,1.75806451612903,1.80322580645161,1.81290322580645,1.8,1.79032258064516,1.78387096774194,1.74838709677419,1.6741935483871,1.57741935483871,1.4741935483871,1.38387096774194,1.32258064516129,1.29677419354839,1.28387096774194,1.2741935483871,1.26129032258065,1.25483870967742,1.25483870967742,1.27096774193548,1.29677419354839,1.30322580645161,1.28064516129032,1.2741935483871,1.30645161290323,1.3258064516129,1.29354838709677,1.25483870967742,1.26774193548387,1.30322580645161,1.30645161290323,1.28387096774194,1.27741935483871,1.28387096774194,1.28387096774194,1.28709677419355,1.30322580645161,1.31935483870968,1.3258064516129,1.32258064516129,1.30645161290323,1.29354838709677,1.30645161290323,1.33870967741935,1.36129032258065,1.36774193548387,1.3741935483871,1.38709677419355,1.40322580645161,1.40967741935484,1.40322580645161,1.40322580645161,1.39354838709677,1.35483870967742,1.3258064516129,1.3258064516129,1.32258064516129,1.31935483870968,1.33548387096774,1.33548387096774,1.30967741935484,1.43870967741935,1.83870967741935,2.13548387096774,1.76774193548387,0.916129032258065,0.435483870967742,0.67741935483871,1.07741935483871,1.20645161290323,1.25483870967742,1.38064516129032,1.43870967741935,1.40967741935484,1.40967741935484,1.44838709677419,1.46451612903226,1.46774193548387,1.49032258064516,1.5258064516129,1.53870967741935,1.5258064516129,1.53225806451613,1.58064516129032,1.63548387096774,1.64838709677419,1.65161290322581,1.69677419354839,1.75483870967742,1.7741935483871,1.7741935483871,1.78709677419355,1.78709677419355,1.76129032258065,1.73225806451613,1.69032258064516,1.60322580645161,1.48709677419355,1.4,1.35161290322581,1.31935483870968,1.29032258064516,1.28064516129032,1.29354838709677,1.29677419354839,1.28064516129032,1.27096774193548,1.28064516129032,1.29032258064516,1.28709677419355,1.28064516129032,1.29032258064516,1.30645161290323,1.30967741935484,1.30322580645161,1.30322580645161,1.30322580645161,1.3,1.3,1.30967741935484,1.30645161290323,1.3,1.30967741935484,1.32258064516129,1.31290322580645,1.30322580645161,1.31290322580645,1.3258064516129,1.33225806451613,1.34838709677419,1.36774193548387,1.3741935483871,1.3741935483871,1.39677419354839,1.42258064516129,1.4258064516129,1.41935483870968,1.41290322580645,1.39032258064516,1.34516129032258,1.31612903225806,1.31290322580645,1.31290322580645,1.31612903225806,1.32903225806452,1.32903225806452,1.30322580645161,1.4258064516129,1.80967741935484,2.12258064516129,1.79354838709677,0.932258064516129,0.409677419354839,0.645161290322581,1.0741935483871,1.2,1.23225806451613,1.36451612903226,1.43548387096774,1.40967741935484,1.41935483870968,1.46129032258065,1.45806451612903,1.45806451612903,1.50322580645161,1.53870967741935,1.53548387096774,1.53225806451613,1.55483870967742,1.58709677419355,1.60967741935484,1.63548387096774,1.67741935483871,1.72903225806452,1.75806451612903,1.76129032258065,1.78064516129032,1.80645161290323,1.79677419354839,1.75483870967742,1.73225806451613,1.7,1.6,1.47741935483871,1.40322580645161,1.36774193548387,1.32258064516129,1.28387096774194,1.26129032258065,1.26129032258065,1.27096774193548,1.27741935483871,1.27741935483871,1.27741935483871,1.28064516129032,1.27741935483871,1.27096774193548,1.27741935483871,1.28709677419355,1.29354838709677,1.29032258064516,1.28387096774194,1.28064516129032,1.28064516129032,1.28709677419355,1.29354838709677,1.29677419354839,1.29032258064516,1.28387096774194,1.29032258064516,1.30322580645161,1.31612903225806,1.32258064516129,1.31612903225806,1.31612903225806,1.34516129032258,1.37096774193548,1.35806451612903,1.35161290322581,1.39354838709677,1.44838709677419,1.45161290322581,1.41290322580645,1.36451612903226,1.32903225806452,1.32258064516129,1.31935483870968,1.29354838709677,1.28709677419355,1.31935483870968,1.3258064516129,1.30967741935484,1.45806451612903,1.85483870967742,2.11290322580645,1.7258064516129,0.880645161290323,0.396774193548387,0.609677419354839,1.00967741935484,1.16129032258065,1.2258064516129,1.35483870967742,1.4258064516129,1.41290322580645,1.4258064516129,1.46451612903226,1.4741935483871,1.47741935483871,1.49677419354839,1.51612903225806,1.52258064516129,1.54516129032258,1.58064516129032,1.60645161290323,1.62258064516129,1.65161290322581,1.69032258064516,1.73548387096774,1.76451612903226,1.78064516129032,1.79677419354839,1.81935483870968,1.82258064516129,1.79677419354839,1.75483870967742,1.68709677419355,1.58709677419355,1.48709677419355,1.41290322580645,1.34838709677419,1.29354838709677,1.28387096774194,1.3,1.29677419354839,1.26451612903226,1.24516129032258,1.26451612903226,1.28709677419355,1.28387096774194,1.27741935483871,1.28387096774194,1.29032258064516,1.29677419354839,1.30322580645161,1.3,1.28387096774194,1.28709677419355,1.30967741935484,1.30322580645161,1.28064516129032,1.28387096774194,1.30967741935484,1.32258064516129,1.31290322580645,1.30322580645161,1.31290322580645,1.33548387096774,1.35161290322581,1.36774193548387,1.38709677419355,1.4,1.39677419354839,1.38387096774194,1.36774193548387,1.34838709677419,1.31935483870968,1.30322580645161,1.30967741935484,1.32258064516129,1.33225806451613,1.3258064516129,1.3,1.36451612903226,1.67741935483871,2.07096774193548,1.97741935483871,1.2258064516129,0.509677419354839,0.493548387096774,0.9,1.13225806451613,1.2,1.32903225806452,1.42903225806452,1.40645161290323,1.4,1.44193548387097,1.45161290322581,1.44838709677419,1.5,1.55806451612903,1.55161290322581,1.52258064516129,1.54193548387097,1.60645161290323,1.64193548387097,1.63870967741935,1.65161290322581,1.70645161290323,1.75161290322581,1.76129032258065,1.7741935483871,1.79677419354839,1.80322580645161,1.78709677419355,1.77096774193548,1.71612903225806,1.61290322580645,1.49677419354839,1.41612903225806,1.34838709677419,1.29354838709677,1.2741935483871,1.2741935483871,1.26451612903226,1.25806451612903,1.27096774193548,1.28387096774194,1.28387096774194,1.27096774193548,1.26774193548387,1.28387096774194,1.30645161290323,1.30645161290323,1.29032258064516,1.29677419354839,1.31612903225806,1.30322580645161,1.27096774193548,1.2741935483871,1.29032258064516,1.29032258064516,1.29354838709677,1.31290322580645,1.30645161290323,1.28709677419355,1.29677419354839,1.33548387096774,1.36774193548387,1.3741935483871,1.36129032258065,1.36129032258065,1.38709677419355,1.40645161290323,1.40322580645161,1.38709677419355,1.37096774193548,1.34838709677419,1.32903225806452,1.31612903225806,1.30967741935484,1.31935483870968,1.33870967741935,1.31612903225806,1.27096774193548,1.40645161290323,1.82258064516129,2.15483870967742,1.82903225806452,0.97741935483871,0.454838709677419,0.664516129032258,1.06774193548387,1.2,1.24838709677419,1.38064516129032,1.44193548387097,1.39677419354839,1.39677419354839,1.45806451612903,1.48709677419355,1.4741935483871,1.48064516129032,1.51612903225806,1.53870967741935,1.53870967741935,1.55161290322581,1.58387096774194,1.61290322580645,1.64516129032258,1.68709677419355,1.71935483870968,1.7258064516129,1.74516129032258,1.78064516129032,1.79677419354839,1.78709677419355,1.76451612903226,1.7258064516129,1.66129032258065,1.59354838709677,1.50967741935484,1.40967741935484,1.33225806451613,1.30967741935484,1.30322580645161,1.28387096774194,1.27741935483871,1.28709677419355,1.28387096774194,1.25806451612903,1.25806451612903,1.29354838709677,1.30967741935484,1.28064516129032,1.26451612903226,1.29677419354839,1.32258064516129,1.30322580645161,1.28387096774194,1.29354838709677,1.30322580645161,1.29677419354839,1.28064516129032,1.28064516129032,1.29354838709677,1.3,1.29032258064516,1.29032258064516,1.31290322580645,1.32903225806452,1.33225806451613,1.34193548387097,1.35483870967742,1.35483870967742,1.35806451612903,1.38709677419355,1.40322580645161,1.40645161290323,1.40967741935484,1.4,1.35806451612903,1.31612903225806,1.3,1.29677419354839,1.30322580645161,1.31612903225806,1.31290322580645,1.29032258064516,1.36774193548387,1.69354838709677,2.09354838709677,2.01935483870968,1.27096774193548,0.525806451612903,0.490322580645161,0.912903225806452,1.16774193548387,1.22903225806452,1.32258064516129,1.39354838709677,1.3741935483871,1.38709677419355,1.43870967741935,1.45161290322581,1.45806451612903,1.48387096774194,1.49677419354839,1.50322580645161,1.53548387096774,1.56774193548387,1.5741935483871,1.58387096774194,1.6258064516129,1.66774193548387,1.69032258064516,1.70645161290323,1.73870967741935,1.77096774193548,1.78387096774194,1.78064516129032,1.7741935483871,1.74516129032258,1.68709677419355,1.62258064516129,1.53548387096774,1.43548387096774,1.35483870967742,1.31935483870968,1.29677419354839,1.26774193548387,1.25806451612903,1.27096774193548,1.28064516129032,1.27096774193548,1.25806451612903,1.25806451612903,1.26774193548387,1.28387096774194,1.30322580645161,1.30322580645161,1.29354838709677,1.29032258064516,1.29677419354839,1.29354838709677,1.28064516129032,1.28064516129032,1.3,1.29677419354839,1.28064516129032,1.28387096774194,1.30645161290323,1.30967741935484,1.3,1.30322580645161,1.31935483870968,1.3258064516129,1.34516129032258,1.36451612903226,1.3741935483871,1.39354838709677,1.41935483870968,1.4258064516129,1.40967741935484,1.38387096774194,1.35483870967742,1.33548387096774,1.33225806451613,1.31290322580645,1.28064516129032,1.29354838709677,1.33548387096774,1.33548387096774,1.35806451612903,1.60322580645161,2.03548387096774,2.15483870967742,1.55806451612903,0.690322580645161,0.409677419354839,0.767741935483871,1.10322580645161,1.1741935483871,1.26129032258065,1.40645161290323,1.43548387096774,1.40967741935484,1.43548387096774,1.46129032258065,1.46774193548387,1.48709677419355,1.51290322580645,1.5258064516129,1.53225806451613,1.54838709677419,1.57741935483871,1.61935483870968,1.65483870967742,1.6741935483871,1.7,1.73870967741935,1.77096774193548,1.78064516129032,1.78387096774194,1.79677419354839,1.79677419354839,1.77096774193548,1.73225806451613,1.68387096774194,1.58709677419355,1.46129032258065,1.3741935483871,1.33870967741935,1.30322580645161,1.2741935483871,1.28064516129032,1.29032258064516,1.26774193548387,1.25806451612903,1.26774193548387,1.27741935483871,1.28387096774194,1.29677419354839,1.30645161290323,1.29677419354839,1.29032258064516,1.29354838709677,1.30322580645161,1.3,1.29354838709677,1.28709677419355,1.29032258064516,1.3,1.31290322580645,1.30967741935484,1.29032258064516,1.29032258064516,1.32903225806452,1.36451612903226,1.35806451612903,1.34838709677419,1.37096774193548,1.4,1.39354838709677,1.37741935483871,1.36774193548387,1.34516129032258,1.31612903225806,1.31290322580645,1.31290322580645,1.29354838709677,1.29354838709677,1.32258064516129,1.30967741935484,1.32903225806452,1.6258064516129,2.10645161290323,2.15806451612903,1.43548387096774,0.574193548387097,0.432258064516129,0.845161290322581,1.12258064516129,1.18387096774194,1.31290322580645,1.44193548387097,1.42258064516129,1.39354838709677,1.43870967741935,1.46451612903226,1.45806451612903,1.4741935483871,1.49677419354839,1.50967741935484,1.53548387096774,1.57096774193548,1.58387096774194,1.59354838709677,1.6258064516129,1.66774193548387,1.70322580645161,1.72903225806452,1.74838709677419,1.76129032258065,1.78709677419355,1.81612903225806,1.8,1.73548387096774,1.66774193548387,1.6258064516129,1.55161290322581,1.43225806451613,1.3258064516129,1.28387096774194,1.28709677419355,1.28709677419355,1.27096774193548,1.25483870967742,1.26451612903226,1.29032258064516,1.29354838709677,1.28064516129032,1.28064516129032,1.2741935483871,1.26451612903226,1.28387096774194,1.31612903225806,1.31290322580645,1.27741935483871,1.26774193548387,1.28387096774194,1.28064516129032,1.27096774193548,1.29032258064516,1.31290322580645,1.31290322580645,1.30322580645161,1.3,1.30322580645161,1.3258064516129,1.34193548387097,1.34838709677419,1.37096774193548,1.40645161290323,1.41612903225806,1.39032258064516,1.37096774193548,1.35161290322581,1.31612903225806,1.29677419354839,1.30967741935484,1.30967741935484,1.29032258064516,1.29032258064516,1.29032258064516,1.3258064516129,1.58709677419355,2.04193548387097,2.15806451612903,1.50967741935484,0.629032258064516,0.416129032258065,0.835483870967742,1.16451612903226,1.20645161290323,1.28064516129032,1.40645161290323,1.41612903225806,1.39354838709677,1.42903225806452,1.45483870967742,1.45161290322581,1.47096774193548,1.49032258064516,1.48387096774194,1.49677419354839,1.54193548387097,1.5741935483871,1.58064516129032,1.60322580645161,1.64516129032258,1.68709677419355,1.71612903225806,1.73548387096774,1.75161290322581,1.77096774193548,1.76774193548387,1.73870967741935,1.70967741935484,1.68064516129032,1.62258064516129,1.51935483870968,1.41290322580645,1.34516129032258,1.32258064516129,1.30967741935484,1.28064516129032,1.26129032258065,1.27096774193548,1.28387096774194,1.2741935483871,1.26451612903226,1.27741935483871,1.28709677419355,1.28064516129032,1.28064516129032,1.29677419354839,1.30322580645161,1.27741935483871,1.26451612903226,1.28709677419355,1.30322580645161,1.29354838709677,1.27741935483871,1.28387096774194,1.29032258064516,1.28064516129032,1.27741935483871,1.29677419354839,1.31612903225806,1.30967741935484,1.29354838709677,1.3,1.33548387096774,1.3741935483871,1.38064516129032,1.37741935483871,1.39032258064516,1.41290322580645,1.41290322580645,1.39677419354839,1.38064516129032,1.35161290322581,1.3258064516129,1.31612903225806,1.31935483870968,1.32903225806452,1.33870967741935,1.33548387096774,1.31290322580645,1.34193548387097,1.58064516129032,1.98709677419355,2.0741935483871,1.46774193548387,0.635483870967742,0.42258064516129,0.835483870967742,1.17741935483871,1.23548387096774,1.30645161290323,1.43225806451613,1.44838709677419,1.41290322580645,1.43870967741935,1.48064516129032,1.49032258064516,1.49677419354839,1.51612903225806,1.53870967741935,1.55161290322581,1.55806451612903,1.56451612903226,1.60322580645161,1.66129032258065,1.7,1.71935483870968,1.74516129032258,1.77096774193548,1.78064516129032,1.78709677419355,1.80645161290323,1.81935483870968,1.79032258064516,1.73225806451613,1.67096774193548,1.59354838709677,1.48064516129032,1.39354838709677,1.36129032258065,1.33548387096774,1.29354838709677,1.28387096774194,1.30322580645161,1.30645161290323,1.3,1.31935483870968,1.33870967741935,1.33225806451613,1.3,1.28387096774194,1.29677419354839,1.31935483870968,1.32258064516129,1.30645161290323,1.29677419354839,1.31612903225806,1.33225806451613,1.33548387096774,1.33225806451613,1.32903225806452,1.3258064516129,1.32258064516129,1.33225806451613,1.34516129032258,1.33225806451613,1.30967741935484,1.32258064516129,1.36774193548387,1.38709677419355,1.37741935483871,1.38387096774194,1.41612903225806,1.44193548387097,1.43225806451613,1.40322580645161,1.39032258064516,1.38709677419355,1.36451612903226,1.33225806451613,1.3258064516129,1.33870967741935,1.33225806451613,1.31612903225806,1.30645161290323,1.33870967741935,1.56451612903226,1.98387096774194,2.1258064516129,1.54838709677419,0.680645161290323,0.406451612903226,0.767741935483871,1.08709677419355,1.14516129032258,1.23548387096774,1.36774193548387,1.38709677419355,1.36451612903226,1.4,1.41935483870968,1.39677419354839,1.41290322580645,1.46129032258065,1.46451612903226,1.44516129032258,1.45806451612903,1.49677419354839,1.52903225806452,1.54838709677419,1.56451612903226,1.58387096774194,1.6,1.61290322580645,1.63870967741935,1.65483870967742,1.65483870967742,1.64193548387097,1.61290322580645,1.55483870967742,1.45806451612903,1.35161290322581,1.25806451612903,1.17096774193548,1.08387096774194,1.03225806451613
1.74838709677419,1.70322580645161,1.61290322580645,1.51612903225806,1.43225806451613,1.35483870967742,1.30967741935484,1.30967741935484,1.31935483870968,1.29677419354839,1.27741935483871,1.28709677419355,1.3,1.29677419354839,1.28709677419355,1.28387096774194,1.29354838709677,1.31935483870968,1.33548387096774,1.31935483870968,1.3,1.30322580645161,1.3,1.29677419354839,1.31935483870968,1.32903225806452,1.30645161290323,1.29677419354839,1.3258064516129,1.34193548387097,1.32258064516129,1.31612903225806,1.32903225806452,1.33870967741935,1.33870967741935,1.34516129032258,1.36451612903226,1.38064516129032,1.40322580645161,1.42258064516129,1.43548387096774,1.43870967741935,1.42903225806452,1.39677419354839,1.35161290322581,1.31935483870968,1.31290322580645,1.30967741935484,1.32258064516129,1.35161290322581,1.35161290322581,1.32903225806452,1.46129032258065,1.85161290322581,2.14193548387097,1.7741935483871,0.909677419354839,0.419354838709677,0.670967741935484,1.09354838709677,1.23225806451613,1.28064516129032,1.39032258064516,1.42903225806452,1.40967741935484,1.44838709677419,1.49032258064516,1.47741935483871,1.47741935483871,1.52258064516129,1.54193548387097,1.5258064516129,1.53548387096774,1.58064516129032,1.61290322580645,1.6258064516129,1.64838709677419,1.68064516129032,1.71935483870968,1.75161290322581,1.77741935483871,1.79032258064516,1.79354838709677,1.79677419354839,1.78387096774194,1.74193548387097,1.6741935483871,1.59354838709677,1.49677419354839,1.41935483870968,1.37096774193548,1.32903225806452,1.28709677419355,1.27096774193548,1.28709677419355,1.28064516129032,1.26451612903226,1.27741935483871,1.30967741935484,1.31290322580645,1.29354838709677,1.29354838709677,1.30322580645161,1.29032258064516,1.28064516129032,1.29354838709677,1.30645161290323,1.30967741935484,1.30322580645161,1.3,1.30322580645161,1.30322580645161,1.29354838709677,1.28709677419355,1.30645161290323,1.3258064516129,1.32258064516129,1.31935483870968,1.33870967741935,1.35161290322581,1.35161290322581,1.37096774193548,1.40967741935484,1.41935483870968,1.39354838709677,1.36451612903226,1.34838709677419,1.33225806451613,1.31612903225806,1.31290322580645,1.31935483870968,1.33225806451613,1.32903225806452,1.29354838709677,1.33870967741935,1.64193548387097,2.07096774193548,2.1,1.43870967741935,0.629032258064516,0.458064516129032,0.841935483870968,1.13548387096774,1.19354838709677,1.29032258064516,1.41935483870968,1.41935483870968,1.39677419354839,1.45161290322581,1.48709677419355,1.45806451612903,1.45161290322581,1.49032258064516,1.51612903225806,1.52258064516129,1.53225806451613,1.55161290322581,1.59354838709677,1.64516129032258,1.66774193548387,1.68064516129032,1.71612903225806,1.75161290322581,1.75806451612903,1.76451612903226,1.78709677419355,1.78709677419355,1.74193548387097,1.68709677419355,1.6258064516129,1.52903225806452,1.42258064516129,1.35806451612903,1.33225806451613,1.30322580645161,1.27096774193548,1.26774193548387,1.27741935483871,1.26774193548387,1.25161290322581,1.25483870967742,1.27096774193548,1.28709677419355,1.28387096774194,1.27096774193548,1.27096774193548,1.29677419354839,1.30967741935484,1.29677419354839,1.28064516129032,1.28064516129032,1.28064516129032,1.28387096774194,1.30322580645161,1.30967741935484,1.28709677419355,1.26774193548387,1.28064516129032,1.30967741935484,1.33870967741935,1.34838709677419,1.34193548387097,1.33870967741935,1.37096774193548,1.41290322580645,1.40967741935484,1.38064516129032,1.37741935483871,1.38064516129032,1.34516129032258,1.30322580645161,1.3,1.30967741935484,1.31290322580645,1.3258064516129,1.32258064516129,1.30645161290323,1.46451612903226,1.88387096774194,2.13548387096774,1.68064516129032,0.809677419354839,0.42258064516129,0.741935483870968,1.1258064516129,1.21935483870968,1.26451612903226,1.38387096774194,1.43225806451613,1.41612903225806,1.43548387096774,1.46451612903226,1.45483870967742,1.45483870967742,1.48709677419355,1.52258064516129,1.5258064516129,1.51935483870968,1.54193548387097,1.59032258064516,1.61612903225806,1.62258064516129,1.65161290322581,1.70322580645161,1.73225806451613,1.73870967741935,1.74838709677419,1.76129032258065,1.76451612903226,1.75806451612903,1.71612903225806,1.64193548387097,1.56129032258065,1.49032258064516,1.40967741935484,1.33225806451613,1.29032258064516,1.28709677419355,1.3,1.3,1.28064516129032,1.27096774193548,1.28709677419355,1.3,1.28709677419355,1.27096774193548,1.2741935483871,1.29032258064516,1.3,1.30967741935484,1.31612903225806,1.3,1.27741935483871,1.28709677419355,1.31935483870968,1.33225806451613,1.30967741935484,1.28709677419355,1.29032258064516,1.30645161290323,1.31612903225806,1.3258064516129,1.33870967741935,1.35483870967742,1.36451612903226,1.3741935483871,1.38387096774194,1.40322580645161,1.40967741935484,1.4,1.37741935483871,1.33870967741935,1.30967741935484,1.31290322580645,1.3258064516129,1.31612903225806,1.30967741935484,1.31935483870968,1.31612903225806,1.38387096774194,1.69354838709677,2.07741935483871,1.93225806451613,1.13548387096774,0.480645161290323,0.596774193548387,1.03870967741935,1.20322580645161,1.2258064516129,1.35483870967742,1.43548387096774,1.40645161290323,1.42258064516129,1.4741935483871,1.46774193548387,1.44516129032258,1.4741935483871,1.5,1.50967741935484,1.54516129032258,1.57096774193548,1.56774193548387,1.58387096774194,1.63225806451613,1.66129032258065,1.68709677419355,1.7258064516129,1.75161290322581,1.74193548387097,1.74516129032258,1.77741935483871,1.78064516129032,1.73225806451613,1.66451612903226,1.59677419354839,1.51612903225806,1.42258064516129,1.34193548387097,1.30322580645161,1.3,1.30322580645161,1.28709677419355,1.27096774193548,1.28387096774194,1.3,1.29032258064516,1.28064516129032,1.28387096774194,1.28064516129032,1.2741935483871,1.28387096774194,1.3,1.30322580645161,1.29354838709677,1.28387096774194,1.28709677419355,1.29677419354839,1.30645161290323,1.31290322580645,1.3,1.28387096774194,1.29032258064516,1.31290322580645,1.3258064516129,1.32258064516129,1.33225806451613,1.35483870967742,1.36774193548387,1.3741935483871,1.39032258064516,1.4,1.39677419354839,1.40322580645161,1.4,1.36451612903226,1.32903225806452,1.32903225806452,1.34193548387097,1.32258064516129,1.30967741935484,1.32258064516129,1.30645161290323,1.34193548387097,1.64193548387097,2.07741935483871,2.04838709677419,1.3,0.519354838709677,0.467741935483871,0.9,1.16451612903226,1.21935483870968,1.33225806451613,1.43548387096774,1.41612903225806,1.39677419354839,1.44516129032258,1.49354838709677,1.50322580645161,1.50645161290323,1.50645161290323,1.50967741935484,1.53225806451613,1.56451612903226,1.59032258064516,1.61612903225806,1.64193548387097,1.65806451612903,1.68064516129032,1.72903225806452,1.77096774193548,1.76451612903226,1.75161290322581,1.76774193548387,1.78387096774194,1.76129032258065,1.70645161290323,1.64516129032258,1.55483870967742,1.44838709677419,1.3741935483871,1.33870967741935,1.30967741935484,1.29032258064516,1.29354838709677,1.30322580645161,1.29354838709677,1.28064516129032,1.28064516129032,1.29354838709677,1.30645161290323,1.3,1.28064516129032,1.28064516129032,1.31612903225806,1.32903225806452,1.29677419354839,1.27096774193548,1.2741935483871,1.29354838709677,1.30967741935484,1.32258064516129,1.30967741935484,1.29032258064516,1.30322580645161,1.33225806451613,1.33225806451613,1.30967741935484,1.31935483870968,1.35806451612903,1.36774193548387,1.36129032258065,1.38064516129032,1.41612903225806,1.42903225806452,1.40645161290323,1.36774193548387,1.33870967741935,1.31935483870968,1.31290322580645,1.30645161290323,1.3,1.30322580645161,1.31935483870968,1.31612903225806,1.36774193548387,1.66129032258065,2.07741935483871,2,1.2,0.429032258064516,0.432258064516129,0.890322580645161,1.13548387096774,1.18387096774194,1.32258064516129,1.43870967741935,1.40967741935484,1.3741935483871,1.4258064516129,1.46451612903226,1.45806451612903,1.46451612903226,1.50322580645161,1.52903225806452,1.53548387096774,1.54516129032258,1.57096774193548,1.6,1.60967741935484,1.6258064516129,1.67741935483871,1.73870967741935,1.75161290322581,1.73870967741935,1.75161290322581,1.77741935483871,1.77096774193548,1.73225806451613,1.68387096774194,1.63225806451613,1.55161290322581,1.43870967741935,1.33870967741935,1.29032258064516,1.28387096774194,1.28387096774194,1.26451612903226,1.25161290322581,1.26129032258065,1.27096774193548,1.27741935483871,1.28387096774194,1.2741935483871,1.24838709677419,1.24838709677419,1.27741935483871,1.28709677419355,1.27096774193548,1.27096774193548,1.29354838709677,1.29354838709677,1.2741935483871,1.2741935483871,1.28064516129032,1.28387096774194,1.30322580645161,1.32903225806452,1.33548387096774,1.33548387096774,1.34838709677419,1.36451612903226,1.36774193548387,1.37741935483871,1.39032258064516,1.37096774193548,1.32903225806452,1.30645161290323,1.30645161290323,1.3,1.29032258064516,1.30967741935484,1.33225806451613,1.3258064516129,1.34838709677419,1.55161290322581,1.93548387096774,2.1,1.59032258064516,0.712903225806452,0.348387096774194,0.683870967741935,1.06129032258065,1.14516129032258,1.23870967741935,1.4258064516129,1.48064516129032,1.42258064516129,1.43548387096774,1.49677419354839,1.51290322580645,1.51290322580645,1.53225806451613,1.54838709677419,1.55161290322581,1.56129032258065,1.59032258064516,1.6258064516129,1.64838709677419,1.66774193548387,1.71612903225806,1.7741935483871,1.80322580645161,1.80967741935484,1.82903225806452,1.83870967741935,1.8258064516129,1.79677419354839,1.75806451612903,1.68064516129032,1.58064516129032,1.48064516129032,1.4,1.33548387096774,1.29354838709677,1.29677419354839,1.31290322580645,1.30322580645161,1.28709677419355,1.3,1.31935483870968,1.30322580645161,1.28064516129032,1.28709677419355,1.3,1.29677419354839,1.28709677419355,1.28387096774194,1.28387096774194,1.29354838709677,1.31290322580645,1.32258064516129,1.30645161290323,1.29677419354839,1.30645161290323,1.31935483870968,1.3258064516129,1.33548387096774,1.35806451612903,1.3741935483871,1.38064516129032,1.38387096774194,1.3741935483871,1.34516129032258,1.32258064516129,1.31612903225806,1.31290322580645,1.29032258064516,1.28064516129032,1.29677419354839,1.30645161290323,1.30967741935484,1.45483870967742,1.82903225806452,2.09677419354839,1.71612903225806,0.848387096774194,0.358064516129032,0.616129032258064,1.03225806451613,1.15483870967742,1.20967741935484,1.35483870967742,1.42258064516129,1.39677419354839,1.41612903225806,1.46129032258065,1.46774193548387,1.45483870967742,1.46774193548387,1.49354838709677,1.51612903225806,1.52903225806452,1.54516129032258,1.58387096774194,1.63548387096774,1.65806451612903,1.66451612903226,1.68064516129032,1.71612903225806,1.75483870967742,1.7741935483871,1.77741935483871,1.7741935483871,1.74838709677419,1.7,1.63870967741935,1.56129032258065,1.47096774193548,1.39032258064516,1.3258064516129,1.28387096774194,1.26451612903226,1.28064516129032,1.28387096774194,1.26129032258065,1.25161290322581,1.27096774193548,1.27741935483871,1.27096774193548,1.27741935483871,1.29677419354839,1.29677419354839,1.28387096774194,1.28064516129032,1.28709677419355,1.28387096774194,1.2741935483871,1.28709677419355,1.3,1.28709677419355,1.27741935483871,1.29677419354839,1.31612903225806,1.31612903225806,1.33548387096774,1.36774193548387,1.38064516129032,1.3741935483871,1.38064516129032,1.39032258064516,1.36451612903226,1.31935483870968,1.30322580645161,1.31290322580645,1.30645161290323,1.28709677419355,1.29677419354839,1.30967741935484,1.27741935483871,1.29032258064516,1.54516129032258,2.00967741935484,2.15806451612903,1.54516129032258,0.638709677419355,0.374193548387097,0.803225806451613,1.17741935483871,1.22258064516129,1.28064516129032,1.40645161290323,1.40967741935484,1.37096774193548,1.42903225806452,1.48387096774194,1.46774193548387,1.46129032258065,1.50967741935484,1.52903225806452,1.50645161290323,1.51290322580645,1.56774193548387,1.60967741935484,1.62258064516129,1.63225806451613,1.66451612903226,1.70322580645161,1.73548387096774,1.76451612903226,1.78064516129032,1.76774193548387,1.74516129032258,1.73870967741935,1.71935483870968,1.64193548387097,1.52258064516129,1.43870967741935,1.40645161290323,1.36451612903226,1.31290322580645,1.29032258064516,1.28709677419355,1.28387096774194,1.28387096774194,1.28387096774194,1.28387096774194,1.28387096774194,1.29677419354839,1.30322580645161,1.30322580645161,1.30322580645161,1.3,1.29354838709677,1.29032258064516,1.3,1.30967741935484,1.30645161290323,1.29677419354839,1.3,1.30645161290323,1.31290322580645,1.31935483870968,1.32258064516129,1.32258064516129,1.33225806451613,1.35161290322581,1.36129032258065,1.36129032258065,1.36774193548387,1.38709677419355,1.40645161290323,1.41612903225806,1.42258064516129,1.41290322580645,1.39032258064516,1.36774193548387,1.35161290322581,1.32903225806452,1.30645161290323,1.30967741935484,1.33870967741935,1.32903225806452,1.31290322580645,1.49032258064516,1.91935483870968,2.16451612903226,1.69354838709677,0.793548387096774,0.364516129032258,0.674193548387097,1.09677419354839,1.2258064516129,1.28709677419355,1.40967741935484,1.44516129032258,1.40645161290323,1.43548387096774,1.48387096774194,1.46774193548387,1.43870967741935,1.48064516129032,1.55806451612903,1.56451612903226,1.52903225806452,1.54838709677419,1.61935483870968,1.65483870967742,1.65161290322581,1.65806451612903,1.70645161290323,1.74193548387097,1.75806451612903,1.77096774193548,1.78064516129032,1.77096774193548,1.74838709677419,1.71612903225806,1.67096774193548,1.59354838709677,1.49354838709677,1.40645161290323,1.34838709677419,1.30967741935484,1.28709677419355,1.28709677419355,1.27741935483871,1.25806451612903,1.25483870967742,1.27741935483871,1.28387096774194,1.2741935483871,1.28064516129032,1.3,1.29354838709677,1.2741935483871,1.28387096774194,1.3,1.3,1.29354838709677,1.3,1.30645161290323,1.28709677419355,1.26774193548387,1.28387096774194,1.31290322580645,1.30645161290323,1.29032258064516,1.29354838709677,1.30322580645161,1.3,1.30967741935484,1.33548387096774,1.35161290322581,1.36129032258065,1.3741935483871,1.38387096774194,1.39354838709677,1.40322580645161,1.39677419354839,1.36774193548387,1.33870967741935,1.3258064516129,1.31290322580645,1.30645161290323,1.31612903225806,1.33225806451613,1.33870967741935,1.31935483870968,1.39032258064516,1.71612903225806,2.09677419354839,1.93548387096774,1.14516129032258,0.480645161290323,0.541935483870968,0.941935483870968,1.13548387096774,1.19677419354839,1.33870967741935,1.43870967741935,1.41935483870968,1.41290322580645,1.45483870967742,1.46451612903226,1.45806451612903,1.49032258064516,1.52903225806452,1.53548387096774,1.53870967741935,1.57096774193548,1.6,1.60322580645161,1.61935483870968,1.67096774193548,1.72258064516129,1.74193548387097,1.74516129032258,1.75483870967742,1.76451612903226,1.7741935483871,1.78387096774194,1.77741935483871,1.73548387096774,1.64516129032258,1.52258064516129,1.4258064516129,1.36451612903226,1.31935483870968,1.29032258064516,1.28709677419355,1.29032258064516,1.2741935483871,1.25483870967742,1.25483870967742,1.27741935483871,1.30322580645161,1.3,1.28064516129032,1.28387096774194,1.31290322580645,1.3258064516129,1.3,1.28709677419355,1.29354838709677,1.29354838709677,1.29032258064516,1.3,1.30645161290323,1.29677419354839,1.29032258064516,1.29032258064516,1.28709677419355,1.29354838709677,1.31612903225806,1.31935483870968,1.30645161290323,1.31935483870968,1.34516129032258,1.34838709677419,1.35483870967742,1.38387096774194,1.41290322580645,1.41935483870968,1.40967741935484,1.39032258064516,1.35806451612903,1.33225806451613,1.33548387096774,1.33548387096774,1.31290322580645,1.30645161290323,1.3258064516129,1.32903225806452,1.30645161290323,1.44193548387097,1.85161290322581,2.16774193548387,1.80322580645161,0.92258064516129,0.409677419354839,0.638709677419355,1.05161290322581,1.18709677419355,1.24516129032258,1.38064516129032,1.44516129032258,1.40645161290323,1.41935483870968,1.48064516129032,1.49677419354839,1.48064516129032,1.48387096774194,1.50967741935484,1.52903225806452,1.54516129032258,1.5741935483871,1.60645161290323,1.62258064516129,1.63870967741935,1.6741935483871,1.71612903225806,1.73870967741935,1.75483870967742,1.77741935483871,1.77741935483871,1.76129032258065,1.76129032258065,1.75806451612903,1.70322580645161,1.60967741935484,1.50967741935484,1.41290322580645,1.34838709677419,1.32903225806452,1.31612903225806,1.28387096774194,1.27096774193548,1.28709677419355,1.29677419354839,1.28064516129032,1.2741935483871,1.29032258064516,1.30645161290323,1.31612903225806,1.30967741935484,1.29354838709677,1.28709677419355,1.29032258064516,1.29677419354839,1.30967741935484,1.32258064516129,1.31612903225806,1.29354838709677,1.29032258064516,1.3,1.3,1.3,1.30645161290323,1.31935483870968,1.3258064516129,1.31612903225806,1.30967741935484,1.32258064516129,1.33870967741935,1.33225806451613,1.3258064516129,1.34516129032258,1.37741935483871,1.39032258064516,1.38064516129032,1.3741935483871,1.4,1.44838709677419,1.45806451612903,1.40967741935484,1.36774193548387,1.3741935483871,1.38387096774194,1.35483870967742,1.3258064516129,1.33225806451613,1.35161290322581,1.33870967741935,1.31290322580645,1.43548387096774,1.82258064516129,2.14838709677419,1.83548387096774,0.970967741935484,0.432258064516129,0.651612903225806,1.07741935483871,1.21612903225806,1.25483870967742,1.38387096774194,1.44838709677419,1.42258064516129,1.4258064516129,1.46129032258065,1.47096774193548,1.47096774193548,1.48387096774194,1.49677419354839,1.52258064516129,1.55161290322581,1.56129032258065,1.5741935483871,1.61935483870968,1.66129032258065,1.6741935483871,1.67741935483871,1.70645161290323,1.74193548387097,1.75483870967742,1.75161290322581,1.75161290322581,1.75161290322581,1.73548387096774,1.69677419354839,1.62903225806452,1.51935483870968,1.40967741935484,1.35161290322581,1.32903225806452,1.3,1.28064516129032,1.28064516129032,1.29032258064516,1.28709677419355,1.28064516129032,1.2741935483871,1.2741935483871,1.2741935483871,1.2741935483871,1.29354838709677,1.30967741935484,1.3,1.27741935483871,1.28387096774194,1.30322580645161,1.30322580645161,1.28387096774194,1.2741935483871,1.28064516129032,1.29032258064516,1.29677419354839,1.29354838709677,1.29354838709677,1.29354838709677,1.29677419354839,1.29677419354839,1.29354838709677,1.3,1.30645161290323,1.30967741935484,1.30967741935484,1.30967741935484,1.31290322580645,1.31935483870968,1.32903225806452,1.34838709677419,1.3741935483871,1.38387096774194,1.37741935483871,1.39032258064516,1.43548387096774,1.45483870967742,1.41935483870968,1.3741935483871,1.36774193548387,1.37741935483871,1.36451612903226,1.33225806451613,1.31935483870968,1.33870967741935,1.35806451612903,1.33225806451613,1.3,1.43870967741935,1.8258064516129,2.11612903225806,1.77741935483871,0.935483870967742,0.419354838709677,0.638709677419355,1.06451612903226,1.21935483870968,1.25806451612903,1.36129032258065,1.42903225806452,1.4258064516129,1.45161290322581,1.47741935483871,1.47096774193548,1.4741935483871,1.50645161290323,1.51935483870968,1.51290322580645,1.52258064516129,1.5741935483871,1.62903225806452,1.64193548387097,1.63548387096774,1.65483870967742,1.70645161290323,1.74193548387097,1.75483870967742,1.76451612903226,1.7741935483871,1.79032258064516,1.79032258064516,1.75483870967742,1.68709677419355,1.62903225806452,1.5741935483871,1.48387096774194,1.37741935483871,1.31935483870968,1.30967741935484,1.29677419354839,1.27741935483871,1.28387096774194,1.29354838709677,1.27741935483871,1.27096774193548,1.30322580645161,1.33870967741935,1.3258064516129,1.29354838709677,1.29032258064516,1.30967741935484,1.31612903225806,1.3,1.29032258064516,1.3,1.31612903225806,1.31935483870968,1.30967741935484,1.30322580645161,1.31935483870968,1.33548387096774,1.33870967741935,1.33225806451613,1.33225806451613,1.34516129032258,1.34193548387097,1.32903225806452,1.33225806451613,1.34838709677419,1.34838709677419,1.33870967741935,1.35806451612903,1.38709677419355,1.39354838709677,1.38709677419355,1.40322580645161,1.44516129032258,1.48064516129032,1.47741935483871,1.44516129032258,1.41935483870968,1.40967741935484,1.39677419354839,1.37741935483871,1.36129032258065,1.36129032258065,1.3741935483871,1.38387096774194,1.37096774193548,1.39354838709677,1.61290322580645,2.02903225806452,2.19032258064516,1.65161290322581,0.790322580645161,0.467741935483871,0.806451612903226,1.16451612903226,1.24838709677419,1.31612903225806,1.44838709677419,1.49032258064516,1.4741935483871,1.49677419354839,1.52258064516129,1.52258064516129,1.53548387096774,1.56451612903226,1.57741935483871
1.29032258064516,1.30322580645161,1.30322580645161,1.29354838709677,1.29032258064516,1.3,1.31612903225806,1.32258064516129,1.31290322580645,1.30645161290323,1.30645161290323,1.30967741935484,1.31935483870968,1.31935483870968,1.30645161290323,1.29032258064516,1.29677419354839,1.32258064516129,1.32903225806452,1.32258064516129,1.31935483870968,1.31612903225806,1.30967741935484,1.31935483870968,1.35806451612903,1.38709677419355,1.39354838709677,1.40645161290323,1.43225806451613,1.43870967741935,1.42903225806452,1.40967741935484,1.39032258064516,1.36774193548387,1.33870967741935,1.31935483870968,1.31612903225806,1.33870967741935,1.36774193548387,1.35483870967742,1.31612903225806,1.42903225806452,1.81290322580645,2.15483870967742,1.85483870967742,0.97741935483871,0.403225806451613,0.619354838709677,1.07096774193548,1.2258064516129,1.25806451612903,1.36451612903226,1.43225806451613,1.43548387096774,1.46451612903226,1.48709677419355,1.46774193548387,1.4741935483871,1.51612903225806,1.53225806451613,1.53548387096774,1.55161290322581,1.58064516129032,1.60967741935484,1.64193548387097,1.66129032258065,1.66451612903226,1.68064516129032,1.73870967741935,1.8,1.81290322580645,1.79354838709677,1.79354838709677,1.80645161290323,1.77741935483871,1.70645161290323,1.62903225806452,1.54516129032258,1.45483870967742,1.36774193548387,1.32258064516129,1.30645161290323,1.29032258064516,1.27741935483871,1.28064516129032,1.29032258064516,1.29354838709677,1.29677419354839,1.29032258064516,1.2741935483871,1.2741935483871,1.29354838709677,1.3,1.29677419354839,1.30645161290323,1.31290322580645,1.29032258064516,1.26774193548387,1.28064516129032,1.30322580645161,1.3,1.29354838709677,1.30645161290323,1.32258064516129,1.31612903225806,1.30645161290323,1.30967741935484,1.31935483870968,1.32903225806452,1.34193548387097,1.35483870967742,1.38387096774194,1.41612903225806,1.41290322580645,1.38387096774194,1.37096774193548,1.37096774193548,1.35806451612903,1.33870967741935,1.3258064516129,1.30967741935484,1.29677419354839,1.31935483870968,1.33870967741935,1.31612903225806,1.41612903225806,1.79677419354839,2.15483870967742,1.86774193548387,0.990322580645161,0.396774193548387,0.570967741935484,0.993548387096774,1.13870967741935,1.19354838709677,1.35161290322581,1.44516129032258,1.40967741935484,1.40322580645161,1.45161290322581,1.46774193548387,1.47096774193548,1.5,1.52258064516129,1.51935483870968,1.52903225806452,1.56774193548387,1.60322580645161,1.61290322580645,1.6258064516129,1.66451612903226,1.72258064516129,1.75806451612903,1.7741935483871,1.78387096774194,1.79354838709677,1.78709677419355,1.77741935483871,1.75161290322581,1.68709677419355,1.59677419354839,1.49677419354839,1.40967741935484,1.34516129032258,1.30322580645161,1.27741935483871,1.26774193548387,1.25806451612903,1.24838709677419,1.25161290322581,1.26451612903226,1.26451612903226,1.26451612903226,1.27741935483871,1.29032258064516,1.28064516129032,1.27096774193548,1.28064516129032,1.28709677419355,1.28064516129032,1.2741935483871,1.28064516129032,1.28709677419355,1.29677419354839,1.30967741935484,1.30645161290323,1.28709677419355,1.29032258064516,1.31612903225806,1.33548387096774,1.34193548387097,1.34838709677419,1.36774193548387,1.38387096774194,1.38064516129032,1.35483870967742,1.33225806451613,1.3258064516129,1.31935483870968,1.3,1.29354838709677,1.3,1.29677419354839,1.2741935483871,1.31935483870968,1.61290322580645,2.05806451612903,2.13225806451613,1.47096774193548,0.616129032258064,0.409677419354839,0.796774193548387,1.11612903225806,1.19354838709677,1.28709677419355,1.39677419354839,1.40322580645161,1.39032258064516,1.43548387096774,1.46774193548387,1.45161290322581,1.44838709677419,1.48064516129032,1.5258064516129,1.55483870967742,1.56451612903226,1.57096774193548,1.59677419354839,1.63225806451613,1.65806451612903,1.68387096774194,1.71612903225806,1.75483870967742,1.78387096774194,1.8,1.8,1.78064516129032,1.74838709677419,1.7,1.62903225806452,1.53225806451613,1.44516129032258,1.38709677419355,1.33870967741935,1.28387096774194,1.25483870967742,1.26129032258065,1.27741935483871,1.28064516129032,1.28387096774194,1.28709677419355,1.27096774193548,1.26129032258065,1.27741935483871,1.30322580645161,1.31290322580645,1.30645161290323,1.3,1.30322580645161,1.30322580645161,1.29354838709677,1.29032258064516,1.30645161290323,1.31612903225806,1.31290322580645,1.3,1.3,1.31290322580645,1.31935483870968,1.32258064516129,1.34516129032258,1.38064516129032,1.38064516129032,1.37096774193548,1.38709677419355,1.41612903225806,1.41935483870968,1.39354838709677,1.35161290322581,1.31612903225806,1.30645161290323,1.31290322580645,1.30322580645161,1.30645161290323,1.31935483870968,1.30322580645161,1.35483870967742,1.67741935483871,2.10645161290323,2.01612903225806,1.2258064516129,0.496774193548387,0.525806451612903,0.974193548387097,1.2,1.24193548387097,1.34838709677419,1.42258064516129,1.39032258064516,1.40322580645161,1.46774193548387,1.46774193548387,1.43548387096774,1.46129032258065,1.50967741935484,1.52258064516129,1.52903225806452,1.55806451612903,1.57741935483871,1.59032258064516,1.61935483870968,1.66129032258065,1.69677419354839,1.72903225806452,1.76774193548387,1.78387096774194,1.7741935483871,1.76451612903226,1.76451612903226,1.74193548387097,1.68387096774194,1.60967741935484,1.53548387096774,1.44516129032258,1.36451612903226,1.32903225806452,1.31612903225806,1.28709677419355,1.26451612903226,1.27096774193548,1.28387096774194,1.28387096774194,1.27741935483871,1.2741935483871,1.28064516129032,1.29677419354839,1.30322580645161,1.29354838709677,1.28387096774194,1.28709677419355,1.28064516129032,1.27096774193548,1.29032258064516,1.32258064516129,1.31290322580645,1.28387096774194,1.28709677419355,1.3,1.29677419354839,1.31612903225806,1.34516129032258,1.32903225806452,1.29032258064516,1.30322580645161,1.36129032258065,1.38709677419355,1.3741935483871,1.35806451612903,1.36451612903226,1.39677419354839,1.42903225806452,1.43225806451613,1.39677419354839,1.34838709677419,1.31935483870968,1.31935483870968,1.3258064516129,1.31612903225806,1.31612903225806,1.33548387096774,1.3258064516129,1.34838709677419,1.59354838709677,2.0258064516129,2.13225806451613,1.49677419354839,0.62258064516129,0.396774193548387,0.816129032258065,1.16451612903226,1.22903225806452,1.3,1.41290322580645,1.42258064516129,1.39677419354839,1.4258064516129,1.45806451612903,1.46774193548387,1.47741935483871,1.49354838709677,1.50645161290323,1.52258064516129,1.54516129032258,1.57096774193548,1.60322580645161,1.63870967741935,1.66451612903226,1.67096774193548,1.67741935483871,1.71935483870968,1.77741935483871,1.79032258064516,1.77096774193548,1.77096774193548,1.76774193548387,1.71612903225806,1.63870967741935,1.56774193548387,1.48064516129032,1.37741935483871,1.31935483870968,1.31290322580645,1.3,1.27096774193548,1.26129032258065,1.27096774193548,1.27741935483871,1.27096774193548,1.26774193548387,1.27096774193548,1.27741935483871,1.28709677419355,1.29677419354839,1.3,1.28709677419355,1.27096774193548,1.27741935483871,1.30645161290323,1.31612903225806,1.29677419354839,1.28064516129032,1.29032258064516,1.30322580645161,1.30645161290323,1.30967741935484,1.30322580645161,1.29032258064516,1.30322580645161,1.34516129032258,1.36774193548387,1.35161290322581,1.33548387096774,1.35806451612903,1.38709677419355,1.39032258064516,1.38387096774194,1.37741935483871,1.35806451612903,1.33548387096774,1.33870967741935,1.33870967741935,1.30645161290323,1.29677419354839,1.33548387096774,1.34193548387097,1.34838709677419,1.57741935483871,2.01935483870968,2.14193548387097,1.52258064516129,0.645161290322581,0.390322580645161,0.77741935483871,1.11290322580645,1.18064516129032,1.26774193548387,1.40967741935484,1.43548387096774,1.39032258064516,1.40967741935484,1.4741935483871,1.51290322580645,1.51290322580645,1.5,1.51290322580645,1.53870967741935,1.55806451612903,1.58064516129032,1.61290322580645,1.63225806451613,1.64838709677419,1.69032258064516,1.74516129032258,1.78387096774194,1.8,1.80967741935484,1.80967741935484,1.79032258064516,1.76129032258065,1.73225806451613,1.67096774193548,1.55483870967742,1.43548387096774,1.38064516129032,1.35806451612903,1.30967741935484,1.26129032258065,1.26774193548387,1.29354838709677,1.28064516129032,1.25806451612903,1.26774193548387,1.28709677419355,1.27741935483871,1.26451612903226,1.28064516129032,1.30322580645161,1.3,1.28709677419355,1.2741935483871,1.28387096774194,1.30322580645161,1.30645161290323,1.29032258064516,1.28387096774194,1.28709677419355,1.29032258064516,1.29677419354839,1.29677419354839,1.29354838709677,1.3,1.32258064516129,1.34193548387097,1.35161290322581,1.36774193548387,1.38709677419355,1.40322580645161,1.41612903225806,1.40322580645161,1.36129032258065,1.3258064516129,1.32258064516129,1.31935483870968,1.3,1.29354838709677,1.31290322580645,1.32903225806452,1.31612903225806,1.38709677419355,1.7,2.09677419354839,2.00645161290323,1.24193548387097,0.5,0.490322580645161,0.935483870967742,1.18387096774194,1.21935483870968,1.31290322580645,1.41612903225806,1.41612903225806,1.40967741935484,1.44516129032258,1.46129032258065,1.46129032258065,1.48709677419355,1.51935483870968,1.51612903225806,1.51290322580645,1.54193548387097,1.58709677419355,1.61935483870968,1.63548387096774,1.65483870967742,1.68709677419355,1.7258064516129,1.76451612903226,1.78387096774194,1.78387096774194,1.78387096774194,1.78387096774194,1.76129032258065,1.69032258064516,1.6,1.52258064516129,1.45161290322581,1.36451612903226,1.28709677419355,1.27096774193548,1.29032258064516,1.29354838709677,1.2741935483871,1.26774193548387,1.27741935483871,1.27741935483871,1.2741935483871,1.2741935483871,1.27741935483871,1.29032258064516,1.30967741935484,1.30322580645161,1.28064516129032,1.27096774193548,1.29354838709677,1.31290322580645,1.30967741935484,1.28709677419355,1.29032258064516,1.31290322580645,1.31612903225806,1.29677419354839,1.29677419354839,1.31935483870968,1.31935483870968,1.30322580645161,1.3258064516129,1.36129032258065,1.36774193548387,1.36774193548387,1.40645161290323,1.43548387096774,1.41290322580645,1.37741935483871,1.36129032258065,1.34193548387097,1.32258064516129,1.32258064516129,1.31612903225806,1.29677419354839,1.30967741935484,1.33548387096774,1.3258064516129,1.44516129032258,1.83548387096774,2.14193548387097,1.75806451612903,0.867741935483871,0.403225806451613,0.696774193548387,1.10645161290323,1.2,1.24516129032258,1.38064516129032,1.42258064516129,1.38387096774194,1.41290322580645,1.47096774193548,1.46451612903226,1.45483870967742,1.49032258064516,1.52258064516129,1.52258064516129,1.53225806451613,1.56774193548387,1.6,1.61290322580645,1.62903225806452,1.65806451612903,1.70645161290323,1.74838709677419,1.7741935483871,1.78064516129032,1.78387096774194,1.78064516129032,1.76774193548387,1.72903225806452,1.66129032258065,1.56774193548387,1.47741935483871,1.41612903225806,1.36451612903226,1.30645161290323,1.2741935483871,1.28064516129032,1.29032258064516,1.28387096774194,1.27741935483871,1.28064516129032,1.28387096774194,1.28387096774194,1.28709677419355,1.28709677419355,1.27741935483871,1.2741935483871,1.29032258064516,1.30645161290323,1.29354838709677,1.27741935483871,1.29677419354839,1.31612903225806,1.31612903225806,1.30645161290323,1.30322580645161,1.29032258064516,1.29354838709677,1.31935483870968,1.32903225806452,1.31290322580645,1.33225806451613,1.38709677419355,1.39354838709677,1.35806451612903,1.37096774193548,1.42258064516129,1.4258064516129,1.39032258064516,1.37096774193548,1.35806451612903,1.3258064516129,1.30645161290323,1.32258064516129,1.33870967741935,1.33548387096774,1.31612903225806,1.30645161290323,1.40645161290323,1.73225806451613,2.09354838709677,1.92258064516129,1.11290322580645,0.432258064516129,0.525806451612903,0.987096774193548,1.2,1.23870967741935,1.34838709677419,1.42903225806452,1.40645161290323,1.40967741935484,1.46451612903226,1.48387096774194,1.47741935483871,1.48709677419355,1.51290322580645,1.54193548387097,1.55161290322581,1.54838709677419,1.56451612903226,1.60645161290323,1.63870967741935,1.66774193548387,1.72258064516129,1.76774193548387,1.78064516129032,1.78064516129032,1.79354838709677,1.80322580645161,1.79677419354839,1.76451612903226,1.70322580645161,1.61935483870968,1.50645161290323,1.39032258064516,1.3258064516129,1.31612903225806,1.30322580645161,1.28064516129032,1.28387096774194,1.29677419354839,1.28064516129032,1.26129032258065,1.26774193548387,1.28709677419355,1.3,1.28387096774194,1.26129032258065,1.26129032258065,1.2741935483871,1.28064516129032,1.29354838709677,1.30645161290323,1.3,1.28709677419355,1.3,1.30645161290323,1.29032258064516,1.28064516129032,1.29677419354839,1.3,1.3,1.31290322580645,1.32903225806452,1.33870967741935,1.35161290322581,1.36774193548387,1.38709677419355,1.40322580645161,1.39677419354839,1.35806451612903,1.3258064516129,1.32258064516129,1.31290322580645,1.28387096774194,1.29032258064516,1.33225806451613,1.33548387096774,1.28387096774194,1.31935483870968,1.62258064516129,2.06451612903226,2.11935483870968,1.47741935483871,0.645161290322581,0.429032258064516,0.790322580645161,1.09032258064516,1.17096774193548,1.28387096774194,1.40322580645161,1.4,1.38387096774194,1.44193548387097,1.47096774193548,1.45483870967742,1.46774193548387,1.50322580645161,1.50322580645161,1.50645161290323,1.55161290322581,1.6,1.60322580645161,1.61290322580645,1.64838709677419,1.68387096774194,1.71290322580645,1.75806451612903,1.79354838709677,1.79354838709677,1.77741935483871,1.77741935483871,1.76774193548387,1.71935483870968,1.63548387096774,1.54193548387097,1.44516129032258,1.36451612903226,1.31612903225806,1.29032258064516,1.26774193548387,1.25806451612903,1.25806451612903,1.26129032258065,1.27096774193548,1.27741935483871,1.26774193548387,1.26129032258065,1.27741935483871,1.29677419354839,1.29354838709677,1.29032258064516,1.29354838709677,1.28709677419355,1.28064516129032,1.3,1.31290322580645,1.28709677419355,1.26129032258065,1.28709677419355,1.31935483870968,1.31935483870968,1.31935483870968,1.33870967741935,1.34838709677419,1.33225806451613,1.32903225806452,1.35806451612903,1.40322580645161,1.42258064516129,1.41612903225806,1.39032258064516,1.34838709677419,1.31935483870968,1.3258064516129,1.33870967741935,1.32258064516129,1.30967741935484,1.32258064516129,1.31612903225806,1.29677419354839,1.44838709677419,1.85483870967742,2.10967741935484,1.68709677419355,0.829032258064516,0.412903225806452,0.716129032258065,1.12258064516129,1.22903225806452,1.26774193548387,1.39354838709677,1.45161290322581,1.43548387096774,1.44516129032258,1.46451612903226,1.46129032258065,1.47096774193548,1.50645161290323,1.53870967741935,1.55806451612903,1.56774193548387,1.5741935483871,1.59354838709677,1.62258064516129,1.65161290322581,1.69032258064516,1.73225806451613,1.76774193548387,1.77741935483871,1.7741935483871,1.78709677419355,1.81290322580645,1.80967741935484,1.75161290322581,1.66774193548387,1.59032258064516,1.50322580645161,1.41935483870968,1.35161290322581,1.30967741935484,1.29354838709677,1.28709677419355,1.27741935483871,1.27741935483871,1.29354838709677,1.29354838709677,1.28064516129032,1.28387096774194,1.30322580645161,1.31290322580645,1.30322580645161,1.30322580645161,1.30645161290323,1.3,1.28387096774194,1.2741935483871,1.2741935483871,1.27741935483871,1.29677419354839,1.32258064516129,1.31612903225806,1.29677419354839,1.30645161290323,1.33548387096774,1.34193548387097,1.33548387096774,1.35483870967742,1.38709677419355,1.40322580645161,1.39354838709677,1.38387096774194,1.36129032258065,1.32903225806452,1.31612903225806,1.31935483870968,1.30322580645161,1.28709677419355,1.30645161290323,1.31935483870968,1.28064516129032,1.3,1.58709677419355,2.04838709677419,2.1258064516129,1.44516129032258,0.580645161290323,0.409677419354839,0.854838709677419,1.17741935483871,1.21612903225806,1.28709677419355,1.4,1.4,1.3741935483871,1.40645161290323,1.43548387096774,1.44193548387097,1.45161290322581,1.46451612903226,1.48387096774194,1.51290322580645,1.53870967741935,1.55161290322581,1.56774193548387,1.60322580645161,1.63548387096774,1.66451612903226,1.7,1.7258064516129,1.73870967741935,1.74838709677419,1.76451612903226,1.76774193548387,1.73870967741935,1.6741935483871,1.59354838709677,1.5,1.41290322580645,1.35483870967742,1.32903225806452,1.29032258064516,1.24516129032258,1.24516129032258,1.28064516129032,1.28387096774194,1.24838709677419,1.23548387096774,1.26774193548387,1.28387096774194,1.2741935483871,1.2741935483871,1.29032258064516,1.28709677419355,1.27096774193548,1.27096774193548,1.2741935483871,1.2741935483871,1.27741935483871,1.29677419354839,1.30645161290323,1.3,1.29032258064516,1.28709677419355,1.29677419354839,1.31935483870968,1.33548387096774,1.34516129032258,1.35806451612903,1.37741935483871,1.4,1.40322580645161,1.39354838709677,1.37741935483871,1.3741935483871,1.36129032258065,1.33548387096774,1.32258064516129,1.32258064516129,1.31290322580645,1.31290322580645,1.3258064516129,1.32258064516129,1.4,1.72258064516129,2.11935483870968,1.98709677419355,1.18387096774194,0.467741935483871,0.506451612903226,0.954838709677419,1.17741935483871,1.21935483870968,1.34193548387097,1.44516129032258,1.43225806451613,1.41935483870968,1.45161290322581,1.46774193548387,1.46774193548387,1.48387096774194,1.50967741935484,1.53870967741935,1.56451612903226,1.5741935483871,1.58709677419355,1.62258064516129,1.65483870967742,1.68064516129032,1.70322580645161,1.72903225806452,1.75483870967742,1.78064516129032,1.8,1.79354838709677,1.78064516129032,1.77096774193548,1.72903225806452,1.64193548387097,1.54838709677419,1.46129032258065,1.36451612903226,1.3,1.3,1.31290322580645,1.29677419354839,1.2741935483871,1.27096774193548,1.2741935483871,1.28709677419355,1.31290322580645,1.31935483870968,1.30322580645161,1.3,1.30967741935484,1.3,1.28709677419355,1.30322580645161,1.31612903225806,1.30967741935484,1.3,1.29677419354839,1.29354838709677,1.29677419354839,1.31935483870968,1.33548387096774,1.32903225806452,1.32903225806452,1.36129032258065,1.39032258064516,1.39032258064516,1.38064516129032,1.38387096774194,1.37096774193548,1.32903225806452,1.30322580645161,1.32258064516129,1.33870967741935,1.30322580645161,1.28064516129032,1.31290322580645,1.3258064516129,1.34193548387097,1.56774193548387,2.01935483870968,2.17741935483871,1.5741935483871,0.670967741935484,0.393548387096774,0.780645161290323,1.11612903225806,1.17096774193548,1.25806451612903,1.40967741935484,1.4258064516129,1.37741935483871,1.41612903225806,1.48387096774194,1.49354838709677,1.47741935483871,1.48387096774194,1.51290322580645,1.53870967741935,1.56129032258065,1.58709677419355,1.61290322580645,1.63548387096774,1.65483870967742,1.6741935483871,1.70322580645161,1.74838709677419,1.78387096774194,1.79677419354839,1.79032258064516,1.78387096774194,1.76774193548387,1.72903225806452,1.65483870967742,1.55483870967742,1.43548387096774,1.35161290322581,1.30967741935484,1.28064516129032,1.25483870967742,1.24516129032258,1.25483870967742,1.26774193548387,1.2741935483871,1.27096774193548,1.27096774193548,1.28387096774194,1.29677419354839,1.28709677419355,1.2741935483871,1.26774193548387,1.25806451612903,1.25806451612903,1.2741935483871,1.28709677419355,1.2741935483871,1.25483870967742,1.27096774193548,1.3,1.30967741935484,1.29354838709677,1.29677419354839,1.32903225806452,1.35806451612903,1.35161290322581,1.34193548387097,1.35806451612903,1.38064516129032,1.36774193548387,1.33225806451613,1.31612903225806,1.31612903225806,1.3,1.27741935483871,1.28064516129032,1.30645161290323,1.30645161290323,1.2741935483871,1.36129032258065,1.71612903225806,2.06774193548387,1.82258064516129,1,0.419354838709677,0.590322580645161,1.01935483870968,1.1741935483871,1.21290322580645,1.34838709677419,1.41935483870968,1.37741935483871,1.3741935483871,1.42903225806452,1.44838709677419,1.44516129032258,1.46451612903226,1.49354838709677,1.51290322580645,1.53225806451613,1.54838709677419,1.56129032258065,1.58387096774194,1.61935483870968,1.65161290322581,1.67741935483871,1.70322580645161,1.7258064516129,1.74193548387097,1.75483870967742,1.76129032258065,1.75483870967742,1.73870967741935,1.68387096774194,1.58387096774194,1.47096774193548,1.4,1.36451612903226,1.32903225806452,1.29354838709677,1.29032258064516,1.30322580645161,1.29032258064516,1.26774193548387,1.2741935483871,1.30645161290323,1.31935483870968,1.31612903225806,1.32258064516129,1.31935483870968,1.3,1.3,1.33225806451613,1.35483870967742,1.34838709677419,1.34193548387097,1.34838709677419,1.34838709677419,1.34193548387097
