1.30645161290323,1.30967741935484,1.31612903225806,1.30322580645161,1.28709677419355,1.22903225806452,1.18064516129032,1.52903225806452,2.4,2.21290322580645,1.24193548387097,0.980645161290323,1.18387096774194,1.33548387096774,1.30322580645161,1.30645161290323,1.31935483870968,1.33225806451613,1.34838709677419,1.37096774193548,1.37741935483871,1.39032258064516,1.40322580645161,1.41290322580645,1.41935483870968,1.4258064516129,1.44193548387097,1.46451612903226,1.48064516129032,1.49354838709677,1.52258064516129,1.55806451612903,1.56774193548387,1.59677419354839,1.65483870967742,1.69677419354839,1.73548387096774,1.7741935483871,1.81935483870968,1.83225806451613,1.81612903225806,1.77096774193548,1.68064516129032,1.56774193548387,1.46451612903226,1.3741935483871,1.31612903225806,1.29032258064516,1.27096774193548,1.26129032258065,1.24193548387097,1.23870967741935,1.24838709677419,1.24838709677419,1.25161290322581,1.25161290322581,1.26451612903226,1.27741935483871,1.27741935483871,1.2741935483871,1.29032258064516,1.3,1.29032258064516,1.29354838709677,1.29677419354839,1.29677419354839,1.30645161290323,1.30967741935484,1.30967741935484,1.30967741935484,1.31290322580645,1.30967741935484,1.30645161290323,1.31290322580645,1.31935483870968,1.32258064516129,1.31935483870968,1.32258064516129,1.31935483870968,1.32903225806452,1.32258064516129,1.32903225806452,1.33225806451613,1.33870967741935,1.33548387096774,1.33870967741935,1.33225806451613,1.3258064516129,1.36129032258065,1.39032258064516,1.40967741935484,1.42258064516129,1.43870967741935,1.45161290322581,1.43548387096774,1.40645161290323,1.38064516129032,1.34516129032258,1.30645161290323,1.29354838709677,1.29354838709677,1.30645161290323,1.29032258064516,1.28709677419355,1.22258064516129,1.2,1.62903225806452,2.45806451612903,2.08387096774194,1.14193548387097,0.990322580645161,1.20967741935484,1.34838709677419,1.31290322580645,1.31612903225806,1.33225806451613,1.33548387096774,1.35161290322581,1.36451612903226,1.3741935483871,1.39354838709677,1.40967741935484,1.4258064516129,1.43870967741935,1.45161290322581,1.46774193548387,1.49354838709677,1.5,1.51612903225806,1.53870967741935,1.57096774193548,1.6,1.64193548387097,1.68709677419355,1.73548387096774,1.78387096774194,1.83225806451613,1.85161290322581,1.85161290322581,1.81935483870968,1.73548387096774,1.63548387096774,1.51612903225806,1.41612903225806,1.34838709677419,1.30322580645161,1.2741935483871,1.26129032258065,1.24838709677419,1.23870967741935,1.23548387096774,1.24193548387097,1.24838709677419,1.24193548387097,1.24516129032258,1.26129032258065,1.26451612903226,1.26451612903226,1.27741935483871,1.28387096774194,1.28709677419355,1.29032258064516,1.29032258064516,1.3,1.30645161290323,1.30645161290323,1.29354838709677,1.28387096774194,1.28709677419355,1.28387096774194,1.2741935483871,1.27096774193548,1.29032258064516,1.28064516129032,1.26774193548387,1.27741935483871,1.27741935483871,1.29354838709677,1.30967741935484,1.31935483870968,1.33870967741935,1.36774193548387,1.38387096774194,1.40322580645161,1.43548387096774,1.42903225806452,1.40322580645161,1.3741935483871,1.32903225806452,1.29354838709677,1.29354838709677,1.28064516129032,1.28387096774194,1.29032258064516,1.29677419354839,1.27741935483871,1.18709677419355,1.26451612903226,1.81290322580645,2.3741935483871,1.61290322580645,0.974193548387097,1.02903225806452,1.19354838709677,1.3258064516129,1.32903225806452,1.32903225806452,1.33870967741935,1.34516129032258,1.36129032258065,1.38064516129032,1.40322580645161,1.4258064516129,1.43225806451613,1.43870967741935,1.44838709677419,1.46129032258065,1.48387096774194,1.5,1.51935483870968,1.54838709677419,1.57096774193548,1.6,1.64193548387097,1.69032258064516,1.71612903225806,1.77096774193548,1.82903225806452,1.87096774193548,1.88387096774194,1.87096774193548,1.80322580645161,1.68709677419355,1.57741935483871,1.46774193548387,1.38387096774194,1.32903225806452,1.30645161290323,1.28387096774194,1.27096774193548,1.26774193548387,1.26774193548387,1.27741935483871,1.27741935483871,1.27741935483871,1.28387096774194,1.29032258064516,1.29032258064516,1.3,1.30967741935484,1.30967741935484,1.31612903225806,1.31612903225806,1.32903225806452,1.31935483870968,1.31290322580645,1.30967741935484,1.31290322580645,1.3258064516129,1.32258064516129,1.3258064516129,1.32258064516129,1.31935483870968,1.32258064516129,1.31612903225806,1.30645161290323,1.31612903225806,1.3258064516129,1.31612903225806,1.31290322580645,1.31290322580645,1.34193548387097,1.36451612903226,1.3741935483871,1.40645161290323,1.4258064516129,1.45161290322581,1.45161290322581,1.41612903225806,1.4,1.35806451612903,1.31290322580645,1.28387096774194,1.29354838709677,1.29032258064516,1.29032258064516,1.29354838709677,1.28387096774194,1.19032258064516,1.20967741935484,1.71290322580645,2.42258064516129,1.78064516129032,0.993548387096774,1.00322580645161,1.20967741935484,1.34193548387097,1.30322580645161,1.30322580645161,1.3258064516129,1.34193548387097,1.34516129032258,1.35161290322581,1.36774193548387,1.38709677419355,1.40322580645161,1.4258064516129,1.4258064516129,1.43870967741935,1.47096774193548,1.48709677419355,1.49677419354839,1.53225806451613,1.56451612903226,1.6,1.6258064516129,1.64516129032258,1.68387096774194,1.72903225806452,1.76451612903226,1.79032258064516,1.8258064516129,1.82903225806452,1.78387096774194,1.69032258064516,1.5741935483871,1.47096774193548,1.38387096774194,1.3258064516129,1.3,1.29032258064516,1.27741935483871,1.26774193548387,1.26451612903226,1.26774193548387,1.26451612903226,1.25806451612903,1.25806451612903,1.27741935483871,1.28709677419355,1.29354838709677,1.29677419354839,1.3,1.3,1.3,1.3,1.29032258064516,1.29677419354839,1.29032258064516,1.29032258064516,1.30322580645161,1.29677419354839,1.29677419354839,1.31935483870968,1.32258064516129,1.31290322580645,1.31612903225806,1.31612903225806,1.33225806451613,1.34193548387097,1.34193548387097,1.33548387096774,1.31290322580645,1.31935483870968,1.32258064516129,1.32258064516129,1.33870967741935,1.35161290322581,1.37096774193548,1.41612903225806,1.45483870967742,1.46129032258065,1.46129032258065,1.42903225806452,1.39677419354839,1.37096774193548,1.34193548387097,1.29677419354839,1.28387096774194,1.29354838709677,1.29354838709677,1.28709677419355,1.28387096774194,1.23870967741935,1.18064516129032,1.51290322580645,2.37741935483871,2.25161290322581,1.25806451612903,0.948387096774194,1.18709677419355,1.34516129032258,1.29677419354839,1.30322580645161,1.31612903225806,1.32258064516129,1.33548387096774,1.35483870967742,1.36451612903226,1.37741935483871,1.36774193548387,1.39354838709677,1.40967741935484,1.43870967741935,1.46774193548387,1.48387096774194,1.49677419354839,1.52258064516129,1.55483870967742,1.57096774193548,1.5741935483871,1.60645161290323,1.64516129032258,1.68064516129032,1.74838709677419,1.80645161290323,1.82258064516129,1.84193548387097,1.8258064516129,1.73870967741935,1.63548387096774,1.51612903225806,1.4258064516129,1.35483870967742,1.31612903225806,1.3,1.26774193548387,1.25483870967742,1.25806451612903,1.26451612903226,1.27096774193548,1.26129032258065,1.26129032258065,1.28709677419355,1.29354838709677,1.29677419354839,1.3,1.30322580645161,1.30322580645161,1.30322580645161,1.30645161290323,1.30967741935484,1.31935483870968,1.3258064516129,1.31612903225806,1.31612903225806,1.3,1.30645161290323,1.30322580645161,1.30967741935484,1.31612903225806,1.30967741935484,1.29354838709677,1.31290322580645,1.33548387096774,1.3258064516129,1.33225806451613,1.34193548387097,1.32903225806452,1.33225806451613,1.33225806451613,1.33870967741935,1.34516129032258,1.35806451612903,1.37741935483871,1.39354838709677,1.42258064516129,1.45483870967742,1.48387096774194,1.46451612903226,1.42903225806452,1.38709677419355,1.34516129032258,1.31612903225806,1.31935483870968,1.31612903225806,1.30645161290323,1.31935483870968,1.32258064516129,1.30322580645161,1.19032258064516,1.26129032258065,1.87741935483871,2.45806451612903,1.71612903225806,0.987096774193548,1.0741935483871,1.31935483870968,1.35483870967742,1.32258064516129,1.31612903225806,1.33225806451613,1.33548387096774,1.34193548387097,1.34838709677419,1.36129032258065,1.37096774193548,1.39032258064516,1.41612903225806,1.42903225806452,1.42903225806452,1.44516129032258,1.47741935483871,1.5,1.52903225806452,1.55161290322581,1.57741935483871,1.62258064516129,1.65161290322581,1.68709677419355,1.71935483870968,1.74838709677419,1.79354838709677,1.8258064516129,1.81935483870968,1.76129032258065,1.67096774193548,1.55806451612903,1.47096774193548,1.39354838709677,1.32258064516129,1.28064516129032,1.2741935483871,1.26774193548387,1.26451612903226,1.25483870967742,1.24838709677419,1.25483870967742,1.26774193548387,1.27096774193548,1.26451612903226,1.27096774193548,1.28064516129032,1.29677419354839,1.28709677419355,1.28387096774194,1.27741935483871,1.28064516129032,1.29677419354839,1.28064516129032,1.27741935483871,1.3,1.29354838709677,1.29032258064516,1.30967741935484,1.31612903225806,1.31290322580645,1.31290322580645,1.31612903225806,1.30645161290323,1.3,1.3,1.28064516129032,1.30967741935484,1.33870967741935,1.32903225806452,1.34838709677419,1.35161290322581,1.36129032258065,1.36451612903226,1.35806451612903,1.35483870967742,1.35806451612903,1.34838709677419,1.33225806451613,1.35806451612903,1.3741935483871,1.39032258064516,1.40645161290323,1.41935483870968,1.44193548387097,1.48064516129032,1.47741935483871,1.43225806451613,1.39354838709677,1.35483870967742,1.3,1.30322580645161,1.31290322580645,1.31290322580645,1.3,1.31612903225806,1.30645161290323,1.21290322580645,1.20322580645161,1.66774193548387,2.40967741935484,1.89032258064516,1.08709677419355,1.09677419354839,1.31612903225806,1.38709677419355,1.32258064516129,1.33225806451613,1.35806451612903,1.35483870967742,1.36451612903226,1.39354838709677,1.41290322580645,1.41935483870968,1.44838709677419,1.46451612903226,1.46451612903226,1.48709677419355,1.51935483870968,1.53225806451613,1.54838709677419,1.56774193548387,1.58387096774194,1.59677419354839,1.6258064516129,1.65806451612903,1.69677419354839,1.73870967741935,1.78387096774194,1.80645161290323,1.81612903225806,1.81935483870968,1.80322580645161,1.74193548387097,1.64516129032258,1.54193548387097,1.46774193548387,1.39677419354839,1.32903225806452,1.3,1.29032258064516,1.28387096774194,1.28387096774194,1.27741935483871,1.27096774193548,1.27096774193548,1.27741935483871,1.28387096774194,1.28064516129032,1.29354838709677,1.29032258064516,1.29677419354839,1.30322580645161,1.30322580645161,1.29677419354839,1.30322580645161,1.3,1.30322580645161,1.29032258064516,1.27741935483871,1.29677419354839,1.29354838709677,1.30322580645161,1.30967741935484,1.29677419354839,1.30322580645161,1.30322580645161,1.29354838709677,1.29677419354839,1.30322580645161,1.29677419354839,1.30322580645161,1.30645161290323,1.27741935483871,1.29354838709677,1.31290322580645,1.30645161290323,1.30645161290323,1.30967741935484,1.3258064516129,1.33548387096774,1.3258064516129,1.31612903225806,1.33225806451613,1.34838709677419,1.36129032258065,1.38709677419355,1.41290322580645,1.44838709677419,1.44838709677419,1.41935483870968,1.39032258064516,1.36774193548387,1.33548387096774,1.31290322580645,1.30967741935484,1.30645161290323,1.30967741935484,1.3258064516129,1.30645161290323,1.22258064516129,1.19677419354839,1.65161290322581,2.36774193548387,1.86129032258065,1.12903225806452,1.11290322580645,1.31935483870968,1.3741935483871,1.31935483870968,1.3258064516129,1.33225806451613,1.34838709677419,1.35806451612903,1.3741935483871,1.38387096774194,1.39032258064516,1.40645161290323,1.43225806451613,1.44516129032258,1.45483870967742,1.48064516129032,1.49354838709677,1.50645161290323,1.51935483870968,1.54516129032258,1.56451612903226,1.59032258064516,1.6258064516129,1.66774193548387,1.71935483870968,1.75806451612903,1.78709677419355,1.81612903225806,1.81290322580645,1.79354838709677,1.71290322580645,1.61612903225806,1.51612903225806,1.43225806451613,1.36129032258065,1.31612903225806,1.28709677419355,1.27096774193548,1.26129032258065,1.26129032258065,1.25483870967742,1.27096774193548,1.27096774193548,1.27741935483871,1.28709677419355,1.28709677419355,1.27741935483871,1.28387096774194,1.29677419354839,1.30645161290323,1.30645161290323,1.29677419354839,1.29677419354839,1.30322580645161,1.30967741935484,1.30967741935484,1.32258064516129,1.32258064516129,1.30645161290323,1.30645161290323,1.30645161290323,1.31935483870968,1.31935483870968,1.31290322580645,1.30645161290323,1.3258064516129,1.35161290322581,1.34838709677419,1.33548387096774,1.34516129032258,1.34838709677419,1.34193548387097,1.33870967741935,1.34193548387097,1.33870967741935,1.33225806451613,1.31935483870968,1.34838709677419,1.35806451612903,1.37096774193548,1.39354838709677,1.40322580645161,1.39677419354839,1.4258064516129,1.45161290322581,1.45483870967742,1.41935483870968,1.40322580645161,1.36774193548387,1.30645161290323,1.30967741935484,1.32258064516129,1.33225806451613,1.31935483870968,1.32903225806452,1.32903225806452,1.24838709677419,1.23870967741935,1.66451612903226,2.29032258064516,1.7741935483871,1.08064516129032,1.10967741935484,1.25161290322581,1.37741935483871,1.33548387096774,1.32258064516129,1.32903225806452,1.33870967741935,1.35161290322581,1.34838709677419,1.37096774193548,1.40322580645161,1.40967741935484,1.40967741935484,1.41935483870968,1.44193548387097,1.47096774193548,1.47741935483871,1.5,1.52903225806452,1.55161290322581,1.57096774193548,1.59354838709677,1.61612903225806,1.67096774193548,1.71290322580645,1.74838709677419,1.77741935483871,1.80645161290323,1.81612903225806,1.7741935483871,1.7,1.60322580645161,1.49677419354839,1.42258064516129,1.35483870967742,1.31290322580645,1.31290322580645,1.30322580645161,1.3,1.27741935483871,1.2741935483871,1.28064516129032,1.28387096774194,1.29032258064516,1.31612903225806,1.31290322580645,1.31612903225806,1.30967741935484,1.30645161290323,1.31935483870968,1.30645161290323,1.30322580645161,1.31935483870968,1.30645161290323,1.31935483870968,1.29677419354839,1.30967741935484,1.32258064516129,1.33225806451613,1.32258064516129,1.30967741935484,1.32258064516129,1.33870967741935,1.32903225806452,1.3258064516129,1.33870967741935,1.33548387096774,1.33548387096774,1.33548387096774,1.34838709677419,1.33870967741935,1.30645161290323,1.3258064516129,1.34838709677419,1.33870967741935,1.33225806451613,1.36129032258065,1.37741935483871,1.3741935483871,1.38387096774194,1.42903225806452,1.43870967741935,1.43870967741935,1.42903225806452,1.40967741935484,1.38064516129032,1.33548387096774,1.31290322580645,1.31290322580645,1.31290322580645,1.32903225806452,1.33225806451613,1.32258064516129,1.25483870967742,1.21935483870968,1.61290322580645,2.32258064516129,1.9258064516129,1.17096774193548,1.11935483870968,1.29354838709677,1.3741935483871,1.30645161290323,1.30322580645161,1.31935483870968,1.33870967741935,1.34516129032258,1.35483870967742,1.37096774193548,1.38064516129032,1.39032258064516,1.40322580645161,1.41935483870968,1.44516129032258,1.45483870967742,1.46774193548387,1.47741935483871,1.5,1.5258064516129,1.56451612903226,1.59032258064516,1.60967741935484,1.66129032258065,1.7,1.71935483870968,1.75483870967742,1.76129032258065,1.78064516129032,1.76451612903226,1.69677419354839,1.59354838709677,1.48709677419355,1.40967741935484,1.34193548387097,1.30645161290323,1.2741935483871,1.25806451612903,1.26451612903226,1.26129032258065,1.26129032258065,1.28387096774194,1.2741935483871,1.27741935483871,1.29032258064516,1.29677419354839,1.29354838709677,1.29354838709677,1.30645161290323,1.30322580645161,1.30967741935484,1.31290322580645,1.30645161290323,1.31290322580645,1.31612903225806,1.31612903225806,1.31612903225806,1.31290322580645,1.31612903225806,1.31612903225806,1.32258064516129,1.32258064516129,1.32903225806452,1.32903225806452,1.34193548387097,1.33548387096774,1.34193548387097,1.33870967741935,1.34193548387097,1.34516129032258,1.33870967741935,1.32903225806452,1.32903225806452,1.34838709677419,1.34516129032258,1.35483870967742,1.38064516129032,1.39677419354839,1.4,1.43548387096774,1.45483870967742,1.45161290322581,1.43870967741935,1.40645161290323,1.38064516129032,1.35161290322581,1.31290322580645,1.31935483870968,1.3258064516129,1.33225806451613,1.31612903225806,1.30967741935484,1.25483870967742,1.21612903225806,1.54516129032258,2.30645161290323,2.01935483870968,1.19032258064516,1.04193548387097,1.21935483870968,1.34838709677419,1.30967741935484,1.30645161290323,1.31290322580645,1.31290322580645,1.32903225806452,1.34516129032258,1.35806451612903,1.3741935483871,1.39032258064516,1.39032258064516,1.4,1.41612903225806,1.42903225806452,1.44193548387097,1.45806451612903,1.49354838709677,1.5258064516129,1.56129032258065,1.58387096774194,1.60322580645161,1.64516129032258,1.69032258064516,1.71935483870968,1.75483870967742,1.7741935483871,1.78387096774194,1.75483870967742,1.68709677419355,1.58387096774194,1.48064516129032,1.40645161290323,1.35483870967742,1.32258064516129,1.28709677419355,1.26774193548387,1.27096774193548,1.25483870967742,1.24838709677419,1.26129032258065,1.26451612903226,1.25806451612903,1.26451612903226,1.27096774193548,1.29032258064516,1.29032258064516,1.29032258064516,1.30645161290323,1.29354838709677,1.29677419354839,1.30967741935484,1.30967741935484,1.30645161290323,1.29354838709677,1.30645161290323,1.31612903225806,1.31612903225806,1.31935483870968,1.31290322580645,1.30967741935484,1.3258064516129,1.33548387096774,1.32258064516129,1.3258064516129,1.33548387096774,1.33225806451613,1.33548387096774,1.34516129032258,1.3741935483871,1.39354838709677,1.39032258064516,1.43225806451613,1.46451612903226,1.47096774193548,1.44193548387097,1.43225806451613,1.40645161290323,1.36129032258065,1.31935483870968,1.31935483870968,1.31935483870968,1.32903225806452,1.33225806451613,1.32903225806452,1.3,1.2258064516129,1.32258064516129,1.91935483870968,2.33225806451613,1.54838709677419,1.0258064516129,1.13225806451613,1.27741935483871,1.37096774193548,1.34838709677419,1.36774193548387,1.39032258064516,1.39354838709677,1.39354838709677,1.41612903225806,1.42903225806452,1.44193548387097,1.44516129032258,1.46129032258065,1.47741935483871,1.49354838709677,1.51935483870968,1.53548387096774,1.53870967741935,1.56774193548387,1.59032258064516,1.60645161290323,1.63548387096774,1.66774193548387,1.70645161290323,1.73548387096774,1.75483870967742,1.76129032258065,1.78709677419355,1.78709677419355,1.71290322580645,1.61290322580645,1.50645161290323,1.41290322580645,1.35483870967742,1.3,1.2741935483871,1.25161290322581,1.24193548387097,1.26129032258065,1.25806451612903,1.26774193548387,1.28387096774194,1.27096774193548,1.28064516129032,1.3,1.30322580645161,1.30967741935484,1.31612903225806,1.32258064516129,1.33548387096774,1.33548387096774,1.33548387096774,1.31935483870968,1.32258064516129,1.30967741935484,1.29677419354839,1.29032258064516,1.28064516129032,1.26451612903226,1.25483870967742,1.26129032258065,1.25161290322581,1.25161290322581,1.25806451612903,1.24838709677419,1.26129032258065,1.2741935483871,1.27096774193548,1.27741935483871,1.30645161290323,1.33225806451613,1.35483870967742,1.39354838709677,1.41935483870968,1.41935483870968,1.40967741935484,1.38064516129032,1.34838709677419,1.31612903225806,1.28064516129032,1.28387096774194,1.27741935483871,1.28709677419355,1.28709677419355,1.29032258064516,1.23548387096774,1.18387096774194,1.50645161290323,2.32258064516129,2.10645161290323,1.19677419354839,0.987096774193548,1.18709677419355,1.33225806451613,1.29354838709677,1.28709677419355,1.30322580645161,1.30645161290323,1.31612903225806,1.32903225806452,1.35161290322581,1.36129032258065,1.37096774193548,1.39032258064516,1.41612903225806,1.43870967741935,1.43225806451613,1.45483870967742,1.48064516129032,1.50645161290323,1.52903225806452,1.55483870967742,1.58387096774194,1.61935483870968,1.66451612903226,1.7,1.74516129032258,1.78387096774194,1.8,1.80322580645161,1.77096774193548,1.69354838709677,1.58387096774194,1.48064516129032,1.41612903225806,1.36451612903226,1.33548387096774,1.30322580645161,1.29032258064516,1.28064516129032,1.28064516129032,1.27096774193548,1.28064516129032,1.29677419354839,1.3,1.29677419354839,1.29354838709677,1.30322580645161,1.30645161290323,1.30645161290323,1.30967741935484,1.31935483870968,1.33548387096774,1.34516129032258,1.33548387096774,1.33870967741935,1.33225806451613,1.33870967741935,1.35161290322581,1.35161290322581,1.34838709677419,1.35483870967742,1.36451612903226,1.37096774193548,1.37096774193548,1.37741935483871,1.39354838709677,1.4,1.40322580645161,1.40322580645161,1.4258064516129,1.42258064516129,1.42903225806452,1.45483870967742,1.49354838709677,1.51612903225806
1.31935483870968,1.33225806451613,1.3258064516129,1.32258064516129,1.31612903225806,1.31935483870968,1.33225806451613,1.32258064516129,1.32258064516129,1.32258064516129,1.32258064516129,1.32903225806452,1.32903225806452,1.3258064516129,1.32903225806452,1.33225806451613,1.32903225806452,1.3258064516129,1.33225806451613,1.33548387096774,1.33548387096774,1.33870967741935,1.34193548387097,1.34838709677419,1.34193548387097,1.35161290322581,1.39032258064516,1.4,1.40322580645161,1.42903225806452,1.46451612903226,1.46774193548387,1.45161290322581,1.42903225806452,1.40322580645161,1.36129032258065,1.32258064516129,1.3258064516129,1.33870967741935,1.33548387096774,1.33548387096774,1.32258064516129,1.28064516129032,1.2,1.39677419354839,2.16774193548387,2.35161290322581,1.41612903225806,1.00645161290323,1.13548387096774,1.3258064516129,1.35161290322581,1.3258064516129,1.34193548387097,1.34838709677419,1.36129032258065,1.3741935483871,1.38387096774194,1.39677419354839,1.4,1.42258064516129,1.43870967741935,1.45483870967742,1.47096774193548,1.48387096774194,1.50322580645161,1.51612903225806,1.53225806451613,1.55806451612903,1.59032258064516,1.61612903225806,1.65161290322581,1.69677419354839,1.74838709677419,1.78064516129032,1.81612903225806,1.84193548387097,1.83548387096774,1.79032258064516,1.69677419354839,1.59677419354839,1.49032258064516,1.39677419354839,1.34193548387097,1.3,1.2741935483871,1.25483870967742,1.24516129032258,1.24838709677419,1.24838709677419,1.24838709677419,1.25161290322581,1.26129032258065,1.2741935483871,1.26774193548387,1.28064516129032,1.29032258064516,1.28709677419355,1.30322580645161,1.30967741935484,1.30967741935484,1.3,1.3,1.29677419354839,1.3,1.29677419354839,1.3,1.29354838709677,1.29354838709677,1.28709677419355,1.28064516129032,1.29354838709677,1.3,1.30322580645161,1.30645161290323,1.30967741935484,1.30645161290323,1.31290322580645,1.31935483870968,1.31612903225806,1.32258064516129,1.32903225806452,1.32258064516129,1.31935483870968,1.32258064516129,1.32903225806452,1.33548387096774,1.3258064516129,1.32258064516129,1.32903225806452,1.34193548387097,1.34193548387097,1.33870967741935,1.35483870967742,1.39354838709677,1.41612903225806,1.42258064516129,1.44516129032258,1.47096774193548,1.46451612903226,1.43870967741935,1.40645161290323,1.37741935483871,1.34838709677419,1.31935483870968,1.31935483870968,1.33225806451613,1.3258064516129,1.31612903225806,1.31612903225806,1.24193548387097,1.20645161290323,1.6,2.48387096774194,2.23870967741935,1.28064516129032,1.05161290322581,1.26451612903226,1.39677419354839,1.34516129032258,1.34193548387097,1.35483870967742,1.35483870967742,1.35483870967742,1.3741935483871,1.39032258064516,1.39354838709677,1.4,1.41290322580645,1.42903225806452,1.43225806451613,1.44838709677419,1.46774193548387,1.48064516129032,1.51290322580645,1.53870967741935,1.54516129032258,1.57741935483871,1.62258064516129,1.65483870967742,1.69354838709677,1.73548387096774,1.78064516129032,1.81290322580645,1.82258064516129,1.81935483870968,1.79032258064516,1.71290322580645,1.59032258064516,1.48064516129032,1.39677419354839,1.33225806451613,1.28709677419355,1.26451612903226,1.25806451612903,1.23870967741935,1.23870967741935,1.24838709677419,1.24193548387097,1.23870967741935,1.25483870967742,1.26774193548387,1.27096774193548,1.27096774193548,1.2741935483871,1.28387096774194,1.28709677419355,1.29677419354839,1.29354838709677,1.29032258064516,1.3,1.29677419354839,1.29032258064516,1.29354838709677,1.29032258064516,1.29032258064516,1.29032258064516,1.29032258064516,1.29354838709677,1.29677419354839,1.30322580645161,1.30967741935484,1.30645161290323,1.30967741935484,1.31290322580645,1.31935483870968,1.31612903225806,1.31612903225806,1.3258064516129,1.32903225806452,1.32258064516129,1.31290322580645,1.33225806451613,1.34193548387097,1.33225806451613,1.33548387096774,1.34516129032258,1.34838709677419,1.34838709677419,1.35483870967742,1.35806451612903,1.35161290322581,1.35806451612903,1.36129032258065,1.39354838709677,1.41612903225806,1.4258064516129,1.45161290322581,1.48387096774194,1.46774193548387,1.44193548387097,1.41612903225806,1.38064516129032,1.35161290322581,1.3258064516129,1.32258064516129,1.33225806451613,1.34193548387097,1.34193548387097,1.31935483870968,1.24193548387097,1.23225806451613,1.69677419354839,2.52903225806452,2.11612903225806,1.21612903225806,1.08387096774194,1.29354838709677,1.39354838709677,1.34516129032258,1.34516129032258,1.35806451612903,1.36774193548387,1.37741935483871,1.38387096774194,1.4,1.41290322580645,1.41612903225806,1.43870967741935,1.44838709677419,1.45806451612903,1.46774193548387,1.48387096774194,1.50645161290323,1.52258064516129,1.54838709677419,1.57741935483871,1.59677419354839,1.64838709677419,1.69032258064516,1.7258064516129,1.75806451612903,1.80967741935484,1.83870967741935,1.85483870967742,1.84193548387097,1.79032258064516,1.69677419354839,1.57096774193548,1.46129032258065,1.39677419354839,1.32903225806452,1.29032258064516,1.26129032258065,1.25483870967742,1.25161290322581,1.23225806451613,1.23870967741935,1.24193548387097,1.23870967741935,1.23870967741935,1.23870967741935,1.24193548387097,1.25806451612903,1.26451612903226,1.2741935483871,1.26774193548387,1.26774193548387,1.28064516129032,1.28064516129032,1.27741935483871,1.28064516129032,1.28387096774194,1.28064516129032,1.28064516129032,1.28064516129032,1.28709677419355,1.29354838709677,1.29677419354839,1.3,1.30967741935484,1.30967741935484,1.30645161290323,1.31290322580645,1.31290322580645,1.30967741935484,1.30967741935484,1.3,1.31935483870968,1.31290322580645,1.30967741935484,1.30967741935484,1.31290322580645,1.31935483870968,1.32258064516129,1.33870967741935,1.33870967741935,1.3258064516129,1.33225806451613,1.33548387096774,1.34516129032258,1.33870967741935,1.35806451612903,1.37741935483871,1.39677419354839,1.40967741935484,1.44516129032258,1.48064516129032,1.44516129032258,1.41290322580645,1.4,1.37096774193548,1.33870967741935,1.31612903225806,1.31935483870968,1.32258064516129,1.3258064516129,1.32903225806452,1.31935483870968,1.21935483870968,1.26129032258065,1.79354838709677,2.43225806451613,1.73870967741935,1.05161290322581,1.07741935483871,1.23548387096774,1.35161290322581,1.34516129032258,1.34193548387097,1.35806451612903,1.3741935483871,1.38709677419355,1.39354838709677,1.40322580645161,1.42258064516129,1.4258064516129,1.44193548387097,1.46451612903226,1.47096774193548,1.49032258064516,1.50967741935484,1.5258064516129,1.55161290322581,1.5741935483871,1.6,1.64193548387097,1.66451612903226,1.70645161290323,1.76451612903226,1.80645161290323,1.84193548387097,1.8741935483871,1.89354838709677,1.86774193548387,1.78387096774194,1.6741935483871,1.56129032258065,1.44838709677419,1.36129032258065,1.30645161290323,1.2741935483871,1.26774193548387,1.26129032258065,1.25483870967742,1.24193548387097,1.25806451612903,1.25483870967742,1.25161290322581,1.25806451612903,1.26774193548387,1.26129032258065,1.28064516129032,1.29354838709677,1.29354838709677,1.30322580645161,1.30645161290323,1.3,1.30645161290323,1.30322580645161,1.30322580645161,1.30967741935484,1.30967741935484,1.30645161290323,1.29677419354839,1.29677419354839,1.31612903225806,1.30645161290323,1.29354838709677,1.3,1.30322580645161,1.30967741935484,1.30967741935484,1.30322580645161,1.30645161290323,1.30322580645161,1.31612903225806,1.31612903225806,1.31935483870968,1.32258064516129,1.34193548387097,1.33548387096774,1.33870967741935,1.34838709677419,1.33225806451613,1.33225806451613,1.35161290322581,1.36451612903226,1.3741935483871,1.39677419354839,1.40967741935484,1.44838709677419,1.48064516129032,1.46451612903226,1.44193548387097,1.41612903225806,1.36774193548387,1.31935483870968,1.31935483870968,1.31612903225806,1.30967741935484,1.32903225806452,1.3258064516129,1.31935483870968,1.23548387096774,1.26129032258065,1.7258064516129,2.35806451612903,1.73870967741935,1.07096774193548,1.07096774193548,1.19032258064516,1.32903225806452,1.33548387096774,1.32903225806452,1.36129032258065,1.37741935483871,1.37741935483871,1.39677419354839,1.40322580645161,1.40967741935484,1.42903225806452,1.43225806451613,1.44838709677419,1.46774193548387,1.4741935483871,1.49677419354839,1.52903225806452,1.54516129032258,1.55806451612903,1.58709677419355,1.62258064516129,1.65161290322581,1.70322580645161,1.75483870967742,1.79354838709677,1.83870967741935,1.86774193548387,1.87741935483871,1.84838709677419,1.76774193548387,1.65483870967742,1.53870967741935,1.44193548387097,1.35161290322581,1.30322580645161,1.27096774193548,1.24193548387097,1.2258064516129,1.22258064516129,1.24516129032258,1.24193548387097,1.23870967741935,1.24516129032258,1.25161290322581,1.25806451612903,1.27096774193548,1.2741935483871,1.27741935483871,1.27741935483871,1.29354838709677,1.3,1.29354838709677,1.29032258064516,1.29354838709677,1.3,1.3,1.29677419354839,1.3,1.29354838709677,1.3,1.30645161290323,1.3,1.3,1.29354838709677,1.29032258064516,1.30967741935484,1.31935483870968,1.31935483870968,1.30967741935484,1.30645161290323,1.31290322580645,1.31612903225806,1.32258064516129,1.32258064516129,1.31935483870968,1.3258064516129,1.3258064516129,1.32903225806452,1.34193548387097,1.37096774193548,1.38387096774194,1.40967741935484,1.43225806451613,1.45806451612903,1.46129032258065,1.43225806451613,1.39032258064516,1.36129032258065,1.32903225806452,1.31290322580645,1.31612903225806,1.29677419354839,1.30645161290323,1.31290322580645,1.30967741935484,1.22258064516129,1.22258064516129,1.69032258064516,2.4741935483871,1.94838709677419,1.11290322580645,1.05483870967742,1.23225806451613,1.35161290322581,1.3258064516129,1.34193548387097,1.34193548387097,1.34516129032258,1.36774193548387,1.3741935483871,1.39032258064516,1.39677419354839,1.41290322580645,1.4258064516129,1.43548387096774,1.45483870967742,1.47096774193548,1.48387096774194,1.51290322580645,1.51935483870968,1.54838709677419,1.58064516129032,1.61290322580645,1.65161290322581,1.67741935483871,1.73225806451613,1.77096774193548,1.81290322580645,1.84838709677419,1.86774193548387,1.84516129032258,1.75806451612903,1.65161290322581,1.53870967741935,1.43548387096774,1.36451612903226,1.31290322580645,1.27741935483871,1.26451612903226,1.24516129032258,1.23870967741935,1.24193548387097,1.24516129032258,1.24193548387097,1.25161290322581,1.26129032258065,1.25483870967742,1.27096774193548,1.2741935483871,1.28064516129032,1.28387096774194,1.29032258064516,1.29354838709677,1.29677419354839,1.30322580645161,1.3,1.28709677419355,1.30322580645161,1.30645161290323,1.3,1.29677419354839,1.30645161290323,1.30645161290323,1.30645161290323,1.30322580645161,1.30322580645161,1.3,1.30645161290323,1.30645161290323,1.30967741935484,1.31612903225806,1.31935483870968,1.32258064516129,1.31935483870968,1.31935483870968,1.3258064516129,1.3258064516129,1.33548387096774,1.37096774193548,1.38064516129032,1.39677419354839,1.44193548387097,1.47741935483871,1.48387096774194,1.46129032258065,1.4258064516129,1.39677419354839,1.36129032258065,1.31935483870968,1.31290322580645,1.31290322580645,1.29677419354839,1.29354838709677,1.29354838709677,1.24516129032258,1.18709677419355,1.49677419354839,2.35806451612903,2.29354838709677,1.31612903225806,1,1.19677419354839,1.35483870967742,1.32258064516129,1.30967741935484,1.31290322580645,1.33225806451613,1.34193548387097,1.35161290322581,1.37096774193548,1.38064516129032,1.39032258064516,1.39677419354839,1.41612903225806,1.44193548387097,1.46451612903226,1.4741935483871,1.5,1.52258064516129,1.53870967741935,1.5741935483871,1.60322580645161,1.63870967741935,1.68387096774194,1.72258064516129,1.7741935483871,1.82903225806452,1.86774193548387,1.89032258064516,1.86774193548387,1.80645161290323,1.69677419354839,1.56774193548387,1.45806451612903,1.37096774193548,1.31290322580645,1.26774193548387,1.25483870967742,1.24193548387097,1.23548387096774,1.23225806451613,1.23548387096774,1.24838709677419,1.24516129032258,1.23548387096774,1.25483870967742,1.25806451612903,1.26129032258065,1.2741935483871,1.27741935483871,1.28387096774194,1.28387096774194,1.29032258064516,1.29354838709677,1.29032258064516,1.29354838709677,1.3,1.29032258064516,1.28709677419355,1.28709677419355,1.29354838709677,1.29032258064516,1.29032258064516,1.29677419354839,1.29677419354839,1.30322580645161,1.3,1.30645161290323,1.31290322580645,1.31935483870968,1.31612903225806,1.31290322580645,1.31290322580645,1.31612903225806,1.34516129032258,1.36774193548387,1.38709677419355,1.40967741935484,1.43225806451613,1.45161290322581,1.45483870967742,1.42903225806452,1.39354838709677,1.36451612903226,1.31612903225806,1.3,1.31290322580645,1.30967741935484,1.30645161290323,1.29354838709677,1.28387096774194,1.19354838709677,1.21935483870968,1.73548387096774,2.48709677419355,1.91935483870968,1.07741935483871,1.04516129032258,1.25483870967742,1.36774193548387,1.32258064516129,1.31935483870968,1.33225806451613,1.34838709677419,1.36774193548387,1.38064516129032,1.38387096774194,1.38709677419355,1.40645161290323,1.4258064516129,1.44193548387097,1.45806451612903,1.46774193548387,1.49354838709677,1.50645161290323,1.53225806451613,1.55483870967742,1.59032258064516,1.61290322580645,1.65161290322581,1.70322580645161,1.74516129032258,1.79677419354839,1.82903225806452,1.84838709677419,1.87096774193548,1.8258064516129,1.7258064516129,1.60967741935484,1.5,1.40645161290323,1.32258064516129,1.28387096774194,1.26129032258065,1.24193548387097,1.24516129032258,1.24193548387097,1.23548387096774,1.23548387096774,1.24838709677419,1.25161290322581,1.26129032258065,1.25806451612903,1.26451612903226,1.26774193548387,1.27741935483871,1.27741935483871,1.28064516129032,1.28709677419355,1.27741935483871,1.29032258064516,1.29354838709677,1.29032258064516,1.29354838709677,1.3,1.3,1.29354838709677,1.30322580645161,1.29354838709677,1.29032258064516,1.3,1.3,1.30645161290323,1.30322580645161,1.3258064516129,1.35161290322581,1.35806451612903,1.38709677419355,1.41935483870968,1.42258064516129,1.43548387096774,1.41935483870968,1.39677419354839,1.35806451612903,1.30967741935484,1.28064516129032,1.28064516129032,1.29032258064516,1.28387096774194,1.28387096774194,1.28064516129032,1.21612903225806,1.1741935483871,1.55806451612903,2.41290322580645,2.12903225806452,1.17741935483871,0.993548387096774,1.21612903225806,1.35161290322581,1.30967741935484,1.31612903225806,1.32903225806452,1.33225806451613,1.34516129032258,1.35806451612903,1.3741935483871,1.38709677419355,1.41612903225806,1.43870967741935,1.43225806451613,1.44516129032258,1.45806451612903,1.47096774193548,1.48709677419355,1.5258064516129,1.54516129032258,1.56774193548387,1.60322580645161,1.64193548387097,1.70645161290323,1.74193548387097,1.77096774193548,1.81935483870968,1.86451612903226,1.85161290322581,1.80967741935484,1.71612903225806,1.59677419354839,1.48064516129032,1.39677419354839,1.31935483870968,1.28709677419355,1.26451612903226,1.23548387096774,1.24193548387097,1.23548387096774,1.24516129032258,1.24516129032258,1.24838709677419,1.25806451612903,1.26451612903226,1.26451612903226,1.27096774193548,1.26451612903226,1.27096774193548,1.27096774193548,1.27096774193548,1.28064516129032,1.27741935483871,1.28064516129032,1.27096774193548,1.27096774193548,1.28387096774194,1.28064516129032,1.29354838709677,1.29032258064516,1.29677419354839,1.29677419354839,1.29677419354839,1.30322580645161,1.30322580645161,1.30967741935484,1.30322580645161,1.31612903225806,1.33225806451613,1.35161290322581,1.36451612903226,1.4,1.43225806451613,1.44516129032258,1.45161290322581,1.43225806451613,1.40645161290323,1.38064516129032,1.33548387096774,1.30322580645161,1.30322580645161,1.31612903225806,1.31290322580645,1.30967741935484,1.29677419354839,1.23225806451613,1.18709677419355,1.52258064516129,2.3741935483871,2.20967741935484,1.26774193548387,0.996774193548387,1.20322580645161,1.3741935483871,1.33225806451613,1.31935483870968,1.33225806451613,1.33548387096774,1.34516129032258,1.35161290322581,1.36774193548387,1.38387096774194,1.40967741935484,1.41935483870968,1.42903225806452,1.44516129032258,1.46774193548387,1.49032258064516,1.5,1.51612903225806,1.54516129032258,1.58387096774194,1.61290322580645,1.65161290322581,1.69032258064516,1.7258064516129,1.78387096774194,1.82903225806452,1.84838709677419,1.86451612903226,1.84193548387097,1.75483870967742,1.62903225806452,1.51612903225806,1.4258064516129,1.35483870967742,1.30967741935484,1.28064516129032,1.26129032258065,1.25161290322581,1.24838709677419,1.25483870967742,1.26451612903226,1.28064516129032,1.29354838709677,1.29032258064516,1.3,1.29354838709677,1.29354838709677,1.29354838709677,1.29354838709677,1.29677419354839,1.29354838709677,1.29354838709677,1.29677419354839,1.30322580645161,1.30322580645161,1.29677419354839,1.29032258064516,1.28709677419355,1.28709677419355,1.29677419354839,1.29677419354839,1.3,1.29032258064516,1.30645161290323,1.3,1.29354838709677,1.30967741935484,1.30967741935484,1.31290322580645,1.31935483870968,1.31290322580645,1.31935483870968,1.33225806451613,1.36129032258065,1.37741935483871,1.38709677419355,1.4258064516129,1.45161290322581,1.44838709677419,1.4258064516129,1.4,1.36451612903226,1.3258064516129,1.30322580645161,1.30645161290323,1.30967741935484,1.30967741935484,1.30967741935484,1.3,1.23870967741935,1.18709677419355,1.50322580645161,2.31290322580645,2.09677419354839,1.19032258064516,1.00322580645161,1.18064516129032,1.34516129032258,1.33870967741935,1.32258064516129,1.33870967741935,1.35806451612903,1.35806451612903,1.36774193548387,1.38709677419355,1.39354838709677,1.41612903225806,1.42903225806452,1.42903225806452,1.43548387096774,1.46129032258065,1.49032258064516,1.50645161290323,1.5258064516129,1.55161290322581,1.59032258064516,1.62258064516129,1.66129032258065,1.70322580645161,1.73225806451613,1.77741935483871,1.83225806451613,1.86451612903226,1.8741935483871,1.84838709677419,1.76451612903226,1.63870967741935,1.51612903225806,1.4258064516129,1.35483870967742,1.3,1.27096774193548,1.26129032258065,1.24516129032258,1.24838709677419,1.24838709677419,1.24838709677419,1.25161290322581,1.26451612903226,1.26774193548387,1.27741935483871,1.27096774193548,1.27741935483871,1.28064516129032,1.27741935483871,1.27741935483871,1.27741935483871,1.29354838709677,1.29354838709677,1.28709677419355,1.28387096774194,1.27741935483871,1.28709677419355,1.28709677419355,1.28387096774194,1.28709677419355,1.27741935483871,1.28709677419355,1.28709677419355,1.29677419354839,1.29354838709677,1.3,1.29354838709677,1.3,1.30645161290323,1.32258064516129,1.34838709677419,1.36774193548387,1.4,1.42258064516129,1.42903225806452,1.40322580645161,1.37096774193548,1.34838709677419,1.31290322580645,1.27741935483871,1.28064516129032,1.28387096774194,1.28064516129032,1.29354838709677,1.29354838709677,1.25483870967742,1.17741935483871,1.37741935483871,2.05161290322581,2.13225806451613,1.29354838709677,0.970967741935484,1.07741935483871,1.23870967741935,1.34516129032258,1.32903225806452,1.33870967741935,1.36774193548387,1.38064516129032,1.39677419354839,1.41612903225806,1.42258064516129,1.4258064516129,1.44838709677419,1.45806451612903,1.47096774193548,1.48709677419355,1.50645161290323,1.51290322580645,1.53870967741935,1.56451612903226,1.57741935483871,1.61612903225806,1.66129032258065,1.70322580645161,1.74838709677419,1.79677419354839,1.83548387096774,1.86774193548387,1.8741935483871,1.84193548387097,1.76451612903226,1.64838709677419,1.52903225806452,1.42258064516129,1.36774193548387,1.30967741935484,1.28387096774194,1.26129032258065,1.25806451612903,1.26129032258065,1.25161290322581,1.25806451612903,1.27096774193548,1.27741935483871,1.27741935483871,1.27741935483871,1.29354838709677,1.3,1.30322580645161,1.31290322580645,1.30967741935484,1.30322580645161,1.30322580645161,1.30645161290323,1.31612903225806,1.31612903225806,1.31935483870968,1.31612903225806,1.30322580645161,1.31612903225806,1.32258064516129,1.32903225806452,1.32258064516129,1.31935483870968,1.32258064516129,1.3258064516129,1.32903225806452,1.32903225806452,1.34838709677419,1.36774193548387,1.39354838709677,1.41290322580645,1.44516129032258,1.4741935483871,1.46451612903226,1.42903225806452,1.41290322580645,1.38387096774194,1.33870967741935,1.3258064516129,1.33870967741935,1.34193548387097,1.32903225806452,1.3258064516129,1.31935483870968,1.23870967741935,1.25806451612903,1.75161290322581,2.43870967741935,1.8,1.06129032258065,1.08064516129032,1.26774193548387,1.4,1.37741935483871,1.37096774193548,1.38387096774194,1.40645161290323,1.41935483870968,1.42258064516129,1.4258064516129,1.44838709677419,1.47096774193548
1.33548387096774,1.30645161290323,1.3,1.28387096774194,1.30645161290323,1.30967741935484,1.28709677419355,1.25483870967742,1.17741935483871,1.43225806451613,2.24838709677419,2.41612903225806,1.41612903225806,0.954838709677419,1.13870967741935,1.34193548387097,1.34193548387097,1.31612903225806,1.31612903225806,1.33225806451613,1.35483870967742,1.3741935483871,1.38709677419355,1.38387096774194,1.39032258064516,1.40645161290323,1.43548387096774,1.44193548387097,1.44838709677419,1.46774193548387,1.4741935483871,1.48709677419355,1.51935483870968,1.54193548387097,1.56129032258065,1.59354838709677,1.6258064516129,1.66129032258065,1.71612903225806,1.76129032258065,1.78387096774194,1.80967741935484,1.80322580645161,1.74516129032258,1.66774193548387,1.55161290322581,1.43548387096774,1.3741935483871,1.30645161290323,1.26451612903226,1.23870967741935,1.22903225806452,1.23548387096774,1.22258064516129,1.23225806451613,1.22903225806452,1.2258064516129,1.23870967741935,1.24516129032258,1.24193548387097,1.25161290322581,1.25806451612903,1.26451612903226,1.2741935483871,1.27096774193548,1.27741935483871,1.27741935483871,1.28064516129032,1.27741935483871,1.2741935483871,1.28709677419355,1.28709677419355,1.26774193548387,1.28064516129032,1.3,1.31290322580645,1.30645161290323,1.29677419354839,1.3,1.30967741935484,1.30322580645161,1.30967741935484,1.30967741935484,1.30967741935484,1.31290322580645,1.3258064516129,1.3258064516129,1.32903225806452,1.3258064516129,1.34516129032258,1.36451612903226,1.37096774193548,1.3741935483871,1.3741935483871,1.36774193548387,1.3741935483871,1.4,1.41612903225806,1.42258064516129,1.44193548387097,1.47096774193548,1.47741935483871,1.45806451612903,1.42903225806452,1.39032258064516,1.35806451612903,1.33870967741935,1.3258064516129,1.31612903225806,1.31290322580645,1.32903225806452,1.31290322580645,1.30645161290323,1.20645161290323,1.32258064516129,2.01935483870968,2.49354838709677,1.64193548387097,1.00645161290323,1.11612903225806,1.33870967741935,1.36451612903226,1.33870967741935,1.34838709677419,1.36129032258065,1.3741935483871,1.37741935483871,1.38387096774194,1.4,1.40322580645161,1.42258064516129,1.44838709677419,1.45161290322581,1.47096774193548,1.49032258064516,1.51290322580645,1.53225806451613,1.54516129032258,1.56129032258065,1.59677419354839,1.6258064516129,1.65806451612903,1.70322580645161,1.75161290322581,1.78387096774194,1.82258064516129,1.86774193548387,1.86451612903226,1.81612903225806,1.75483870967742,1.64516129032258,1.51935483870968,1.43548387096774,1.35806451612903,1.30967741935484,1.28387096774194,1.27096774193548,1.26129032258065,1.25483870967742,1.25161290322581,1.24516129032258,1.25483870967742,1.26774193548387,1.26451612903226,1.27096774193548,1.26774193548387,1.27096774193548,1.28064516129032,1.28387096774194,1.2741935483871,1.27096774193548,1.28709677419355,1.28709677419355,1.29354838709677,1.29677419354839,1.3,1.30322580645161,1.29677419354839,1.29677419354839,1.31290322580645,1.30645161290323,1.30322580645161,1.29354838709677,1.30967741935484,1.31290322580645,1.30967741935484,1.32258064516129,1.3258064516129,1.32903225806452,1.32903225806452,1.32258064516129,1.33225806451613,1.33225806451613,1.32258064516129,1.31612903225806,1.3258064516129,1.32903225806452,1.33548387096774,1.33548387096774,1.35161290322581,1.34193548387097,1.33548387096774,1.34193548387097,1.34516129032258,1.36129032258065,1.39354838709677,1.40645161290323,1.41290322580645,1.43548387096774,1.48064516129032,1.47096774193548,1.43870967741935,1.40645161290323,1.3741935483871,1.34516129032258,1.32903225806452,1.33548387096774,1.33225806451613,1.33225806451613,1.33225806451613,1.32258064516129,1.22258064516129,1.21612903225806,1.74193548387097,2.49677419354839,1.90967741935484,1.07741935483871,1.0741935483871,1.31935483870968,1.38387096774194,1.3258064516129,1.33548387096774,1.36129032258065,1.36451612903226,1.36451612903226,1.36451612903226,1.38387096774194,1.40645161290323,1.41612903225806,1.4258064516129,1.43225806451613,1.44516129032258,1.47741935483871,1.49677419354839,1.51935483870968,1.53548387096774,1.55483870967742,1.58064516129032,1.6,1.61935483870968,1.65806451612903,1.70645161290323,1.74193548387097,1.76774193548387,1.79354838709677,1.80645161290323,1.79354838709677,1.74193548387097,1.63548387096774,1.5258064516129,1.43870967741935,1.37096774193548,1.31612903225806,1.28064516129032,1.27741935483871,1.26774193548387,1.25161290322581,1.24516129032258,1.25161290322581,1.26774193548387,1.27741935483871,1.28064516129032,1.28064516129032,1.28387096774194,1.30322580645161,1.28709677419355,1.3,1.31612903225806,1.30322580645161,1.30322580645161,1.3,1.30322580645161,1.29354838709677,1.29032258064516,1.29354838709677,1.3,1.30322580645161,1.30322580645161,1.30645161290323,1.30645161290323,1.3,1.30967741935484,1.30645161290323,1.30645161290323,1.30967741935484,1.3,1.30322580645161,1.31612903225806,1.30967741935484,1.30645161290323,1.31290322580645,1.32258064516129,1.34193548387097,1.33548387096774,1.33548387096774,1.33870967741935,1.34193548387097,1.33870967741935,1.33548387096774,1.34516129032258,1.37096774193548,1.39677419354839,1.39354838709677,1.41290322580645,1.45483870967742,1.45806451612903,1.42903225806452,1.42258064516129,1.38387096774194,1.35483870967742,1.32903225806452,1.3258064516129,1.3258064516129,1.3258064516129,1.33548387096774,1.33870967741935,1.28064516129032,1.2,1.4,2.18387096774194,2.27096774193548,1.34516129032258,1.01290322580645,1.1741935483871,1.36451612903226,1.37096774193548,1.34193548387097,1.35161290322581,1.35806451612903,1.3741935483871,1.39354838709677,1.40322580645161,1.41612903225806,1.42258064516129,1.43225806451613,1.45806451612903,1.45806451612903,1.4741935483871,1.49032258064516,1.50645161290323,1.5258064516129,1.53870967741935,1.56129032258065,1.59354838709677,1.63225806451613,1.66129032258065,1.69677419354839,1.73870967741935,1.78387096774194,1.81935483870968,1.83548387096774,1.82258064516129,1.76451612903226,1.68709677419355,1.58387096774194,1.48064516129032,1.38064516129032,1.32903225806452,1.30322580645161,1.27096774193548,1.24838709677419,1.25806451612903,1.25161290322581,1.24193548387097,1.24838709677419,1.26129032258065,1.26451612903226,1.26129032258065,1.27096774193548,1.27741935483871,1.27741935483871,1.29677419354839,1.30322580645161,1.28387096774194,1.29677419354839,1.30645161290323,1.29032258064516,1.28387096774194,1.30645161290323,1.31290322580645,1.30322580645161,1.3,1.30322580645161,1.29354838709677,1.30645161290323,1.30967741935484,1.30322580645161,1.3,1.29677419354839,1.30322580645161,1.30967741935484,1.30322580645161,1.29354838709677,1.30322580645161,1.32258064516129,1.31612903225806,1.31290322580645,1.32903225806452,1.34516129032258,1.36451612903226,1.39032258064516,1.40967741935484,1.44838709677419,1.44193548387097,1.40967741935484,1.39032258064516,1.36129032258065,1.31935483870968,1.29677419354839,1.28709677419355,1.29677419354839,1.3,1.30322580645161,1.3,1.25483870967742,1.2,1.43225806451613,2.13225806451613,2.1258064516129,1.25806451612903,0.996774193548387,1.11612903225806,1.26451612903226,1.34838709677419,1.33548387096774,1.34516129032258,1.36451612903226,1.3741935483871,1.3741935483871,1.39354838709677,1.41612903225806,1.42258064516129,1.44193548387097,1.45806451612903,1.46774193548387,1.49032258064516,1.50967741935484,1.53548387096774,1.55483870967742,1.56451612903226,1.59354838709677,1.61935483870968,1.65483870967742,1.69354838709677,1.73225806451613,1.77096774193548,1.80645161290323,1.83225806451613,1.84193548387097,1.84193548387097,1.78064516129032,1.67741935483871,1.55806451612903,1.45806451612903,1.38387096774194,1.32903225806452,1.29354838709677,1.29032258064516,1.28709677419355,1.2741935483871,1.2741935483871,1.2741935483871,1.28064516129032,1.28709677419355,1.28709677419355,1.29677419354839,1.30322580645161,1.30322580645161,1.3,1.30967741935484,1.30967741935484,1.31290322580645,1.31612903225806,1.31290322580645,1.30322580645161,1.30322580645161,1.30967741935484,1.30967741935484,1.30322580645161,1.30322580645161,1.30322580645161,1.29354838709677,1.3,1.30645161290323,1.30645161290323,1.30967741935484,1.30967741935484,1.31612903225806,1.30645161290323,1.31290322580645,1.3258064516129,1.36129032258065,1.38064516129032,1.40322580645161,1.43870967741935,1.45806451612903,1.45806451612903,1.43870967741935,1.40645161290323,1.3741935483871,1.3258064516129,1.27096774193548,1.27741935483871,1.28709677419355,1.28064516129032,1.27741935483871,1.26451612903226,1.20967741935484,1.17096774193548,1.56451612903226,2.47741935483871,2.25483870967742,1.14838709677419,0.890322580645161,1.18387096774194,1.35483870967742,1.31290322580645,1.30645161290323,1.30967741935484,1.31612903225806,1.33225806451613,1.34516129032258,1.36129032258065,1.3741935483871,1.39677419354839,1.40322580645161,1.41290322580645,1.43548387096774,1.44838709677419,1.46451612903226,1.49354838709677,1.50967741935484,1.53225806451613,1.55483870967742,1.58387096774194,1.6,1.62903225806452,1.67741935483871,1.71935483870968,1.75483870967742,1.78387096774194,1.79677419354839,1.78387096774194,1.71290322580645,1.60322580645161,1.50322580645161,1.41612903225806,1.34193548387097,1.3,1.26774193548387,1.25806451612903,1.25161290322581,1.24193548387097,1.23870967741935,1.24516129032258,1.25483870967742,1.25806451612903,1.26451612903226,1.26129032258065,1.25806451612903,1.26774193548387,1.26774193548387,1.26774193548387,1.27741935483871,1.28064516129032,1.28064516129032,1.28064516129032,1.27741935483871,1.28387096774194,1.28709677419355,1.29032258064516,1.27741935483871,1.28709677419355,1.29032258064516,1.28709677419355,1.3,1.29032258064516,1.3,1.30967741935484,1.31290322580645,1.31290322580645,1.31290322580645,1.3258064516129,1.35483870967742,1.37096774193548,1.39032258064516,1.4258064516129,1.44838709677419,1.44838709677419,1.43548387096774,1.40645161290323,1.37741935483871,1.33870967741935,1.3,1.29677419354839,1.30322580645161,1.3,1.3,1.29354838709677,1.25161290322581,1.17741935483871,1.39677419354839,2.18387096774194,2.36129032258065,1.3741935483871,0.948387096774194,1.12258064516129,1.33225806451613,1.34193548387097,1.33548387096774,1.34516129032258,1.35161290322581,1.36129032258065,1.37741935483871,1.38709677419355,1.39677419354839,1.41290322580645,1.43225806451613,1.42903225806452,1.44838709677419,1.46774193548387,1.50645161290323,1.51935483870968,1.52903225806452,1.54193548387097,1.5741935483871,1.60322580645161,1.63870967741935,1.6741935483871,1.71612903225806,1.75806451612903,1.8,1.83225806451613,1.84193548387097,1.83225806451613,1.76451612903226,1.64838709677419,1.54516129032258,1.44838709677419,1.39354838709677,1.33548387096774,1.3,1.29032258064516,1.28709677419355,1.28387096774194,1.2741935483871,1.28387096774194,1.28709677419355,1.28064516129032,1.29677419354839,1.30322580645161,1.29354838709677,1.30645161290323,1.30967741935484,1.30967741935484,1.31612903225806,1.31290322580645,1.32258064516129,1.33225806451613,1.31612903225806,1.32903225806452,1.31935483870968,1.3258064516129,1.33225806451613,1.33870967741935,1.33225806451613,1.33225806451613,1.33225806451613,1.31935483870968,1.32258064516129,1.32903225806452,1.3258064516129,1.3258064516129,1.33870967741935,1.33870967741935,1.32903225806452,1.31935483870968,1.32903225806452,1.32903225806452,1.33870967741935,1.36451612903226,1.37741935483871,1.39032258064516,1.40645161290323,1.43870967741935,1.46451612903226,1.44516129032258,1.4258064516129,1.39354838709677,1.34838709677419,1.30967741935484,1.29677419354839,1.30322580645161,1.3,1.29677419354839,1.29677419354839,1.27741935483871,1.18387096774194,1.27096774193548,1.87741935483871,2.39354838709677,1.58387096774194,0.967741935483871,1.07096774193548,1.26129032258065,1.3258064516129,1.30967741935484,1.32903225806452,1.34838709677419,1.35483870967742,1.36129032258065,1.3741935483871,1.38709677419355,1.41290322580645,1.4258064516129,1.42903225806452,1.43870967741935,1.47741935483871,1.48709677419355,1.49677419354839,1.51612903225806,1.53870967741935,1.56129032258065,1.58709677419355,1.6258064516129,1.65161290322581,1.69354838709677,1.75806451612903,1.79032258064516,1.81612903225806,1.83548387096774,1.83548387096774,1.78387096774194,1.68064516129032,1.57096774193548,1.45806451612903,1.37096774193548,1.30967741935484,1.2741935483871,1.24193548387097,1.24193548387097,1.23870967741935,1.22903225806452,1.22258064516129,1.23870967741935,1.23870967741935,1.23870967741935,1.25806451612903,1.25483870967742,1.27096774193548,1.25806451612903,1.27096774193548,1.27741935483871,1.2741935483871,1.27096774193548,1.27741935483871,1.29032258064516,1.28387096774194,1.2741935483871,1.28387096774194,1.28709677419355,1.28387096774194,1.2741935483871,1.27096774193548,1.28064516129032,1.28387096774194,1.27096774193548,1.29032258064516,1.29677419354839,1.29677419354839,1.30322580645161,1.30322580645161,1.32258064516129,1.34516129032258,1.36129032258065,1.38709677419355,1.40967741935484,1.43548387096774,1.45161290322581,1.43548387096774,1.40967741935484,1.38064516129032,1.32903225806452,1.3,1.3,1.30322580645161,1.30645161290323,1.30645161290323,1.30322580645161,1.27741935483871,1.19032258064516,1.29354838709677,1.86451612903226,2.35483870967742,1.55806451612903,0.996774193548387,1.06129032258065,1.22258064516129,1.34516129032258,1.33870967741935,1.33870967741935,1.35483870967742,1.3741935483871,1.39032258064516,1.38387096774194,1.41290322580645,1.4258064516129,1.43870967741935,1.45483870967742,1.46451612903226,1.48709677419355,1.49354838709677,1.50645161290323,1.52903225806452,1.54838709677419,1.56774193548387,1.59677419354839,1.63225806451613,1.65806451612903,1.69354838709677,1.73870967741935,1.78064516129032,1.80645161290323,1.81935483870968,1.81290322580645,1.75806451612903,1.65806451612903,1.55161290322581,1.44838709677419,1.38709677419355,1.33870967741935,1.29677419354839,1.28064516129032,1.26774193548387,1.26774193548387,1.28064516129032,1.28387096774194,1.27741935483871,1.2741935483871,1.29032258064516,1.29677419354839,1.30322580645161,1.30645161290323,1.31290322580645,1.31612903225806,1.32903225806452,1.32903225806452,1.3258064516129,1.3258064516129,1.32903225806452,1.32258064516129,1.31612903225806,1.30967741935484,1.31290322580645,1.31290322580645,1.31612903225806,1.31290322580645,1.31612903225806,1.31612903225806,1.31290322580645,1.32258064516129,1.32903225806452,1.3258064516129,1.32258064516129,1.34193548387097,1.34838709677419,1.34516129032258,1.33548387096774,1.35161290322581,1.38387096774194,1.39354838709677,1.4258064516129,1.44838709677419,1.45161290322581,1.46451612903226,1.44516129032258,1.41612903225806,1.37741935483871,1.33548387096774,1.3,1.30645161290323,1.29354838709677,1.29032258064516,1.29032258064516,1.29354838709677,1.23225806451613,1.20645161290323,1.6258064516129,2.52903225806452,2.24193548387097,1.16129032258065,0.932258064516129,1.21935483870968,1.36129032258065,1.32258064516129,1.31935483870968,1.3258064516129,1.33548387096774,1.35483870967742,1.3741935483871,1.38709677419355,1.38387096774194,1.39354838709677,1.41612903225806,1.4258064516129,1.43870967741935,1.45161290322581,1.46451612903226,1.49032258064516,1.49354838709677,1.51935483870968,1.54838709677419,1.58709677419355,1.60967741935484,1.64193548387097,1.69032258064516,1.72258064516129,1.75483870967742,1.78709677419355,1.79677419354839,1.76451612903226,1.69032258064516,1.60322580645161,1.48709677419355,1.39677419354839,1.3258064516129,1.28709677419355,1.24838709677419,1.23870967741935,1.24193548387097,1.23548387096774,1.23870967741935,1.23870967741935,1.23870967741935,1.24193548387097,1.25483870967742,1.25806451612903,1.27096774193548,1.2741935483871,1.27741935483871,1.29032258064516,1.29354838709677,1.29032258064516,1.28064516129032,1.28709677419355,1.29677419354839,1.30322580645161,1.30967741935484,1.3,1.3,1.31290322580645,1.30967741935484,1.3258064516129,1.32258064516129,1.31290322580645,1.31612903225806,1.31290322580645,1.31612903225806,1.31935483870968,1.31290322580645,1.31935483870968,1.32903225806452,1.33225806451613,1.33225806451613,1.33870967741935,1.37096774193548,1.38709677419355,1.40322580645161,1.44193548387097,1.44193548387097,1.45806451612903,1.45806451612903,1.4258064516129,1.39354838709677,1.35161290322581,1.31612903225806,1.31290322580645,1.3258064516129,1.3258064516129,1.32258064516129,1.31935483870968,1.28387096774194,1.20645161290323,1.40322580645161,2.16774193548387,2.47096774193548,1.50645161290323,0.961290322580645,1.11935483870968,1.34193548387097,1.34193548387097,1.31612903225806,1.34193548387097,1.34838709677419,1.35161290322581,1.37096774193548,1.36774193548387,1.37741935483871,1.39032258064516,1.4,1.42258064516129,1.45483870967742,1.46129032258065,1.45806451612903,1.48064516129032,1.50645161290323,1.52903225806452,1.54516129032258,1.56774193548387,1.61935483870968,1.64838709677419,1.69032258064516,1.75161290322581,1.78709677419355,1.81290322580645,1.82903225806452,1.79677419354839,1.7258064516129,1.6258064516129,1.51290322580645,1.41935483870968,1.34193548387097,1.28387096774194,1.25161290322581,1.24838709677419,1.24193548387097,1.23548387096774,1.23548387096774,1.25161290322581,1.25161290322581,1.24516129032258,1.25161290322581,1.27741935483871,1.2741935483871,1.28064516129032,1.28387096774194,1.2741935483871,1.27741935483871,1.28064516129032,1.27741935483871,1.28387096774194,1.28387096774194,1.27741935483871,1.28709677419355,1.29354838709677,1.29354838709677,1.29354838709677,1.30967741935484,1.3,1.30322580645161,1.30322580645161,1.29354838709677,1.31935483870968,1.33225806451613,1.32258064516129,1.32258064516129,1.32903225806452,1.32903225806452,1.3258064516129,1.33225806451613,1.32258064516129,1.31612903225806,1.34193548387097,1.34838709677419,1.36774193548387,1.38709677419355,1.4,1.43548387096774,1.46451612903226,1.47096774193548,1.45483870967742,1.43225806451613,1.38709677419355,1.34516129032258,1.3258064516129,1.30967741935484,1.30967741935484,1.33225806451613,1.33870967741935,1.3258064516129,1.30967741935484,1.2,1.24838709677419,1.86451612903226,2.50322580645161,1.77096774193548,1.01290322580645,1.0741935483871,1.30645161290323,1.38064516129032,1.35483870967742,1.37096774193548,1.37741935483871,1.39032258064516,1.4,1.41290322580645,1.42258064516129,1.43548387096774,1.44838709677419,1.46451612903226,1.47741935483871,1.49354838709677,1.50967741935484,1.53225806451613,1.54838709677419,1.56129032258065,1.58064516129032,1.61290322580645,1.64516129032258,1.68387096774194,1.72903225806452,1.74516129032258,1.78387096774194,1.8258064516129,1.85161290322581,1.85483870967742,1.79677419354839,1.70967741935484,1.6,1.48387096774194,1.4,1.33870967741935,1.31612903225806,1.29032258064516,1.2741935483871,1.2741935483871,1.27096774193548,1.2741935483871,1.29032258064516,1.28387096774194,1.2741935483871,1.2741935483871,1.2741935483871,1.29032258064516,1.3,1.3,1.29677419354839,1.29677419354839,1.30322580645161,1.30322580645161,1.3,1.30645161290323,1.30322580645161,1.3,1.30322580645161,1.29677419354839,1.29677419354839,1.3,1.30967741935484,1.3,1.30645161290323,1.31290322580645,1.31935483870968,1.31612903225806,1.31290322580645,1.31612903225806,1.31612903225806,1.32258064516129,1.32903225806452,1.32258064516129,1.31935483870968,1.31935483870968,1.32258064516129,1.32903225806452,1.31612903225806,1.32258064516129,1.33548387096774,1.35806451612903,1.37741935483871,1.38387096774194,1.40967741935484,1.43225806451613,1.45483870967742,1.43225806451613,1.39677419354839,1.37096774193548,1.3258064516129,1.28709677419355,1.29677419354839,1.29677419354839,1.29354838709677,1.28387096774194,1.29032258064516,1.25161290322581,1.14838709677419,1.33225806451613,2.1,2.32903225806452,1.4258064516129,0.938709677419355,1.11612903225806,1.32258064516129,1.31612903225806,1.28064516129032,1.28709677419355,1.31612903225806,1.32258064516129,1.32258064516129,1.34193548387097,1.35806451612903,1.36129032258065,1.3741935483871,1.39032258064516,1.41612903225806,1.42258064516129,1.43548387096774,1.45483870967742,1.46774193548387,1.50322580645161,1.5258064516129,1.56129032258065,1.58387096774194,1.61290322580645,1.66451612903226,1.71612903225806,1.75483870967742,1.78709677419355,1.79354838709677,1.79032258064516,1.74193548387097,1.65161290322581,1.53225806451613,1.43225806451613,1.36129032258065,1.30645161290323,1.28387096774194,1.27096774193548,1.24516129032258,1.24838709677419,1.25806451612903,1.25806451612903,1.24516129032258,1.25806451612903,1.28387096774194,1.29032258064516,1.29032258064516,1.3,1.30967741935484,1.32258064516129,1.31612903225806
1.29354838709677,1.29354838709677,1.3,1.29354838709677,1.28709677419355,1.29677419354839,1.30322580645161,1.30322580645161,1.30322580645161,1.30645161290323,1.30645161290323,1.31290322580645,1.31290322580645,1.31290322580645,1.31612903225806,1.30645161290323,1.29032258064516,1.31935483870968,1.3258064516129,1.33225806451613,1.36129032258065,1.3741935483871,1.37741935483871,1.40322580645161,1.44516129032258,1.43548387096774,1.41612903225806,1.39354838709677,1.36451612903226,1.32903225806452,1.29677419354839,1.30645161290323,1.30645161290323,1.30645161290323,1.31935483870968,1.30322580645161,1.25161290322581,1.21290322580645,1.44838709677419,2.19032258064516,2.10645161290323,1.26451612903226,1.0258064516129,1.16129032258065,1.31290322580645,1.35483870967742,1.33548387096774,1.33870967741935,1.35161290322581,1.36451612903226,1.37741935483871,1.40322580645161,1.40645161290323,1.40967741935484,1.42903225806452,1.44838709677419,1.46129032258065,1.4741935483871,1.5,1.51612903225806,1.54193548387097,1.55483870967742,1.58709677419355,1.6258064516129,1.66129032258065,1.69677419354839,1.74193548387097,1.77741935483871,1.81612903225806,1.84838709677419,1.81612903225806,1.74193548387097,1.63870967741935,1.53225806451613,1.43870967741935,1.36451612903226,1.32258064516129,1.29032258064516,1.27741935483871,1.26129032258065,1.26129032258065,1.26129032258065,1.26129032258065,1.26451612903226,1.26774193548387,1.26129032258065,1.26774193548387,1.28064516129032,1.3,1.30322580645161,1.30645161290323,1.31290322580645,1.31612903225806,1.31290322580645,1.30322580645161,1.30645161290323,1.31290322580645,1.31612903225806,1.32903225806452,1.32903225806452,1.31935483870968,1.32258064516129,1.32258064516129,1.31935483870968,1.32258064516129,1.31935483870968,1.3258064516129,1.31935483870968,1.32258064516129,1.33225806451613,1.32903225806452,1.34193548387097,1.35161290322581,1.36774193548387,1.38064516129032,1.39354838709677,1.42903225806452,1.45161290322581,1.45806451612903,1.42903225806452,1.39677419354839,1.37741935483871,1.33548387096774,1.31935483870968,1.32258064516129,1.3258064516129,1.32258064516129,1.31612903225806,1.31290322580645,1.24193548387097,1.17096774193548,1.47741935483871,2.31612903225806,2.15806451612903,1.28064516129032,1.06451612903226,1.20967741935484,1.35806451612903,1.34516129032258,1.33548387096774,1.34193548387097,1.34838709677419,1.35483870967742,1.37096774193548,1.39032258064516,1.39677419354839,1.41612903225806,1.4258064516129,1.43548387096774,1.45483870967742,1.46129032258065,1.48387096774194,1.50967741935484,1.53548387096774,1.55161290322581,1.58064516129032,1.6258064516129,1.65483870967742,1.69677419354839,1.73548387096774,1.77741935483871,1.80322580645161,1.80967741935484,1.80322580645161,1.7258064516129,1.60645161290323,1.49032258064516,1.4,1.33870967741935,1.3,1.27096774193548,1.25161290322581,1.23548387096774,1.23548387096774,1.24193548387097,1.24193548387097,1.24516129032258,1.26129032258065,1.26451612903226,1.26451612903226,1.26774193548387,1.2741935483871,1.27096774193548,1.2741935483871,1.29032258064516,1.29354838709677,1.28709677419355,1.29354838709677,1.30645161290323,1.30645161290323,1.29354838709677,1.29677419354839,1.29677419354839,1.30967741935484,1.3,1.30322580645161,1.31290322580645,1.31935483870968,1.30645161290323,1.31290322580645,1.31612903225806,1.31612903225806,1.31290322580645,1.32258064516129,1.3258064516129,1.32903225806452,1.32903225806452,1.32903225806452,1.32258064516129,1.32903225806452,1.34516129032258,1.38387096774194,1.39032258064516,1.40967741935484,1.42903225806452,1.45483870967742,1.43870967741935,1.4,1.38387096774194,1.34838709677419,1.31935483870968,1.31612903225806,1.31935483870968,1.31612903225806,1.31612903225806,1.31290322580645,1.29677419354839,1.21612903225806,1.26129032258065,1.85483870967742,2.53225806451613,1.87096774193548,1.11290322580645,1.11935483870968,1.33548387096774,1.36451612903226,1.32258064516129,1.32258064516129,1.33870967741935,1.34838709677419,1.36129032258065,1.36774193548387,1.3741935483871,1.39032258064516,1.40967741935484,1.4258064516129,1.44516129032258,1.46129032258065,1.48064516129032,1.49032258064516,1.50967741935484,1.54193548387097,1.56451612903226,1.59032258064516,1.63548387096774,1.6741935483871,1.70967741935484,1.75806451612903,1.8,1.8258064516129,1.83870967741935,1.81290322580645,1.7258064516129,1.61612903225806,1.5,1.40645161290323,1.34193548387097,1.3,1.2741935483871,1.26451612903226,1.25161290322581,1.25161290322581,1.26129032258065,1.25806451612903,1.25161290322581,1.26129032258065,1.28387096774194,1.28064516129032,1.28387096774194,1.27741935483871,1.28709677419355,1.3,1.3,1.3,1.30322580645161,1.3,1.30645161290323,1.31612903225806,1.32258064516129,1.30967741935484,1.30322580645161,1.31612903225806,1.31612903225806,1.31290322580645,1.31612903225806,1.31290322580645,1.31935483870968,1.31935483870968,1.30967741935484,1.31290322580645,1.31612903225806,1.31935483870968,1.32258064516129,1.32258064516129,1.33225806451613,1.33548387096774,1.32903225806452,1.32903225806452,1.33548387096774,1.34193548387097,1.33548387096774,1.33548387096774,1.34516129032258,1.33870967741935,1.35806451612903,1.38709677419355,1.40322580645161,1.41935483870968,1.43870967741935,1.46774193548387,1.46451612903226,1.43548387096774,1.4,1.36774193548387,1.33870967741935,1.31935483870968,1.33548387096774,1.33870967741935,1.33548387096774,1.33548387096774,1.31935483870968,1.23225806451613,1.21612903225806,1.6741935483871,2.51290322580645,2.1,1.23548387096774,1.10967741935484,1.30645161290323,1.38064516129032,1.31935483870968,1.33225806451613,1.34516129032258,1.35483870967742,1.36451612903226,1.36774193548387,1.38064516129032,1.39354838709677,1.41290322580645,1.41935483870968,1.42903225806452,1.44838709677419,1.4741935483871,1.49354838709677,1.50645161290323,1.53225806451613,1.55483870967742,1.58064516129032,1.6258064516129,1.66129032258065,1.69677419354839,1.73870967741935,1.7741935483871,1.81935483870968,1.83225806451613,1.81935483870968,1.77741935483871,1.66451612903226,1.55161290322581,1.44516129032258,1.36774193548387,1.32903225806452,1.28387096774194,1.26774193548387,1.26129032258065,1.24838709677419,1.24838709677419,1.24516129032258,1.25483870967742,1.26451612903226,1.25806451612903,1.26774193548387,1.27741935483871,1.2741935483871,1.26774193548387,1.27741935483871,1.28387096774194,1.29032258064516,1.29677419354839,1.29354838709677,1.29354838709677,1.30967741935484,1.30645161290323,1.3,1.30322580645161,1.30645161290323,1.3,1.3,1.30645161290323,1.31290322580645,1.32258064516129,1.30967741935484,1.30645161290323,1.30645161290323,1.30322580645161,1.30967741935484,1.32258064516129,1.3258064516129,1.32258064516129,1.3258064516129,1.32258064516129,1.3258064516129,1.31612903225806,1.33225806451613,1.35161290322581,1.34193548387097,1.33548387096774,1.34516129032258,1.35483870967742,1.34838709677419,1.35483870967742,1.35483870967742,1.37741935483871,1.40322580645161,1.40967741935484,1.42903225806452,1.45806451612903,1.48064516129032,1.45806451612903,1.41290322580645,1.39032258064516,1.36129032258065,1.3258064516129,1.32903225806452,1.33548387096774,1.33870967741935,1.33225806451613,1.33225806451613,1.3,1.18387096774194,1.35161290322581,2.14838709677419,2.4258064516129,1.58709677419355,1.08709677419355,1.20322580645161,1.39032258064516,1.36129032258065,1.32258064516129,1.34193548387097,1.34838709677419,1.35161290322581,1.39032258064516,1.40322580645161,1.40322580645161,1.41935483870968,1.42903225806452,1.43548387096774,1.45806451612903,1.4741935483871,1.47741935483871,1.49354838709677,1.52258064516129,1.54193548387097,1.57096774193548,1.60645161290323,1.64516129032258,1.6741935483871,1.71935483870968,1.76774193548387,1.80322580645161,1.82903225806452,1.84516129032258,1.81612903225806,1.72903225806452,1.60967741935484,1.50967741935484,1.41612903225806,1.33870967741935,1.29354838709677,1.27096774193548,1.25806451612903,1.25161290322581,1.24838709677419,1.23548387096774,1.24516129032258,1.25806451612903,1.25483870967742,1.25806451612903,1.2741935483871,1.28387096774194,1.27741935483871,1.28064516129032,1.28709677419355,1.29677419354839,1.30322580645161,1.29354838709677,1.29677419354839,1.3,1.29354838709677,1.30322580645161,1.31612903225806,1.31290322580645,1.31290322580645,1.30967741935484,1.30322580645161,1.30322580645161,1.3,1.3,1.30322580645161,1.30967741935484,1.30322580645161,1.30967741935484,1.32258064516129,1.31612903225806,1.31290322580645,1.31612903225806,1.3258064516129,1.33225806451613,1.3258064516129,1.33870967741935,1.34838709677419,1.34193548387097,1.34193548387097,1.33870967741935,1.34193548387097,1.33548387096774,1.35483870967742,1.38064516129032,1.39354838709677,1.39677419354839,1.41612903225806,1.44516129032258,1.46774193548387,1.44193548387097,1.41612903225806,1.39354838709677,1.35161290322581,1.31290322580645,1.32258064516129,1.33548387096774,1.32903225806452,1.31935483870968,1.31612903225806,1.29677419354839,1.19677419354839,1.35161290322581,2.09032258064516,2.26129032258065,1.38064516129032,1.01612903225806,1.14516129032258,1.30645161290323,1.36774193548387,1.3258064516129,1.34193548387097,1.37741935483871,1.37741935483871,1.38709677419355,1.39677419354839,1.41935483870968,1.44193548387097,1.44516129032258,1.46129032258065,1.46451612903226,1.48064516129032,1.50645161290323,1.5258064516129,1.54838709677419,1.56451612903226,1.59677419354839,1.6258064516129,1.65161290322581,1.70322580645161,1.74516129032258,1.78709677419355,1.82903225806452,1.85483870967742,1.85806451612903,1.82258064516129,1.73548387096774,1.63225806451613,1.51290322580645,1.41612903225806,1.35483870967742,1.31935483870968,1.28709677419355,1.28387096774194,1.26129032258065,1.25161290322581,1.25806451612903,1.25483870967742,1.25483870967742,1.26774193548387,1.25806451612903,1.26451612903226,1.27741935483871,1.28387096774194,1.28709677419355,1.30322580645161,1.29677419354839,1.29677419354839,1.29677419354839,1.29032258064516,1.3,1.30645161290323,1.30322580645161,1.3,1.29032258064516,1.28064516129032,1.28387096774194,1.29677419354839,1.30322580645161,1.3,1.28387096774194,1.30322580645161,1.30322580645161,1.3,1.30645161290323,1.31290322580645,1.31290322580645,1.31935483870968,1.31935483870968,1.32903225806452,1.31612903225806,1.31935483870968,1.35483870967742,1.37096774193548,1.38064516129032,1.39677419354839,1.44193548387097,1.46451612903226,1.44193548387097,1.41612903225806,1.39032258064516,1.34516129032258,1.30322580645161,1.30967741935484,1.31935483870968,1.30967741935484,1.30322580645161,1.30967741935484,1.2741935483871,1.2,1.30322580645161,1.92903225806452,2.31935483870968,1.50645161290323,1.03225806451613,1.11612903225806,1.25161290322581,1.35161290322581,1.32903225806452,1.33870967741935,1.36451612903226,1.36774193548387,1.3741935483871,1.38709677419355,1.39677419354839,1.41290322580645,1.4258064516129,1.43548387096774,1.45806451612903,1.47096774193548,1.47741935483871,1.5,1.5258064516129,1.54838709677419,1.56774193548387,1.60322580645161,1.63870967741935,1.67096774193548,1.71290322580645,1.75806451612903,1.78709677419355,1.80967741935484,1.83225806451613,1.79354838709677,1.71290322580645,1.60322580645161,1.48387096774194,1.40645161290323,1.34838709677419,1.31612903225806,1.28064516129032,1.26451612903226,1.26451612903226,1.26451612903226,1.26774193548387,1.26451612903226,1.26129032258065,1.28709677419355,1.29354838709677,1.28709677419355,1.29032258064516,1.3,1.30645161290323,1.3,1.31612903225806,1.32258064516129,1.31290322580645,1.30322580645161,1.30967741935484,1.31290322580645,1.30967741935484,1.30645161290323,1.31290322580645,1.31935483870968,1.31612903225806,1.31612903225806,1.31290322580645,1.3258064516129,1.32258064516129,1.32258064516129,1.32258064516129,1.33548387096774,1.33548387096774,1.33548387096774,1.34516129032258,1.34838709677419,1.36129032258065,1.35483870967742,1.34838709677419,1.35806451612903,1.38709677419355,1.40967741935484,1.42258064516129,1.44516129032258,1.46129032258065,1.47096774193548,1.45483870967742,1.4258064516129,1.38709677419355,1.34516129032258,1.32258064516129,1.31935483870968,1.32258064516129,1.31612903225806,1.31935483870968,1.31612903225806,1.23870967741935,1.17741935483871,1.51290322580645,2.4,2.26774193548387,1.31290322580645,1.0258064516129,1.22258064516129,1.36451612903226,1.3258064516129,1.32903225806452,1.33870967741935,1.34516129032258,1.35483870967742,1.36129032258065,1.37096774193548,1.38387096774194,1.39354838709677,1.40645161290323,1.42258064516129,1.44193548387097,1.46129032258065,1.46774193548387,1.49354838709677,1.52258064516129,1.54516129032258,1.56774193548387,1.60322580645161,1.63548387096774,1.66451612903226,1.70645161290323,1.75161290322581,1.79032258064516,1.80645161290323,1.80967741935484,1.77096774193548,1.6741935483871,1.56129032258065,1.45483870967742,1.37096774193548,1.31935483870968,1.28709677419355,1.27096774193548,1.24838709677419,1.23548387096774,1.25161290322581,1.25483870967742,1.25483870967742,1.25806451612903,1.26129032258065,1.26129032258065,1.26451612903226,1.2741935483871,1.29354838709677,1.28387096774194,1.28064516129032,1.29354838709677,1.29354838709677,1.29032258064516,1.29677419354839,1.29677419354839,1.29677419354839,1.29032258064516,1.29354838709677,1.3,1.29677419354839,1.29354838709677,1.29032258064516,1.28709677419355,1.29032258064516,1.30322580645161,1.3,1.29677419354839,1.29354838709677,1.30645161290323,1.31935483870968,1.30322580645161,1.31290322580645,1.3258064516129,1.3258064516129,1.3258064516129,1.3258064516129,1.32258064516129,1.32903225806452,1.33548387096774,1.36129032258065,1.37741935483871,1.39354838709677,1.41612903225806,1.4258064516129,1.45483870967742,1.45806451612903,1.41612903225806,1.38709677419355,1.35806451612903,1.32258064516129,1.31290322580645,1.31935483870968,1.31612903225806,1.31612903225806,1.31935483870968,1.30322580645161,1.20967741935484,1.26451612903226,1.88387096774194,2.5741935483871,1.88387096774194,1.10645161290323,1.11935483870968,1.33870967741935,1.36129032258065,1.32258064516129,1.32258064516129,1.34516129032258,1.35161290322581,1.35806451612903,1.37096774193548,1.38387096774194,1.4,1.41935483870968,1.4258064516129,1.43548387096774,1.44838709677419,1.46451612903226,1.48709677419355,1.5,1.52903225806452,1.55483870967742,1.58387096774194,1.61612903225806,1.65806451612903,1.70322580645161,1.73870967741935,1.7741935483871,1.81935483870968,1.8258064516129,1.80645161290323,1.75483870967742,1.66129032258065,1.54838709677419,1.43225806451613,1.37096774193548,1.31935483870968,1.28709677419355,1.26774193548387,1.25483870967742,1.24838709677419,1.25483870967742,1.25483870967742,1.24838709677419,1.25806451612903,1.27096774193548,1.2741935483871,1.2741935483871,1.28064516129032,1.28709677419355,1.29032258064516,1.3,1.29677419354839,1.3,1.29354838709677,1.30322580645161,1.30322580645161,1.3,1.29032258064516,1.29354838709677,1.30645161290323,1.31290322580645,1.30322580645161,1.29677419354839,1.3,1.31612903225806,1.31612903225806,1.31935483870968,1.32258064516129,1.32258064516129,1.31935483870968,1.31935483870968,1.32903225806452,1.3258064516129,1.34193548387097,1.34516129032258,1.34516129032258,1.33870967741935,1.34516129032258,1.34516129032258,1.37096774193548,1.4,1.40645161290323,1.43548387096774,1.44838709677419,1.46774193548387,1.45483870967742,1.4258064516129,1.39677419354839,1.35483870967742,1.32903225806452,1.32258064516129,1.31612903225806,1.31290322580645,1.31935483870968,1.32903225806452,1.28387096774194,1.18064516129032,1.36774193548387,2.18709677419355,2.40967741935484,1.52258064516129,1.05483870967742,1.20967741935484,1.39677419354839,1.35483870967742,1.33870967741935,1.35483870967742,1.36129032258065,1.36129032258065,1.37741935483871,1.39032258064516,1.39677419354839,1.40322580645161,1.42258064516129,1.44516129032258,1.45483870967742,1.46451612903226,1.48387096774194,1.50645161290323,1.52258064516129,1.53870967741935,1.58064516129032,1.60645161290323,1.63870967741935,1.68387096774194,1.72258064516129,1.76451612903226,1.80967741935484,1.83548387096774,1.84193548387097,1.79677419354839,1.71935483870968,1.6,1.49032258064516,1.4,1.33870967741935,1.29354838709677,1.28064516129032,1.26774193548387,1.26774193548387,1.25483870967742,1.26129032258065,1.26451612903226,1.25483870967742,1.26451612903226,1.27096774193548,1.28387096774194,1.28064516129032,1.28709677419355,1.29032258064516,1.2741935483871,1.28064516129032,1.28387096774194,1.29032258064516,1.29354838709677,1.29032258064516,1.29354838709677,1.29354838709677,1.29354838709677,1.30967741935484,1.31290322580645,1.31612903225806,1.30967741935484,1.31612903225806,1.31935483870968,1.31935483870968,1.32903225806452,1.3258064516129,1.33225806451613,1.32258064516129,1.32258064516129,1.33548387096774,1.33870967741935,1.33870967741935,1.33548387096774,1.33225806451613,1.32903225806452,1.33225806451613,1.33870967741935,1.34516129032258,1.37096774193548,1.39032258064516,1.39677419354839,1.43225806451613,1.46774193548387,1.47096774193548,1.44193548387097,1.4,1.38387096774194,1.34516129032258,1.31290322580645,1.32903225806452,1.33870967741935,1.3258064516129,1.32258064516129,1.3258064516129,1.26451612903226,1.21290322580645,1.6258064516129,2.39677419354839,1.9258064516129,1.11290322580645,1.07096774193548,1.23225806451613,1.37096774193548,1.37096774193548,1.36129032258065,1.36451612903226,1.35806451612903,1.3741935483871,1.38709677419355,1.40967741935484,1.42903225806452,1.43225806451613,1.43548387096774,1.44516129032258,1.46774193548387,1.48709677419355,1.5,1.51290322580645,1.53225806451613,1.56129032258065,1.59354838709677,1.63225806451613,1.67096774193548,1.69677419354839,1.73548387096774,1.76774193548387,1.82258064516129,1.84516129032258,1.8258064516129,1.74838709677419,1.65161290322581,1.5258064516129,1.42903225806452,1.35161290322581,1.29354838709677,1.25161290322581,1.22903225806452,1.22903225806452,1.20967741935484,1.20967741935484,1.21612903225806,1.21935483870968,1.21612903225806,1.22258064516129,1.23548387096774,1.22258064516129,1.23548387096774,1.23870967741935,1.24193548387097,1.24516129032258,1.24516129032258,1.24516129032258,1.24516129032258,1.24193548387097,1.25483870967742,1.24838709677419,1.24838709677419,1.24516129032258,1.24838709677419,1.25483870967742,1.25806451612903,1.25161290322581,1.24516129032258,1.24838709677419,1.25161290322581,1.25483870967742,1.25483870967742,1.26451612903226,1.25806451612903,1.26129032258065,1.26129032258065,1.26774193548387,1.2741935483871,1.29677419354839,1.32258064516129,1.31612903225806,1.33870967741935,1.37741935483871,1.39354838709677,1.36774193548387,1.38709677419355,1.41612903225806,1.40645161290323,1.38387096774194,1.4,1.40322580645161,1.41290322580645,1.40967741935484,1.41935483870968,1.40322580645161,1.29677419354839,1.43548387096774,2.11935483870968,2.38709677419355,1.5258064516129,1.11935483870968,1.21612903225806,1.34838709677419,1.44193548387097,1.41935483870968,1.41612903225806,1.42903225806452,1.44516129032258,1.44516129032258,1.45483870967742,1.46451612903226,1.47741935483871,1.49032258064516,1.49354838709677,1.50322580645161,1.51935483870968,1.53870967741935,1.55161290322581,1.56774193548387,1.59032258064516,1.61290322580645,1.64516129032258,1.67096774193548,1.71612903225806,1.75483870967742,1.78387096774194,1.80967741935484,1.83548387096774,1.83548387096774,1.79677419354839,1.69354838709677,1.5741935483871,1.46774193548387,1.3741935483871,1.3258064516129,1.29677419354839,1.2741935483871,1.25483870967742,1.23870967741935,1.24516129032258,1.24838709677419,1.24838709677419,1.24193548387097,1.24838709677419,1.26774193548387,1.25483870967742,1.26451612903226,1.26129032258065,1.26129032258065,1.28387096774194,1.29032258064516,1.29354838709677,1.29032258064516,1.28709677419355,1.29032258064516,1.29354838709677,1.29677419354839,1.30322580645161,1.3,1.29677419354839,1.28709677419355,1.28387096774194,1.29354838709677,1.30322580645161,1.30967741935484,1.30645161290323,1.30967741935484,1.32258064516129,1.31612903225806,1.32258064516129,1.3258064516129,1.32903225806452,1.33225806451613,1.33225806451613,1.34838709677419,1.35806451612903,1.37741935483871,1.39032258064516,1.41935483870968,1.45161290322581,1.47096774193548,1.46129032258065,1.44193548387097,1.41935483870968,1.39354838709677,1.34838709677419,1.32903225806452,1.33548387096774,1.33548387096774,1.33225806451613,1.32903225806452,1.31612903225806,1.24193548387097,1.25483870967742,1.8,2.56451612903226,1.95483870967742,1.12903225806452,1.11612903225806,1.33548387096774,1.40967741935484,1.3741935483871,1.38064516129032,1.39032258064516,1.40322580645161,1.40967741935484
1.3258064516129,1.3258064516129,1.3258064516129,1.31290322580645,1.31935483870968,1.31935483870968,1.31290322580645,1.31935483870968,1.32258064516129,1.3258064516129,1.3258064516129,1.3258064516129,1.3258064516129,1.31612903225806,1.31612903225806,1.31935483870968,1.32258064516129,1.34193548387097,1.34516129032258,1.33548387096774,1.33225806451613,1.33225806451613,1.34838709677419,1.34193548387097,1.34516129032258,1.33870967741935,1.33870967741935,1.37096774193548,1.39677419354839,1.40967741935484,1.41290322580645,1.43225806451613,1.46451612903226,1.46129032258065,1.43870967741935,1.4,1.37741935483871,1.34193548387097,1.33225806451613,1.34516129032258,1.33870967741935,1.32903225806452,1.3258064516129,1.3258064516129,1.24193548387097,1.21612903225806,1.65806451612903,2.49032258064516,2.03548387096774,1.16129032258065,1.06129032258065,1.26774193548387,1.39354838709677,1.33548387096774,1.34193548387097,1.36129032258065,1.3741935483871,1.38387096774194,1.39677419354839,1.40645161290323,1.40967741935484,1.40967741935484,1.42903225806452,1.43548387096774,1.44193548387097,1.44838709677419,1.46774193548387,1.5,1.5258064516129,1.54838709677419,1.57096774193548,1.59354838709677,1.63548387096774,1.6741935483871,1.72258064516129,1.75483870967742,1.79032258064516,1.81612903225806,1.79677419354839,1.76774193548387,1.69354838709677,1.58387096774194,1.48064516129032,1.39677419354839,1.33870967741935,1.29677419354839,1.27096774193548,1.26129032258065,1.25483870967742,1.25161290322581,1.24516129032258,1.25161290322581,1.26129032258065,1.26129032258065,1.25483870967742,1.27096774193548,1.27741935483871,1.27741935483871,1.27741935483871,1.28709677419355,1.27741935483871,1.28387096774194,1.29354838709677,1.29354838709677,1.30322580645161,1.29032258064516,1.28709677419355,1.28709677419355,1.28387096774194,1.29032258064516,1.30322580645161,1.30322580645161,1.3,1.30322580645161,1.31290322580645,1.31612903225806,1.30967741935484,1.30967741935484,1.31612903225806,1.33225806451613,1.32258064516129,1.32258064516129,1.31935483870968,1.3258064516129,1.33225806451613,1.33548387096774,1.32903225806452,1.34516129032258,1.37096774193548,1.37741935483871,1.4,1.43548387096774,1.47096774193548,1.46129032258065,1.43225806451613,1.40322580645161,1.36774193548387,1.34193548387097,1.31290322580645,1.31612903225806,1.3258064516129,1.3258064516129,1.32903225806452,1.30967741935484,1.23870967741935,1.23225806451613,1.64838709677419,2.3741935483871,1.84516129032258,1.10645161290323,1.06451612903226,1.18387096774194,1.32903225806452,1.34193548387097,1.33870967741935,1.35161290322581,1.36451612903226,1.38387096774194,1.38387096774194,1.4,1.41935483870968,1.4258064516129,1.43548387096774,1.45161290322581,1.4741935483871,1.48387096774194,1.5,1.51612903225806,1.54193548387097,1.56451612903226,1.58709677419355,1.61290322580645,1.65161290322581,1.68709677419355,1.7258064516129,1.77741935483871,1.81935483870968,1.83870967741935,1.83225806451613,1.78387096774194,1.69354838709677,1.59677419354839,1.49677419354839,1.40645161290323,1.34516129032258,1.30645161290323,1.2741935483871,1.2741935483871,1.26451612903226,1.25161290322581,1.25806451612903,1.25806451612903,1.26451612903226,1.27096774193548,1.2741935483871,1.28387096774194,1.29354838709677,1.30322580645161,1.29354838709677,1.30322580645161,1.30322580645161,1.29677419354839,1.3,1.30322580645161,1.30645161290323,1.30322580645161,1.29677419354839,1.30322580645161,1.3,1.29677419354839,1.29032258064516,1.29032258064516,1.30322580645161,1.29677419354839,1.30322580645161,1.31290322580645,1.30967741935484,1.30645161290323,1.31612903225806,1.31290322580645,1.31290322580645,1.31612903225806,1.3258064516129,1.34516129032258,1.36774193548387,1.38387096774194,1.40645161290323,1.43225806451613,1.45806451612903,1.45806451612903,1.41935483870968,1.39677419354839,1.36451612903226,1.32258064516129,1.31612903225806,1.30645161290323,1.30645161290323,1.30967741935484,1.31612903225806,1.31290322580645,1.22258064516129,1.19032258064516,1.60967741935484,2.38064516129032,1.90967741935484,1.11935483870968,1.04516129032258,1.18387096774194,1.33548387096774,1.35161290322581,1.33870967741935,1.34838709677419,1.36129032258065,1.36774193548387,1.38709677419355,1.39677419354839,1.40645161290323,1.4258064516129,1.44516129032258,1.45161290322581,1.46774193548387,1.48709677419355,1.50322580645161,1.51935483870968,1.53548387096774,1.56451612903226,1.59677419354839,1.6258064516129,1.65161290322581,1.6741935483871,1.71935483870968,1.75161290322581,1.79677419354839,1.8258064516129,1.81935483870968,1.76774193548387,1.6741935483871,1.56451612903226,1.46774193548387,1.38064516129032,1.32903225806452,1.30645161290323,1.29354838709677,1.27741935483871,1.26451612903226,1.26451612903226,1.26451612903226,1.25161290322581,1.25483870967742,1.26129032258065,1.26774193548387,1.27741935483871,1.28064516129032,1.27096774193548,1.28064516129032,1.28387096774194,1.27741935483871,1.28387096774194,1.3,1.30322580645161,1.29354838709677,1.29032258064516,1.29677419354839,1.29354838709677,1.29354838709677,1.31290322580645,1.30645161290323,1.3,1.3,1.29677419354839,1.30322580645161,1.3,1.30322580645161,1.31612903225806,1.32258064516129,1.32258064516129,1.31935483870968,1.32903225806452,1.33225806451613,1.32903225806452,1.32903225806452,1.34516129032258,1.35483870967742,1.34838709677419,1.36774193548387,1.39677419354839,1.41935483870968,1.45161290322581,1.46774193548387,1.49354838709677,1.49032258064516,1.46129032258065,1.43225806451613,1.38064516129032,1.35161290322581,1.34193548387097,1.34193548387097,1.33225806451613,1.33225806451613,1.34193548387097,1.32903225806452,1.22903225806452,1.2741935483871,1.86129032258065,2.57096774193548,1.9,1.09354838709677,1.09677419354839,1.31290322580645,1.38064516129032,1.33225806451613,1.33870967741935,1.35806451612903,1.36451612903226,1.36774193548387,1.3741935483871,1.39354838709677,1.40322580645161,1.40967741935484,1.42258064516129,1.43870967741935,1.44516129032258,1.45806451612903,1.48064516129032,1.49032258064516,1.50967741935484,1.5258064516129,1.56129032258065,1.58709677419355,1.62258064516129,1.65161290322581,1.69354838709677,1.73548387096774,1.77096774193548,1.80322580645161,1.8,1.74193548387097,1.66129032258065,1.55483870967742,1.44838709677419,1.36451612903226,1.30645161290323,1.28064516129032,1.25806451612903,1.24838709677419,1.23870967741935,1.23225806451613,1.23870967741935,1.24516129032258,1.24838709677419,1.26129032258065,1.25483870967742,1.26129032258065,1.26774193548387,1.27741935483871,1.27741935483871,1.29032258064516,1.29677419354839,1.3,1.29354838709677,1.29354838709677,1.29354838709677,1.3,1.29354838709677,1.30322580645161,1.30967741935484,1.30967741935484,1.31290322580645,1.31612903225806,1.31612903225806,1.31290322580645,1.31290322580645,1.31290322580645,1.31612903225806,1.3258064516129,1.32903225806452,1.33548387096774,1.33548387096774,1.33870967741935,1.34516129032258,1.34193548387097,1.34838709677419,1.34193548387097,1.33870967741935,1.33870967741935,1.33870967741935,1.33870967741935,1.37096774193548,1.39354838709677,1.40645161290323,1.4258064516129,1.44838709677419,1.47096774193548,1.45483870967742,1.41290322580645,1.38709677419355,1.36129032258065,1.32903225806452,1.31612903225806,1.31935483870968,1.31935483870968,1.31612903225806,1.32258064516129,1.30645161290323,1.20645161290323,1.25483870967742,1.8741935483871,2.58064516129032,1.90322580645161,1.10645161290323,1.10645161290323,1.32258064516129,1.35806451612903,1.31612903225806,1.32903225806452,1.34516129032258,1.34838709677419,1.35483870967742,1.36451612903226,1.38709677419355,1.40322580645161,1.41612903225806,1.43225806451613,1.43870967741935,1.44838709677419,1.47096774193548,1.49354838709677,1.5,1.52258064516129,1.55483870967742,1.5741935483871,1.60322580645161,1.64838709677419,1.6741935483871,1.71612903225806,1.76129032258065,1.79677419354839,1.81612903225806,1.80967741935484,1.7741935483871,1.69032258064516,1.57741935483871,1.47096774193548,1.38387096774194,1.32258064516129,1.3,1.27741935483871,1.26451612903226,1.2741935483871,1.26774193548387,1.26451612903226,1.26774193548387,1.26451612903226,1.25483870967742,1.26129032258065,1.28064516129032,1.27741935483871,1.27096774193548,1.28709677419355,1.29677419354839,1.28709677419355,1.29354838709677,1.30322580645161,1.30322580645161,1.3,1.29677419354839,1.29354838709677,1.30322580645161,1.30645161290323,1.30645161290323,1.30967741935484,1.30322580645161,1.30967741935484,1.31290322580645,1.30645161290323,1.31612903225806,1.31290322580645,1.31612903225806,1.30645161290323,1.31290322580645,1.3258064516129,1.32258064516129,1.32258064516129,1.31612903225806,1.31935483870968,1.3258064516129,1.34193548387097,1.36774193548387,1.38387096774194,1.40322580645161,1.43225806451613,1.45161290322581,1.45483870967742,1.4258064516129,1.39354838709677,1.37096774193548,1.33870967741935,1.30645161290323,1.30645161290323,1.31290322580645,1.31612903225806,1.32258064516129,1.32258064516129,1.26774193548387,1.18064516129032,1.43548387096774,2.28709677419355,2.38709677419355,1.44193548387097,1.01935483870968,1.19032258064516,1.3741935483871,1.33548387096774,1.30645161290323,1.32258064516129,1.32258064516129,1.34516129032258,1.36774193548387,1.37096774193548,1.38064516129032,1.38064516129032,1.4,1.42903225806452,1.44838709677419,1.45806451612903,1.47096774193548,1.48387096774194,1.51290322580645,1.53548387096774,1.54838709677419,1.58709677419355,1.6258064516129,1.65806451612903,1.68064516129032,1.74516129032258,1.78709677419355,1.81290322580645,1.81290322580645,1.78709677419355,1.7258064516129,1.61290322580645,1.49032258064516,1.40967741935484,1.34516129032258,1.30322580645161,1.28387096774194,1.25161290322581,1.24193548387097,1.24193548387097,1.26129032258065,1.26129032258065,1.26129032258065,1.25806451612903,1.26451612903226,1.28387096774194,1.28387096774194,1.28387096774194,1.29032258064516,1.29354838709677,1.3,1.30967741935484,1.30967741935484,1.30645161290323,1.31612903225806,1.31290322580645,1.30322580645161,1.30645161290323,1.31290322580645,1.30645161290323,1.30967741935484,1.31612903225806,1.31290322580645,1.32258064516129,1.31935483870968,1.32903225806452,1.32903225806452,1.33225806451613,1.3258064516129,1.3258064516129,1.34193548387097,1.37096774193548,1.38387096774194,1.38387096774194,1.43225806451613,1.44838709677419,1.44516129032258,1.44193548387097,1.41290322580645,1.37096774193548,1.34193548387097,1.31290322580645,1.30322580645161,1.31290322580645,1.31290322580645,1.3,1.29354838709677,1.27096774193548,1.16451612903226,1.28064516129032,2.02258064516129,2.45806451612903,1.60645161290323,1.00967741935484,1.10967741935484,1.32903225806452,1.35161290322581,1.31935483870968,1.31612903225806,1.33225806451613,1.35161290322581,1.36129032258065,1.35806451612903,1.37096774193548,1.38064516129032,1.40322580645161,1.4,1.41612903225806,1.44516129032258,1.47096774193548,1.48709677419355,1.49677419354839,1.53225806451613,1.55483870967742,1.59354838709677,1.63548387096774,1.66451612903226,1.69677419354839,1.73870967741935,1.78387096774194,1.81290322580645,1.81290322580645,1.8,1.71935483870968,1.6,1.49677419354839,1.4,1.34193548387097,1.30967741935484,1.27741935483871,1.26129032258065,1.24838709677419,1.23870967741935,1.24193548387097,1.24838709677419,1.25161290322581,1.25483870967742,1.26451612903226,1.28064516129032,1.27741935483871,1.28387096774194,1.28709677419355,1.28709677419355,1.3,1.29677419354839,1.30322580645161,1.29677419354839,1.29032258064516,1.29032258064516,1.3,1.30645161290323,1.3,1.30967741935484,1.31290322580645,1.30967741935484,1.30645161290323,1.30967741935484,1.30967741935484,1.31935483870968,1.31612903225806,1.32258064516129,1.35483870967742,1.36774193548387,1.40645161290323,1.43870967741935,1.45161290322581,1.45161290322581,1.42903225806452,1.4,1.37096774193548,1.3258064516129,1.29032258064516,1.29677419354839,1.30322580645161,1.30322580645161,1.3,1.29032258064516,1.2258064516129,1.15483870967742,1.47096774193548,2.35483870967742,2.23548387096774,1.29354838709677,0.993548387096774,1.2,1.36451612903226,1.31612903225806,1.30322580645161,1.3258064516129,1.33225806451613,1.33870967741935,1.35161290322581,1.35483870967742,1.36451612903226,1.37096774193548,1.38387096774194,1.40322580645161,1.41935483870968,1.44193548387097,1.46129032258065,1.47741935483871,1.49354838709677,1.5258064516129,1.55483870967742,1.58064516129032,1.62903225806452,1.66774193548387,1.70645161290323,1.75161290322581,1.78064516129032,1.8,1.80645161290323,1.76129032258065,1.65161290322581,1.54193548387097,1.45161290322581,1.38064516129032,1.3258064516129,1.28709677419355,1.26774193548387,1.25806451612903,1.25483870967742,1.26129032258065,1.26129032258065,1.26774193548387,1.26774193548387,1.27741935483871,1.28064516129032,1.28709677419355,1.29354838709677,1.30322580645161,1.30967741935484,1.30322580645161,1.30645161290323,1.31612903225806,1.30967741935484,1.29677419354839,1.30645161290323,1.30967741935484,1.30645161290323,1.31290322580645,1.31612903225806,1.32903225806452,1.32258064516129,1.31290322580645,1.31612903225806,1.32258064516129,1.3258064516129,1.31935483870968,1.31612903225806,1.34516129032258,1.37096774193548,1.38064516129032,1.40645161290323,1.42903225806452,1.44838709677419,1.44516129032258,1.41612903225806,1.39354838709677,1.35483870967742,1.30967741935484,1.30645161290323,1.32258064516129,1.32903225806452,1.31612903225806,1.31290322580645,1.30322580645161,1.21612903225806,1.24516129032258,1.7258064516129,2.35806451612903,1.70967741935484,1.0258064516129,1.06774193548387,1.23225806451613,1.35806451612903,1.33870967741935,1.33548387096774,1.35483870967742,1.35806451612903,1.36774193548387,1.37741935483871,1.39354838709677,1.4,1.40967741935484,1.42903225806452,1.45161290322581,1.46129032258065,1.48387096774194,1.50322580645161,1.51612903225806,1.54516129032258,1.56129032258065,1.60322580645161,1.64193548387097,1.67741935483871,1.71612903225806,1.75161290322581,1.78709677419355,1.80967741935484,1.84193548387097,1.81612903225806,1.75806451612903,1.62903225806452,1.51290322580645,1.42903225806452,1.37096774193548,1.31935483870968,1.28387096774194,1.26774193548387,1.27096774193548,1.26451612903226,1.27096774193548,1.27096774193548,1.26129032258065,1.26129032258065,1.26129032258065,1.27741935483871,1.28387096774194,1.28387096774194,1.29032258064516,1.29032258064516,1.29032258064516,1.29677419354839,1.3,1.30322580645161,1.3,1.3,1.29677419354839,1.29677419354839,1.3,1.30322580645161,1.30645161290323,1.3,1.30322580645161,1.31290322580645,1.30645161290323,1.30645161290323,1.32903225806452,1.35806451612903,1.36774193548387,1.37741935483871,1.40322580645161,1.43548387096774,1.43548387096774,1.41612903225806,1.38064516129032,1.35161290322581,1.3258064516129,1.30322580645161,1.3,1.3,1.30322580645161,1.29354838709677,1.27741935483871,1.20322580645161,1.18064516129032,1.50967741935484,2.24516129032258,1.90322580645161,1.12258064516129,1.01290322580645,1.13548387096774,1.29032258064516,1.33548387096774,1.32258064516129,1.31935483870968,1.33870967741935,1.35483870967742,1.37096774193548,1.39032258064516,1.41612903225806,1.42258064516129,1.42258064516129,1.44193548387097,1.45806451612903,1.47096774193548,1.49354838709677,1.52903225806452,1.54193548387097,1.5741935483871,1.59677419354839,1.6258064516129,1.66451612903226,1.70645161290323,1.75161290322581,1.78064516129032,1.82258064516129,1.83548387096774,1.80645161290323,1.74193548387097,1.64193548387097,1.51612903225806,1.42903225806452,1.35483870967742,1.30322580645161,1.26451612903226,1.25483870967742,1.26129032258065,1.25161290322581,1.2741935483871,1.27096774193548,1.26774193548387,1.26774193548387,1.27096774193548,1.28064516129032,1.28709677419355,1.28709677419355,1.3,1.3,1.31290322580645,1.31935483870968,1.30645161290323,1.30322580645161,1.31935483870968,1.32903225806452,1.31612903225806,1.30967741935484,1.30967741935484,1.30967741935484,1.31935483870968,1.31935483870968,1.30645161290323,1.30967741935484,1.31612903225806,1.32258064516129,1.33548387096774,1.35806451612903,1.36451612903226,1.39032258064516,1.4258064516129,1.43870967741935,1.44516129032258,1.41612903225806,1.39032258064516,1.36129032258065,1.30967741935484,1.28709677419355,1.29354838709677,1.29354838709677,1.29354838709677,1.29354838709677,1.28709677419355,1.20967741935484,1.16451612903226,1.54193548387097,2.35483870967742,2.01290322580645,1.12903225806452,1,1.1741935483871,1.3258064516129,1.30967741935484,1.30322580645161,1.31290322580645,1.32903225806452,1.33548387096774,1.36129032258065,1.37096774193548,1.3741935483871,1.39032258064516,1.4,1.40322580645161,1.42903225806452,1.44516129032258,1.46451612903226,1.47741935483871,1.50645161290323,1.52903225806452,1.55806451612903,1.6,1.62258064516129,1.66774193548387,1.71612903225806,1.73870967741935,1.7741935483871,1.79032258064516,1.77741935483871,1.71612903225806,1.61935483870968,1.51612903225806,1.41935483870968,1.34516129032258,1.30967741935484,1.28387096774194,1.25806451612903,1.24838709677419,1.25483870967742,1.25161290322581,1.25161290322581,1.25806451612903,1.26451612903226,1.2741935483871,1.28709677419355,1.28387096774194,1.29032258064516,1.29677419354839,1.29677419354839,1.31290322580645,1.30967741935484,1.31290322580645,1.31290322580645,1.31290322580645,1.31935483870968,1.31290322580645,1.31935483870968,1.31612903225806,1.31290322580645,1.30322580645161,1.30322580645161,1.31935483870968,1.31612903225806,1.32258064516129,1.33225806451613,1.32903225806452,1.33225806451613,1.33870967741935,1.3741935483871,1.38387096774194,1.40322580645161,1.42903225806452,1.44838709677419,1.4741935483871,1.47096774193548,1.41935483870968,1.39677419354839,1.36774193548387,1.3258064516129,1.31612903225806,1.31612903225806,1.31935483870968,1.3258064516129,1.32903225806452,1.3,1.20645161290323,1.35483870967742,2.09032258064516,2.50645161290323,1.63870967741935,1.01935483870968,1.13548387096774,1.36774193548387,1.36451612903226,1.3258064516129,1.34193548387097,1.35806451612903,1.36774193548387,1.37096774193548,1.39032258064516,1.40967741935484,1.41935483870968,1.43225806451613,1.44516129032258,1.46129032258065,1.47096774193548,1.49032258064516,1.50645161290323,1.52258064516129,1.56129032258065,1.58387096774194,1.61612903225806,1.64193548387097,1.67741935483871,1.7258064516129,1.76451612903226,1.79677419354839,1.81612903225806,1.81935483870968,1.79354838709677,1.70645161290323,1.59677419354839,1.49032258064516,1.40645161290323,1.34193548387097,1.29032258064516,1.29677419354839,1.28387096774194,1.27096774193548,1.26774193548387,1.26451612903226,1.26774193548387,1.27741935483871,1.26774193548387,1.27741935483871,1.28709677419355,1.29354838709677,1.29677419354839,1.29677419354839,1.28387096774194,1.28709677419355,1.29677419354839,1.30322580645161,1.30967741935484,1.30322580645161,1.29677419354839,1.3,1.29354838709677,1.29677419354839,1.3,1.29677419354839,1.29032258064516,1.28709677419355,1.30322580645161,1.29677419354839,1.29354838709677,1.29032258064516,1.29354838709677,1.3,1.29677419354839,1.29354838709677,1.3,1.30322580645161,1.3,1.31935483870968,1.36129032258065,1.36129032258065,1.37741935483871,1.41290322580645,1.43548387096774,1.41612903225806,1.37741935483871,1.35806451612903,1.3258064516129,1.29032258064516,1.27096774193548,1.28064516129032,1.29032258064516,1.28387096774194,1.28064516129032,1.2741935483871,1.20322580645161,1.15161290322581,1.53548387096774,2.40645161290323,2.16774193548387,1.23870967741935,0.996774193548387,1.22258064516129,1.33225806451613,1.28064516129032,1.28709677419355,1.30322580645161,1.30967741935484,1.31935483870968,1.3258064516129,1.34838709677419,1.35161290322581,1.36774193548387,1.3741935483871,1.39032258064516,1.41290322580645,1.43225806451613,1.45483870967742,1.4741935483871,1.49354838709677,1.52258064516129,1.55161290322581,1.58064516129032,1.63225806451613,1.67096774193548,1.71612903225806,1.75806451612903,1.79354838709677,1.81612903225806,1.80322580645161,1.76451612903226,1.66129032258065,1.54516129032258,1.46129032258065,1.38709677419355,1.33225806451613,1.29677419354839,1.27096774193548,1.2741935483871,1.26774193548387,1.26774193548387,1.26774193548387,1.26451612903226,1.28064516129032,1.29032258064516,1.29354838709677,1.29354838709677,1.31612903225806,1.3258064516129,1.33225806451613,1.32258064516129,1.34193548387097,1.35161290322581,1.34838709677419,1.35161290322581,1.36129032258065,1.37096774193548,1.37741935483871,1.38709677419355,1.39354838709677,1.4,1.40322580645161,1.40322580645161,1.4258064516129,1.43225806451613,1.42258064516129
