1.34516129032258,1.33870967741935,1.34193548387097,1.33548387096774,1.34193548387097,1.33548387096774,1.33870967741935,1.33870967741935,1.33548387096774,1.33225806451613,1.33870967741935,1.34193548387097,1.33870967741935,1.34516129032258,1.34193548387097,1.34193548387097,1.34193548387097,1.35161290322581,1.33870967741935,1.35161290322581,1.34838709677419,1.35483870967742,1.35161290322581,1.35483870967742,1.35483870967742,1.35806451612903,1.35483870967742,1.35483870967742,1.35806451612903,1.35483870967742,1.35483870967742,1.36451612903226,1.35806451612903,1.36129032258065,1.35806451612903,1.36129032258065,1.35161290322581,1.36774193548387,1.36451612903226,1.36774193548387,1.36451612903226,1.36451612903226,1.37096774193548,1.36451612903226,1.37096774193548,1.36774193548387,1.36774193548387,1.36451612903226,1.3741935483871,1.37096774193548,1.3741935483871,1.3741935483871,1.3741935483871,1.38064516129032,1.37741935483871,1.3741935483871,1.3741935483871,1.38064516129032,1.38387096774194,1.39354838709677,1.39677419354839,1.4,1.41290322580645,1.4258064516129,1.44516129032258,1.45161290322581,1.4258064516129,1.41612903225806,1.40645161290323,1.39677419354839,1.37096774193548,1.37096774193548,1.36774193548387,1.37096774193548,1.37096774193548,1.3741935483871,1.37096774193548,1.3741935483871,1.36774193548387,1.37096774193548,1.3741935483871,1.37741935483871,1.41290322580645,1.53548387096774,1.80322580645161,1.85483870967742,1.33870967741935,1.13225806451613,1.20322580645161,1.31612903225806,1.37096774193548,1.37741935483871,1.38064516129032,1.38387096774194,1.39032258064516,1.38709677419355,1.39354838709677,1.39032258064516,1.39677419354839,1.39677419354839,1.40645161290323,1.40322580645161,1.40645161290323,1.40645161290323,1.41612903225806,1.4258064516129,1.43225806451613,1.43225806451613,1.44838709677419,1.45161290322581,1.46774193548387,1.47096774193548,1.48387096774194,1.49354838709677,1.49032258064516,1.50645161290323,1.49677419354839,1.5,1.49032258064516,1.47096774193548,1.45806451612903,1.44516129032258,1.43225806451613,1.41935483870968,1.41290322580645,1.41290322580645,1.40967741935484,1.39677419354839,1.40322580645161,1.4,1.40322580645161,1.4,1.39677419354839,1.39677419354839,1.39677419354839,1.39677419354839,1.39354838709677,1.39354838709677,1.39354838709677,1.4,1.39032258064516,1.39032258064516,1.39677419354839,1.39032258064516,1.39354838709677,1.39032258064516,1.39354838709677,1.39677419354839,1.39032258064516,1.39354838709677,1.4,1.39354838709677,1.39032258064516,1.39032258064516,1.38709677419355,1.39354838709677,1.39354838709677,1.38709677419355,1.39032258064516,1.39032258064516,1.39032258064516,1.39032258064516,1.39032258064516,1.38709677419355,1.39354838709677,1.38709677419355,1.38709677419355,1.38387096774194,1.38709677419355,1.38709677419355,1.38064516129032,1.38709677419355,1.38709677419355,1.38387096774194,1.38387096774194,1.38709677419355,1.38387096774194,1.39032258064516,1.38387096774194,1.39032258064516,1.39677419354839,1.40645161290323,1.40645161290323,1.41612903225806,1.43548387096774,1.45161290322581,1.44193548387097,1.42903225806452,1.41935483870968,1.4,1.4,1.36774193548387,1.3741935483871,1.3741935483871,1.37096774193548,1.36451612903226,1.37096774193548,1.35806451612903,1.37096774193548,1.36451612903226,1.36451612903226,1.36451612903226,1.3741935483871,1.45161290322581,1.64193548387097,1.91290322580645,1.71612903225806,1.14838709677419,1.14838709677419,1.20645161290323,1.33870967741935,1.37096774193548,1.3741935483871,1.36774193548387,1.38064516129032,1.3741935483871,1.38064516129032,1.38387096774194,1.38709677419355,1.39032258064516,1.39032258064516,1.39032258064516,1.38709677419355,1.4,1.4,1.41290322580645,1.41290322580645,1.42258064516129,1.42903225806452,1.43870967741935,1.44516129032258,1.46129032258065,1.46774193548387,1.47741935483871,1.48709677419355,1.48709677419355,1.49354838709677,1.49032258064516,1.48064516129032,1.47096774193548,1.45483870967742,1.43870967741935,1.41935483870968,1.41290322580645,1.40322580645161,1.39354838709677,1.39354838709677,1.38709677419355,1.38709677419355,1.38709677419355,1.38709677419355,1.38387096774194,1.38064516129032,1.38064516129032,1.37741935483871,1.38387096774194,1.37741935483871,1.38064516129032,1.37741935483871,1.3741935483871,1.37741935483871,1.37741935483871,1.37741935483871,1.38064516129032,1.37741935483871,1.38064516129032,1.38064516129032,1.38064516129032,1.38387096774194,1.38064516129032,1.37741935483871,1.38387096774194,1.37741935483871,1.37741935483871,1.3741935483871,1.38064516129032,1.37741935483871,1.37741935483871,1.3741935483871,1.38064516129032,1.3741935483871,1.37741935483871,1.38064516129032,1.38064516129032,1.38064516129032,1.3741935483871,1.37741935483871,1.38064516129032,1.3741935483871,1.38064516129032,1.38064516129032,1.37741935483871,1.38064516129032,1.3741935483871,1.3741935483871,1.38064516129032,1.38064516129032,1.37741935483871,1.38064516129032,1.3741935483871,1.38387096774194,1.38064516129032,1.39032258064516,1.39354838709677,1.40645161290323,1.40967741935484,1.43225806451613,1.44516129032258,1.44193548387097,1.42258064516129,1.40645161290323,1.39032258064516,1.39032258064516,1.36129032258065,1.36451612903226,1.36129032258065,1.36129032258065,1.35806451612903,1.35806451612903,1.36129032258065,1.36129032258065,1.36129032258065,1.35806451612903,1.36451612903226,1.36129032258065,1.43225806451613,1.60322580645161,1.90322580645161,1.77741935483871,1.16451612903226,1.11935483870968,1.18709677419355,1.32258064516129,1.36774193548387,1.3741935483871,1.37096774193548,1.36774193548387,1.37741935483871,1.37741935483871,1.38709677419355,1.38709677419355,1.39032258064516,1.39032258064516,1.39354838709677,1.39677419354839,1.4,1.40645161290323,1.40645161290323,1.41935483870968,1.41935483870968,1.43548387096774,1.43870967741935,1.45161290322581,1.46129032258065,1.47096774193548,1.48387096774194,1.49032258064516,1.5,1.50322580645161,1.50645161290323,1.5,1.48387096774194,1.46774193548387,1.45161290322581,1.43870967741935,1.42903225806452,1.41612903225806,1.40645161290323,1.4,1.4,1.39677419354839,1.40322580645161,1.39677419354839,1.39032258064516,1.38709677419355,1.39354838709677,1.38709677419355,1.39677419354839,1.38387096774194,1.38709677419355,1.39032258064516,1.39032258064516,1.39354838709677,1.38709677419355,1.39677419354839,1.38709677419355,1.39354838709677,1.39677419354839,1.39677419354839,1.39677419354839,1.39677419354839,1.39354838709677,1.39354838709677,1.39032258064516,1.39677419354839,1.39032258064516,1.39677419354839,1.39032258064516,1.39354838709677,1.39032258064516,1.39032258064516,1.38709677419355,1.38387096774194,1.38709677419355,1.38709677419355,1.38387096774194,1.38709677419355,1.38709677419355,1.39032258064516,1.38709677419355,1.38709677419355,1.38709677419355,1.38709677419355,1.38387096774194,1.38709677419355,1.38387096774194,1.38387096774194,1.38709677419355,1.38387096774194,1.38709677419355,1.38387096774194,1.38387096774194,1.38387096774194,1.38709677419355,1.39677419354839,1.40322580645161,1.40645161290323,1.41935483870968,1.44516129032258,1.45806451612903,1.44193548387097,1.42903225806452,1.41290322580645,1.4,1.39032258064516,1.36774193548387,1.36774193548387,1.36774193548387,1.37096774193548,1.36451612903226,1.36774193548387,1.37096774193548,1.36451612903226,1.36451612903226,1.36451612903226,1.36774193548387,1.3741935483871,1.45806451612903,1.67741935483871,1.93870967741935,1.65806451612903,1.10967741935484,1.12903225806452,1.20322580645161,1.34193548387097,1.36451612903226,1.3741935483871,1.37096774193548,1.3741935483871,1.37741935483871,1.38064516129032,1.38387096774194,1.38387096774194,1.38387096774194,1.38709677419355,1.39032258064516,1.39677419354839,1.40322580645161,1.40322580645161,1.41290322580645,1.41290322580645,1.42903225806452,1.43225806451613,1.44516129032258,1.44838709677419,1.46774193548387,1.4741935483871,1.48064516129032,1.48387096774194,1.5,1.49354838709677,1.49354838709677,1.49032258064516,1.46774193548387,1.45161290322581,1.43225806451613,1.42258064516129,1.41290322580645,1.4,1.39677419354839,1.39354838709677,1.39677419354839,1.39354838709677,1.38709677419355,1.39032258064516,1.38709677419355,1.38709677419355,1.38387096774194,1.38387096774194,1.38387096774194,1.38387096774194,1.38064516129032,1.38709677419355,1.38064516129032,1.39032258064516,1.38709677419355,1.38387096774194,1.38387096774194,1.38387096774194,1.38064516129032,1.38709677419355,1.3741935483871,1.37741935483871,1.37741935483871,1.38064516129032,1.38064516129032,1.3741935483871,1.37741935483871,1.37741935483871,1.38387096774194,1.3741935483871,1.3741935483871,1.3741935483871,1.37741935483871,1.3741935483871,1.38387096774194,1.37741935483871,1.38064516129032,1.38064516129032,1.38387096774194,1.38387096774194,1.39354838709677,1.39354838709677,1.40967741935484,1.39354838709677,1.38387096774194,1.35483870967742,1.36129032258065,1.36774193548387,1.3741935483871,1.37096774193548,1.37741935483871,1.38064516129032,1.38064516129032,1.38709677419355,1.39677419354839,1.40322580645161,1.41290322580645,1.43548387096774,1.45161290322581,1.44838709677419,1.4258064516129,1.40967741935484,1.39677419354839,1.39354838709677,1.36451612903226,1.36451612903226,1.36774193548387,1.36451612903226,1.36129032258065,1.36774193548387,1.35483870967742,1.36451612903226,1.36774193548387,1.36129032258065,1.36451612903226,1.37096774193548,1.45161290322581,1.66129032258065,1.97741935483871,1.70322580645161,1.09677419354839,1.0741935483871,1.17741935483871,1.30322580645161,1.36129032258065,1.36774193548387,1.36774193548387,1.37741935483871,1.38387096774194,1.38064516129032,1.38709677419355,1.38387096774194,1.38709677419355,1.39032258064516,1.39354838709677,1.39677419354839,1.40645161290323,1.40645161290323,1.41935483870968,1.42258064516129,1.43225806451613,1.43870967741935,1.44838709677419,1.46129032258065,1.47741935483871,1.49032258064516,1.49354838709677,1.50645161290323,1.50645161290323,1.51612903225806,1.50645161290323,1.50322580645161,1.48064516129032,1.46129032258065,1.44193548387097,1.42903225806452,1.41612903225806,1.40967741935484,1.40322580645161,1.40322580645161,1.39677419354839,1.39354838709677,1.39354838709677,1.39677419354839,1.39354838709677,1.38709677419355,1.38709677419355,1.38709677419355,1.38709677419355,1.37741935483871,1.38064516129032,1.38387096774194,1.37741935483871,1.38064516129032,1.38387096774194,1.38709677419355,1.39354838709677,1.38709677419355,1.38709677419355,1.38709677419355,1.39354838709677,1.39032258064516,1.39354838709677,1.39354838709677,1.39032258064516,1.38387096774194,1.39032258064516,1.38064516129032,1.39032258064516,1.38709677419355,1.38709677419355,1.38064516129032,1.38387096774194,1.38064516129032,1.37741935483871,1.37741935483871,1.38064516129032,1.37741935483871,1.37741935483871,1.38064516129032,1.37741935483871,1.37741935483871,1.38387096774194,1.38387096774194,1.37096774193548,1.38064516129032,1.37741935483871,1.38064516129032,1.37741935483871,1.38064516129032,1.37741935483871,1.38064516129032,1.38387096774194,1.39354838709677,1.4,1.40967741935484,1.41290322580645,1.43870967741935,1.45806451612903,1.43548387096774,1.42258064516129,1.40645161290323,1.39354838709677,1.38387096774194,1.36774193548387,1.36129032258065,1.36774193548387,1.36451612903226,1.37096774193548,1.36129032258065,1.35806451612903,1.36451612903226,1.36451612903226,1.36129032258065,1.36451612903226,1.36774193548387,1.45161290322581,1.65483870967742,1.94838709677419,1.71935483870968,1.13225806451613,1.13225806451613,1.2,1.34193548387097,1.37096774193548,1.36774193548387,1.36129032258065,1.3741935483871,1.37096774193548,1.38064516129032,1.39032258064516,1.38709677419355,1.39032258064516,1.39032258064516,1.39032258064516,1.4,1.40322580645161,1.4,1.40967741935484,1.41935483870968,1.4258064516129,1.43548387096774,1.43870967741935,1.45483870967742,1.4741935483871,1.47741935483871,1.49354838709677,1.5,1.50645161290323,1.50645161290323,1.50967741935484,1.49032258064516,1.47741935483871,1.46129032258065,1.44193548387097,1.42258064516129,1.41935483870968,1.40967741935484,1.40645161290323,1.4,1.39677419354839,1.39354838709677,1.4,1.39354838709677,1.39354838709677,1.4,1.39354838709677,1.38387096774194,1.38709677419355,1.38709677419355,1.38709677419355,1.38064516129032,1.38709677419355,1.38387096774194,1.3741935483871,1.38709677419355,1.37741935483871,1.36774193548387,1.37741935483871,1.38064516129032,1.38387096774194,1.38064516129032,1.38064516129032,1.38709677419355,1.38064516129032,1.37741935483871,1.37741935483871,1.38064516129032,1.38387096774194,1.37741935483871,1.36774193548387,1.38064516129032,1.38064516129032,1.3741935483871,1.37741935483871,1.38064516129032,1.37741935483871,1.37741935483871,1.3741935483871,1.37096774193548,1.3741935483871,1.37096774193548,1.37741935483871,1.37741935483871,1.38387096774194,1.3741935483871,1.37096774193548,1.37096774193548,1.37741935483871,1.38387096774194,1.39677419354839,1.39677419354839,1.40967741935484,1.4258064516129,1.45161290322581,1.44193548387097,1.41935483870968,1.40967741935484,1.4,1.38064516129032,1.36129032258065,1.36129032258065,1.36129032258065,1.36451612903226,1.36129032258065,1.35161290322581,1.35806451612903,1.36129032258065,1.35483870967742,1.36451612903226,1.35483870967742,1.37096774193548,1.46129032258065,1.68387096774194,1.95161290322581,1.6741935483871,1.11935483870968,1.13548387096774,1.21290322580645,1.34193548387097,1.37096774193548,1.36451612903226,1.36774193548387,1.3741935483871,1.3741935483871,1.37741935483871,1.38387096774194,1.37741935483871,1.39032258064516,1.38709677419355,1.39677419354839,1.39354838709677,1.4,1.40322580645161,1.40967741935484,1.41935483870968,1.4258064516129,1.43548387096774,1.44516129032258,1.45806451612903,1.4741935483871,1.48387096774194,1.5,1.50967741935484,1.51290322580645,1.51290322580645,1.50967741935484,1.5,1.47741935483871,1.45483870967742,1.43870967741935,1.4258064516129,1.41290322580645,1.40645161290323,1.39677419354839,1.39677419354839,1.39677419354839,1.39677419354839,1.39032258064516,1.39677419354839,1.38387096774194,1.39032258064516,1.38387096774194,1.38387096774194,1.38387096774194,1.38064516129032,1.37741935483871,1.37741935483871,1.38064516129032,1.38387096774194,1.38064516129032,1.38387096774194,1.38387096774194,1.38064516129032,1.38387096774194,1.38064516129032,1.38064516129032,1.38709677419355,1.38064516129032,1.37741935483871,1.39032258064516,1.37741935483871,1.38064516129032,1.38064516129032,1.38709677419355,1.38387096774194,1.38387096774194,1.38064516129032,1.38064516129032,1.38709677419355,1.38064516129032,1.37741935483871,1.37741935483871,1.3741935483871,1.38387096774194,1.38064516129032,1.36774193548387,1.38064516129032,1.38064516129032,1.38387096774194,1.38709677419355,1.39032258064516,1.39677419354839,1.40645161290323,1.41935483870968,1.44516129032258,1.45806451612903,1.44516129032258,1.41935483870968,1.40967741935484,1.39032258064516,1.38064516129032,1.35806451612903,1.36129032258065,1.35806451612903,1.36774193548387,1.36129032258065,1.36129032258065,1.36129032258065,1.35483870967742,1.36451612903226,1.35483870967742,1.35483870967742,1.39354838709677,1.51612903225806,1.83225806451613,1.94193548387097,1.35806451612903,1.03225806451613,1.1,1.22258064516129,1.32903225806452,1.36774193548387,1.35806451612903,1.36451612903226,1.36774193548387,1.37096774193548,1.37096774193548,1.38709677419355,1.38709677419355,1.38709677419355,1.38387096774194,1.39677419354839,1.39354838709677,1.40322580645161,1.40322580645161,1.42258064516129,1.41935483870968,1.43870967741935,1.44516129032258,1.46129032258065,1.4741935483871,1.49032258064516,1.50322580645161,1.51290322580645,1.5258064516129,1.53225806451613,1.53548387096774,1.50967741935484,1.5,1.47096774193548,1.45161290322581,1.43548387096774,1.41612903225806,1.40967741935484,1.40645161290323,1.4,1.39354838709677,1.39032258064516,1.38387096774194,1.38709677419355,1.38709677419355,1.39354838709677,1.38387096774194,1.38387096774194,1.38387096774194,1.38064516129032,1.38064516129032,1.37741935483871,1.37741935483871,1.38064516129032,1.37741935483871,1.37741935483871,1.3741935483871,1.38387096774194,1.38387096774194,1.38064516129032,1.38064516129032,1.38064516129032,1.38709677419355,1.38387096774194,1.37741935483871,1.38709677419355,1.38064516129032,1.38387096774194,1.38064516129032,1.38064516129032,1.38064516129032,1.38064516129032,1.37741935483871,1.38387096774194,1.37741935483871,1.38387096774194,1.37741935483871,1.37741935483871,1.38064516129032,1.38387096774194,1.37741935483871,1.37741935483871,1.38387096774194,1.37741935483871,1.38387096774194,1.38064516129032,1.39677419354839,1.39354838709677,1.40322580645161,1.40322580645161,1.42258064516129,1.44838709677419,1.44838709677419,1.43548387096774,1.41290322580645,1.4,1.39354838709677,1.37096774193548,1.36774193548387,1.3741935483871,1.36451612903226,1.36774193548387,1.36451612903226,1.36451612903226,1.36774193548387,1.35806451612903,1.36129032258065,1.36129032258065,1.35806451612903,1.38064516129032,1.48064516129032,1.72258064516129,1.92258064516129,1.53870967741935,1.14193548387097,1.15806451612903,1.25806451612903,1.34838709677419,1.36774193548387,1.37096774193548,1.3741935483871,1.3741935483871,1.37096774193548,1.37741935483871,1.38387096774194,1.38064516129032,1.39032258064516,1.39032258064516,1.39032258064516,1.39677419354839,1.4,1.4,1.41612903225806,1.41612903225806,1.4258064516129,1.43225806451613,1.44516129032258,1.46129032258065,1.46774193548387,1.48064516129032,1.48709677419355,1.50322580645161,1.50645161290323,1.50322580645161,1.5,1.48064516129032,1.46774193548387,1.44838709677419,1.43548387096774,1.42258064516129,1.40967741935484,1.40645161290323,1.4,1.39354838709677,1.39032258064516,1.39677419354839,1.39354838709677,1.39677419354839,1.39032258064516,1.39354838709677,1.38709677419355,1.38387096774194,1.38709677419355,1.38709677419355,1.38387096774194,1.38709677419355,1.38387096774194,1.38064516129032,1.38064516129032,1.38387096774194,1.38064516129032,1.38387096774194,1.38387096774194,1.38387096774194,1.38387096774194,1.38709677419355,1.38709677419355,1.38709677419355,1.38387096774194,1.37741935483871,1.39032258064516,1.38709677419355,1.38709677419355,1.37741935483871,1.38387096774194,1.38387096774194,1.38387096774194,1.38064516129032,1.38064516129032,1.37741935483871,1.38387096774194,1.38387096774194,1.38064516129032,1.37741935483871,1.38387096774194,1.38064516129032,1.38064516129032,1.37741935483871,1.37741935483871,1.38387096774194,1.37096774193548,1.38387096774194,1.37741935483871,1.38064516129032,1.38709677419355,1.39354838709677,1.39354838709677,1.40645161290323,1.40967741935484,1.44193548387097,1.45161290322581,1.43225806451613,1.41612903225806,1.40645161290323,1.39354838709677,1.38387096774194,1.36451612903226,1.36451612903226,1.36774193548387,1.36774193548387,1.36451612903226,1.36129032258065,1.36774193548387,1.36451612903226,1.36451612903226,1.36451612903226,1.36451612903226,1.36451612903226,1.38387096774194,1.48064516129032,1.73548387096774,1.92258064516129,1.51290322580645,1.15161290322581,1.17741935483871,1.27741935483871,1.36129032258065,1.37096774193548,1.36774193548387,1.36451612903226,1.37096774193548,1.38064516129032,1.37741935483871,1.3741935483871,1.38064516129032,1.38064516129032,1.38709677419355,1.39032258064516,1.39032258064516,1.39677419354839,1.39677419354839,1.40645161290323,1.40967741935484,1.42258064516129,1.42903225806452,1.43870967741935,1.45161290322581,1.46129032258065,1.4741935483871,1.48709677419355,1.49354838709677,1.50322580645161,1.5,1.49354838709677,1.48064516129032,1.47096774193548,1.44516129032258,1.42903225806452,1.41612903225806,1.40645161290323,1.39677419354839,1.4,1.38387096774194,1.39032258064516,1.38709677419355,1.38709677419355,1.38064516129032,1.39032258064516,1.38387096774194,1.38064516129032,1.38387096774194,1.37741935483871,1.38387096774194,1.38387096774194,1.38387096774194,1.38387096774194,1.38387096774194,1.38387096774194,1.38064516129032,1.38387096774194,1.38064516129032,1.38064516129032,1.38709677419355,1.37741935483871,1.38387096774194,1.38709677419355,1.38387096774194,1.39032258064516,1.38709677419355,1.38709677419355,1.38709677419355,1.39677419354839,1.38709677419355,1.39032258064516,1.39354838709677,1.38387096774194,1.38709677419355,1.39032258064516,1.39354838709677,1.38387096774194,1.39354838709677,1.39032258064516,1.39677419354839,1.4,1.39354838709677,1.40322580645161,1.39354838709677,1.39677419354839,1.39677419354839,1.4,1.39677419354839,1.40322580645161,1.41290322580645,1.40645161290323,1.40967741935484,1.40967741935484,1.41290322580645,1.40322580645161,1.41935483870968,1.42258064516129,1.4258064516129,1.4258064516129
1.53870967741935,1.51290322580645,1.5,1.48387096774194,1.4741935483871,1.46774193548387,1.45483870967742,1.45161290322581,1.45161290322581,1.45161290322581,1.45161290322581,1.45161290322581,1.43870967741935,1.44193548387097,1.43870967741935,1.43225806451613,1.43870967741935,1.43225806451613,1.43548387096774,1.43225806451613,1.43870967741935,1.43225806451613,1.43225806451613,1.43870967741935,1.4258064516129,1.43870967741935,1.43870967741935,1.43548387096774,1.43225806451613,1.43548387096774,1.42903225806452,1.43548387096774,1.42903225806452,1.41935483870968,1.4258064516129,1.43225806451613,1.4258064516129,1.43225806451613,1.4258064516129,1.41935483870968,1.42258064516129,1.41290322580645,1.41935483870968,1.41935483870968,1.41612903225806,1.41290322580645,1.41290322580645,1.41290322580645,1.41290322580645,1.40967741935484,1.40645161290323,1.40967741935484,1.40645161290323,1.40967741935484,1.40645161290323,1.4,1.40645161290323,1.40322580645161,1.4,1.40645161290323,1.40645161290323,1.4258064516129,1.41935483870968,1.42903225806452,1.45483870967742,1.4741935483871,1.45161290322581,1.43548387096774,1.41935483870968,1.40967741935484,1.39677419354839,1.38387096774194,1.38064516129032,1.38064516129032,1.3741935483871,1.3741935483871,1.3741935483871,1.3741935483871,1.37741935483871,1.36451612903226,1.3741935483871,1.36774193548387,1.38064516129032,1.4741935483871,1.68064516129032,1.90967741935484,1.63548387096774,1.17741935483871,1.2,1.26774193548387,1.36774193548387,1.3741935483871,1.37096774193548,1.37741935483871,1.37741935483871,1.38064516129032,1.38387096774194,1.38064516129032,1.38387096774194,1.37741935483871,1.38387096774194,1.39032258064516,1.38709677419355,1.39677419354839,1.39677419354839,1.4,1.40322580645161,1.40967741935484,1.41612903225806,1.42903225806452,1.42903225806452,1.44516129032258,1.45161290322581,1.46451612903226,1.4741935483871,1.47741935483871,1.47741935483871,1.4741935483871,1.46451612903226,1.45483870967742,1.4258064516129,1.41935483870968,1.41290322580645,1.4,1.39677419354839,1.38709677419355,1.38709677419355,1.38387096774194,1.38064516129032,1.3741935483871,1.37741935483871,1.38064516129032,1.38709677419355,1.38064516129032,1.3741935483871,1.3741935483871,1.38064516129032,1.38064516129032,1.38064516129032,1.37096774193548,1.37741935483871,1.37096774193548,1.3741935483871,1.36451612903226,1.37741935483871,1.36774193548387,1.3741935483871,1.36774193548387,1.3741935483871,1.3741935483871,1.3741935483871,1.37096774193548,1.3741935483871,1.37096774193548,1.3741935483871,1.3741935483871,1.37096774193548,1.3741935483871,1.37741935483871,1.36774193548387,1.37096774193548,1.36774193548387,1.36774193548387,1.37096774193548,1.37096774193548,1.36774193548387,1.37096774193548,1.37096774193548,1.36451612903226,1.36451612903226,1.37741935483871,1.37096774193548,1.36774193548387,1.3741935483871,1.38064516129032,1.39032258064516,1.39677419354839,1.4,1.42258064516129,1.43548387096774,1.43548387096774,1.41290322580645,1.40645161290323,1.39032258064516,1.38387096774194,1.35483870967742,1.35806451612903,1.35483870967742,1.36129032258065,1.36129032258065,1.36129032258065,1.35806451612903,1.35483870967742,1.35483870967742,1.35161290322581,1.35161290322581,1.36451612903226,1.45161290322581,1.65806451612903,1.9,1.66451612903226,1.16451612903226,1.17741935483871,1.24516129032258,1.35483870967742,1.36451612903226,1.3741935483871,1.36451612903226,1.37096774193548,1.3741935483871,1.37741935483871,1.38387096774194,1.39354838709677,1.38709677419355,1.38709677419355,1.39677419354839,1.39677419354839,1.39677419354839,1.40322580645161,1.40645161290323,1.40967741935484,1.43225806451613,1.42903225806452,1.43548387096774,1.45161290322581,1.46129032258065,1.4741935483871,1.48064516129032,1.48709677419355,1.49677419354839,1.49354838709677,1.49354838709677,1.47096774193548,1.46129032258065,1.44193548387097,1.42903225806452,1.41935483870968,1.40645161290323,1.40645161290323,1.38709677419355,1.38709677419355,1.38709677419355,1.38709677419355,1.38387096774194,1.38387096774194,1.39032258064516,1.38709677419355,1.38709677419355,1.39354838709677,1.38064516129032,1.38387096774194,1.3741935483871,1.38064516129032,1.38064516129032,1.38064516129032,1.37741935483871,1.38387096774194,1.37741935483871,1.38387096774194,1.38387096774194,1.37741935483871,1.38387096774194,1.38387096774194,1.38387096774194,1.37741935483871,1.38387096774194,1.3741935483871,1.38709677419355,1.38064516129032,1.38387096774194,1.38064516129032,1.37741935483871,1.37741935483871,1.38387096774194,1.38064516129032,1.38387096774194,1.37741935483871,1.37741935483871,1.38064516129032,1.38709677419355,1.38387096774194,1.38064516129032,1.38387096774194,1.38064516129032,1.38709677419355,1.38387096774194,1.39032258064516,1.4,1.40967741935484,1.40645161290323,1.4258064516129,1.44838709677419,1.46451612903226,1.44193548387097,1.42903225806452,1.41290322580645,1.40322580645161,1.38709677419355,1.37741935483871,1.37741935483871,1.3741935483871,1.37741935483871,1.3741935483871,1.3741935483871,1.37741935483871,1.37741935483871,1.37096774193548,1.37741935483871,1.3741935483871,1.4,1.50967741935484,1.76774193548387,1.92258064516129,1.5,1.15161290322581,1.19677419354839,1.29354838709677,1.37741935483871,1.38387096774194,1.38064516129032,1.38387096774194,1.38709677419355,1.4,1.39354838709677,1.39354838709677,1.39354838709677,1.39677419354839,1.4,1.4,1.40322580645161,1.41290322580645,1.40967741935484,1.41612903225806,1.43225806451613,1.44516129032258,1.44516129032258,1.46129032258065,1.47096774193548,1.48064516129032,1.48709677419355,1.5,1.50322580645161,1.52258064516129,1.50967741935484,1.50967741935484,1.49032258064516,1.46774193548387,1.45161290322581,1.44193548387097,1.42903225806452,1.41935483870968,1.40645161290323,1.4,1.40322580645161,1.39354838709677,1.39354838709677,1.39677419354839,1.39354838709677,1.39032258064516,1.39032258064516,1.39032258064516,1.39354838709677,1.38064516129032,1.38709677419355,1.38709677419355,1.38709677419355,1.37741935483871,1.38064516129032,1.38064516129032,1.37741935483871,1.38064516129032,1.38387096774194,1.37096774193548,1.38387096774194,1.38064516129032,1.37741935483871,1.38064516129032,1.38387096774194,1.37741935483871,1.38064516129032,1.37741935483871,1.37096774193548,1.3741935483871,1.37741935483871,1.3741935483871,1.36774193548387,1.3741935483871,1.36451612903226,1.37096774193548,1.37096774193548,1.37741935483871,1.36451612903226,1.37096774193548,1.36451612903226,1.36451612903226,1.3741935483871,1.36451612903226,1.37096774193548,1.3741935483871,1.36774193548387,1.37741935483871,1.37741935483871,1.38064516129032,1.38709677419355,1.4,1.40645161290323,1.4258064516129,1.43548387096774,1.43870967741935,1.42258064516129,1.40645161290323,1.38709677419355,1.38387096774194,1.35806451612903,1.35483870967742,1.36451612903226,1.35806451612903,1.36129032258065,1.35161290322581,1.35483870967742,1.35483870967742,1.35483870967742,1.35483870967742,1.36129032258065,1.36129032258065,1.40967741935484,1.54516129032258,1.87096774193548,1.84516129032258,1.22258064516129,1.02903225806452,1.12258064516129,1.25161290322581,1.34516129032258,1.37096774193548,1.36774193548387,1.3741935483871,1.37096774193548,1.38064516129032,1.3741935483871,1.38709677419355,1.38387096774194,1.38387096774194,1.38709677419355,1.39677419354839,1.39354838709677,1.40645161290323,1.40645161290323,1.41612903225806,1.42258064516129,1.43548387096774,1.44838709677419,1.45806451612903,1.46451612903226,1.48709677419355,1.49354838709677,1.50967741935484,1.51612903225806,1.52258064516129,1.51935483870968,1.49677419354839,1.48709677419355,1.46451612903226,1.45161290322581,1.4258064516129,1.42258064516129,1.40645161290323,1.40645161290323,1.39677419354839,1.39354838709677,1.39354838709677,1.39032258064516,1.39032258064516,1.39032258064516,1.38387096774194,1.38064516129032,1.38387096774194,1.38064516129032,1.37741935483871,1.37741935483871,1.37741935483871,1.38064516129032,1.38064516129032,1.38064516129032,1.38387096774194,1.37741935483871,1.38709677419355,1.38709677419355,1.38709677419355,1.38387096774194,1.38709677419355,1.38387096774194,1.38709677419355,1.38709677419355,1.38709677419355,1.38709677419355,1.38387096774194,1.38387096774194,1.38064516129032,1.38387096774194,1.38064516129032,1.38387096774194,1.38387096774194,1.38064516129032,1.38064516129032,1.3741935483871,1.38064516129032,1.37741935483871,1.37741935483871,1.37741935483871,1.37741935483871,1.37741935483871,1.3741935483871,1.37741935483871,1.3741935483871,1.38064516129032,1.38064516129032,1.37741935483871,1.38064516129032,1.40322580645161,1.40322580645161,1.40645161290323,1.43225806451613,1.44516129032258,1.44516129032258,1.4258064516129,1.41290322580645,1.4,1.39032258064516,1.37096774193548,1.36774193548387,1.37741935483871,1.36451612903226,1.36451612903226,1.37096774193548,1.36774193548387,1.36451612903226,1.36129032258065,1.36451612903226,1.36129032258065,1.36774193548387,1.38064516129032,1.46774193548387,1.69032258064516,1.91290322580645,1.60322580645161,1.15806451612903,1.17096774193548,1.25161290322581,1.35806451612903,1.37096774193548,1.37096774193548,1.3741935483871,1.3741935483871,1.38064516129032,1.38064516129032,1.38709677419355,1.38709677419355,1.38709677419355,1.39032258064516,1.39354838709677,1.39354838709677,1.40322580645161,1.39677419354839,1.40645161290323,1.42258064516129,1.41935483870968,1.42903225806452,1.43870967741935,1.44516129032258,1.46129032258065,1.46451612903226,1.47741935483871,1.48709677419355,1.49032258064516,1.49677419354839,1.48709677419355,1.48387096774194,1.4741935483871,1.45806451612903,1.44193548387097,1.43548387096774,1.41935483870968,1.41612903225806,1.40967741935484,1.4,1.40322580645161,1.39677419354839,1.4,1.39677419354839,1.40322580645161,1.38709677419355,1.39354838709677,1.4,1.39354838709677,1.4,1.38709677419355,1.38709677419355,1.39032258064516,1.39354838709677,1.39677419354839,1.39354838709677,1.39354838709677,1.39677419354839,1.39677419354839,1.39354838709677,1.39677419354839,1.39354838709677,1.39354838709677,1.39354838709677,1.39354838709677,1.39354838709677,1.39354838709677,1.39354838709677,1.39354838709677,1.39354838709677,1.38709677419355,1.38709677419355,1.39032258064516,1.39032258064516,1.39032258064516,1.39354838709677,1.39032258064516,1.39354838709677,1.38709677419355,1.39354838709677,1.38709677419355,1.38709677419355,1.39032258064516,1.39032258064516,1.38709677419355,1.38387096774194,1.39032258064516,1.38387096774194,1.38387096774194,1.39032258064516,1.39032258064516,1.39677419354839,1.40322580645161,1.40967741935484,1.41935483870968,1.4258064516129,1.45483870967742,1.44838709677419,1.44193548387097,1.41935483870968,1.4,1.4,1.3741935483871,1.36451612903226,1.36774193548387,1.36451612903226,1.36774193548387,1.36129032258065,1.36774193548387,1.35483870967742,1.3741935483871,1.35806451612903,1.35806451612903,1.36451612903226,1.37741935483871,1.47096774193548,1.69677419354839,1.94838709677419,1.59677419354839,1.15483870967742,1.17741935483871,1.26129032258065,1.35806451612903,1.36451612903226,1.36774193548387,1.37096774193548,1.3741935483871,1.38064516129032,1.37096774193548,1.38387096774194,1.37741935483871,1.38064516129032,1.38387096774194,1.38709677419355,1.38387096774194,1.39032258064516,1.40322580645161,1.40322580645161,1.40322580645161,1.41290322580645,1.41935483870968,1.4258064516129,1.44193548387097,1.45806451612903,1.46451612903226,1.47741935483871,1.49032258064516,1.49032258064516,1.49354838709677,1.48709677419355,1.48064516129032,1.46774193548387,1.44516129032258,1.42903225806452,1.41612903225806,1.40645161290323,1.39677419354839,1.39677419354839,1.38387096774194,1.38387096774194,1.38064516129032,1.3741935483871,1.37741935483871,1.37741935483871,1.37741935483871,1.38387096774194,1.36774193548387,1.38064516129032,1.36451612903226,1.3741935483871,1.37096774193548,1.3741935483871,1.36774193548387,1.3741935483871,1.36451612903226,1.36129032258065,1.35806451612903,1.36451612903226,1.36451612903226,1.36774193548387,1.36129032258065,1.36129032258065,1.36774193548387,1.36774193548387,1.3741935483871,1.3741935483871,1.36774193548387,1.37096774193548,1.35483870967742,1.36129032258065,1.36129032258065,1.36451612903226,1.36774193548387,1.36774193548387,1.36129032258065,1.36774193548387,1.36451612903226,1.36774193548387,1.3741935483871,1.36451612903226,1.36774193548387,1.36774193548387,1.36774193548387,1.37096774193548,1.36774193548387,1.36451612903226,1.3741935483871,1.36451612903226,1.37741935483871,1.38387096774194,1.39032258064516,1.39354838709677,1.40322580645161,1.4258064516129,1.44838709677419,1.44516129032258,1.41290322580645,1.40967741935484,1.39032258064516,1.38064516129032,1.36451612903226,1.36129032258065,1.37096774193548,1.3741935483871,1.36451612903226,1.36451612903226,1.36774193548387,1.36774193548387,1.3741935483871,1.37096774193548,1.3741935483871,1.3741935483871,1.4258064516129,1.56451612903226,1.8741935483871,1.81290322580645,1.19677419354839,1.04516129032258,1.15161290322581,1.26774193548387,1.36774193548387,1.38709677419355,1.39032258064516,1.39354838709677,1.40322580645161,1.40322580645161,1.40967741935484,1.40645161290323,1.41612903225806,1.41612903225806,1.4258064516129,1.42258064516129,1.43548387096774,1.43548387096774,1.43870967741935,1.45161290322581,1.45161290322581,1.45483870967742,1.47096774193548,1.47741935483871,1.49354838709677,1.49354838709677,1.50645161290323,1.51612903225806,1.51290322580645,1.51935483870968,1.51612903225806,1.51612903225806,1.49354838709677,1.48387096774194,1.46774193548387,1.45483870967742,1.44516129032258,1.43225806451613,1.42903225806452,1.42258064516129,1.41612903225806,1.41290322580645,1.40645161290323,1.40967741935484,1.40645161290323,1.40322580645161,1.4,1.40322580645161,1.39032258064516,1.40322580645161,1.39677419354839,1.4,1.39677419354839,1.4,1.40645161290323,1.40322580645161,1.40967741935484,1.40645161290323,1.40967741935484,1.40645161290323,1.40967741935484,1.4,1.40967741935484,1.4,1.40322580645161,1.39677419354839,1.39677419354839,1.39354838709677,1.39677419354839,1.38709677419355,1.38709677419355,1.38709677419355,1.39032258064516,1.38064516129032,1.37741935483871,1.39032258064516,1.38064516129032,1.38709677419355,1.38387096774194,1.38064516129032,1.38064516129032,1.38064516129032,1.37096774193548,1.38064516129032,1.3741935483871,1.37096774193548,1.37741935483871,1.37096774193548,1.3741935483871,1.38064516129032,1.3741935483871,1.39032258064516,1.38709677419355,1.40322580645161,1.41290322580645,1.44193548387097,1.43548387096774,1.41612903225806,1.40322580645161,1.39354838709677,1.38387096774194,1.36451612903226,1.35483870967742,1.35161290322581,1.35161290322581,1.35161290322581,1.35161290322581,1.34838709677419,1.35483870967742,1.35161290322581,1.35161290322581,1.35161290322581,1.35161290322581,1.36774193548387,1.46129032258065,1.68709677419355,1.88064516129032,1.51935483870968,1.15483870967742,1.18064516129032,1.28709677419355,1.35483870967742,1.35806451612903,1.36129032258065,1.36129032258065,1.36129032258065,1.36451612903226,1.3741935483871,1.37741935483871,1.3741935483871,1.37096774193548,1.38064516129032,1.3741935483871,1.37741935483871,1.38064516129032,1.39354838709677,1.39032258064516,1.40322580645161,1.4,1.40967741935484,1.41935483870968,1.42903225806452,1.43870967741935,1.44516129032258,1.45806451612903,1.46451612903226,1.46774193548387,1.4741935483871,1.46774193548387,1.45806451612903,1.45806451612903,1.44193548387097,1.42903225806452,1.40967741935484,1.40967741935484,1.39677419354839,1.39677419354839,1.38709677419355,1.39032258064516,1.38709677419355,1.38709677419355,1.38387096774194,1.38709677419355,1.39032258064516,1.38709677419355,1.39354838709677,1.38387096774194,1.38064516129032,1.38064516129032,1.38387096774194,1.38387096774194,1.38709677419355,1.38709677419355,1.38387096774194,1.38064516129032,1.38387096774194,1.37741935483871,1.38387096774194,1.38387096774194,1.38709677419355,1.38387096774194,1.38387096774194,1.38709677419355,1.38064516129032,1.38709677419355,1.38387096774194,1.39032258064516,1.39354838709677,1.38064516129032,1.38709677419355,1.39354838709677,1.38709677419355,1.38709677419355,1.38709677419355,1.38064516129032,1.38709677419355,1.37741935483871,1.39032258064516,1.39032258064516,1.38064516129032,1.39032258064516,1.38387096774194,1.39677419354839,1.38387096774194,1.39354838709677,1.38709677419355,1.38709677419355,1.37741935483871,1.39677419354839,1.39677419354839,1.40645161290323,1.40645161290323,1.41935483870968,1.42903225806452,1.46129032258065,1.48064516129032,1.44193548387097,1.42903225806452,1.41290322580645,1.40322580645161,1.38387096774194,1.3741935483871,1.38064516129032,1.39032258064516,1.38709677419355,1.37741935483871,1.37741935483871,1.38709677419355,1.37741935483871,1.36129032258065,1.38064516129032,1.38709677419355,1.41290322580645,1.51290322580645,1.79032258064516,1.89677419354839,1.36129032258065,1.04193548387097,1.10967741935484,1.2258064516129,1.34838709677419,1.38064516129032,1.38709677419355,1.38387096774194,1.39677419354839,1.39032258064516,1.4,1.40645161290323,1.40645161290323,1.40645161290323,1.4,1.40967741935484,1.41612903225806,1.41612903225806,1.4258064516129,1.42258064516129,1.43870967741935,1.43870967741935,1.45161290322581,1.45483870967742,1.46774193548387,1.47741935483871,1.48387096774194,1.49677419354839,1.49677419354839,1.49677419354839,1.50322580645161,1.49354838709677,1.47741935483871,1.46129032258065,1.44838709677419,1.44193548387097,1.42258064516129,1.41612903225806,1.40645161290323,1.39032258064516,1.39677419354839,1.39677419354839,1.39354838709677,1.38387096774194,1.38709677419355,1.39677419354839,1.38064516129032,1.39354838709677,1.37741935483871,1.38064516129032,1.38064516129032,1.37741935483871,1.39032258064516,1.38064516129032,1.3741935483871,1.38387096774194,1.38709677419355,1.39354838709677,1.39032258064516,1.38709677419355,1.39677419354839,1.38709677419355,1.38709677419355,1.38064516129032,1.39032258064516,1.38709677419355,1.4,1.38387096774194,1.39032258064516,1.38387096774194,1.38064516129032,1.3741935483871,1.38387096774194,1.37741935483871,1.37096774193548,1.37741935483871,1.38387096774194,1.3741935483871,1.3741935483871,1.37741935483871,1.36774193548387,1.37096774193548,1.37741935483871,1.36774193548387,1.38064516129032,1.37096774193548,1.3741935483871,1.36774193548387,1.36774193548387,1.37741935483871,1.38387096774194,1.38064516129032,1.39354838709677,1.39032258064516,1.4,1.42903225806452,1.44516129032258,1.44193548387097,1.42903225806452,1.40967741935484,1.39677419354839,1.39032258064516,1.37096774193548,1.36451612903226,1.36129032258065,1.36774193548387,1.36129032258065,1.37096774193548,1.36129032258065,1.36451612903226,1.35161290322581,1.36451612903226,1.36451612903226,1.36451612903226,1.39032258064516,1.5,1.74516129032258,1.88064516129032,1.40967741935484,1.1741935483871,1.2258064516129,1.34838709677419,1.3741935483871,1.37096774193548,1.37096774193548,1.37096774193548,1.35806451612903,1.37741935483871,1.3741935483871,1.37741935483871,1.37741935483871,1.36451612903226,1.39032258064516,1.38709677419355,1.38709677419355,1.39354838709677,1.39354838709677,1.39677419354839,1.41290322580645,1.41290322580645,1.41290322580645,1.43225806451613,1.43225806451613,1.44516129032258,1.44838709677419,1.46451612903226,1.46129032258065,1.47096774193548,1.48064516129032,1.47741935483871,1.46774193548387,1.45483870967742,1.43870967741935,1.42903225806452,1.41612903225806,1.4258064516129,1.41290322580645,1.40322580645161,1.39677419354839,1.41612903225806,1.40322580645161,1.40645161290323,1.39354838709677,1.39677419354839,1.40322580645161,1.39032258064516,1.39032258064516,1.39354838709677,1.39354838709677,1.39032258064516,1.39354838709677,1.38064516129032,1.4,1.39032258064516,1.39032258064516,1.38387096774194,1.38709677419355,1.38387096774194,1.39032258064516,1.38387096774194,1.38709677419355,1.38064516129032,1.39032258064516,1.38709677419355,1.38387096774194,1.39032258064516,1.39032258064516,1.3741935483871,1.38709677419355,1.38709677419355,1.38709677419355,1.39354838709677,1.39032258064516,1.39354838709677,1.38387096774194,1.39032258064516,1.39032258064516,1.38064516129032,1.38709677419355,1.39032258064516,1.39354838709677,1.39677419354839,1.39032258064516,1.38709677419355,1.39032258064516,1.39032258064516,1.39032258064516,1.39677419354839,1.39354838709677,1.40645161290323,1.40967741935484,1.40645161290323,1.4258064516129,1.43225806451613,1.47096774193548,1.4741935483871,1.45806451612903,1.43548387096774,1.43225806451613,1.41612903225806,1.39354838709677,1.38709677419355,1.39032258064516,1.39032258064516,1.39032258064516,1.38709677419355,1.38387096774194,1.39032258064516,1.38064516129032,1.38709677419355,1.40322580645161,1.39354838709677
1.48064516129032,1.46129032258065,1.45161290322581,1.44516129032258,1.43548387096774,1.43225806451613,1.43225806451613,1.42903225806452,1.43225806451613,1.43548387096774,1.42903225806452,1.42258064516129,1.42258064516129,1.42258064516129,1.42258064516129,1.41935483870968,1.41935483870968,1.41935483870968,1.40967741935484,1.41290322580645,1.40645161290323,1.41612903225806,1.41935483870968,1.42258064516129,1.41612903225806,1.41612903225806,1.41935483870968,1.42258064516129,1.42258064516129,1.42258064516129,1.41290322580645,1.42258064516129,1.40645161290323,1.40967741935484,1.41935483870968,1.40967741935484,1.40967741935484,1.40645161290323,1.40967741935484,1.40645161290323,1.40967741935484,1.40322580645161,1.40322580645161,1.4,1.40967741935484,1.39354838709677,1.4,1.39032258064516,1.40322580645161,1.4,1.4,1.40322580645161,1.39677419354839,1.39354838709677,1.39677419354839,1.39677419354839,1.39032258064516,1.4,1.4,1.40322580645161,1.40645161290323,1.41935483870968,1.41935483870968,1.44516129032258,1.45806451612903,1.45161290322581,1.43548387096774,1.42258064516129,1.40645161290323,1.39677419354839,1.3741935483871,1.37741935483871,1.3741935483871,1.37096774193548,1.38387096774194,1.3741935483871,1.37096774193548,1.36451612903226,1.37096774193548,1.36129032258065,1.3741935483871,1.36129032258065,1.41612903225806,1.54193548387097,1.79354838709677,1.82903225806452,1.30322580645161,1.16451612903226,1.21612903225806,1.33870967741935,1.3741935483871,1.3741935483871,1.36774193548387,1.3741935483871,1.37741935483871,1.3741935483871,1.38387096774194,1.37741935483871,1.38064516129032,1.38064516129032,1.38709677419355,1.38387096774194,1.39032258064516,1.39354838709677,1.39354838709677,1.39677419354839,1.40645161290323,1.40967741935484,1.42258064516129,1.42903225806452,1.44193548387097,1.44838709677419,1.45161290322581,1.46451612903226,1.46451612903226,1.4741935483871,1.47741935483871,1.4741935483871,1.45806451612903,1.44838709677419,1.43548387096774,1.41935483870968,1.41612903225806,1.40645161290323,1.39354838709677,1.39677419354839,1.38709677419355,1.39032258064516,1.38709677419355,1.39354838709677,1.38387096774194,1.38064516129032,1.38709677419355,1.39032258064516,1.38064516129032,1.38387096774194,1.38387096774194,1.38709677419355,1.37741935483871,1.38064516129032,1.38064516129032,1.37741935483871,1.3741935483871,1.38064516129032,1.37741935483871,1.38709677419355,1.37096774193548,1.38064516129032,1.38709677419355,1.38064516129032,1.37741935483871,1.3741935483871,1.38064516129032,1.38064516129032,1.38709677419355,1.38064516129032,1.38709677419355,1.38709677419355,1.38387096774194,1.37741935483871,1.38387096774194,1.38064516129032,1.38387096774194,1.38387096774194,1.37741935483871,1.38064516129032,1.38709677419355,1.38387096774194,1.38387096774194,1.38387096774194,1.37741935483871,1.38387096774194,1.37741935483871,1.38387096774194,1.38064516129032,1.37741935483871,1.38387096774194,1.3741935483871,1.37741935483871,1.38064516129032,1.38387096774194,1.38064516129032,1.38387096774194,1.4,1.39677419354839,1.41290322580645,1.41935483870968,1.44193548387097,1.45161290322581,1.4258064516129,1.41612903225806,1.40967741935484,1.4,1.37096774193548,1.36129032258065,1.36774193548387,1.37096774193548,1.36451612903226,1.36129032258065,1.36129032258065,1.36774193548387,1.35806451612903,1.36451612903226,1.36129032258065,1.36774193548387,1.36451612903226,1.43870967741935,1.62258064516129,1.89032258064516,1.77741935483871,1.20322580645161,1.18064516129032,1.23870967741935,1.35161290322581,1.37741935483871,1.37096774193548,1.3741935483871,1.37741935483871,1.38387096774194,1.37741935483871,1.38709677419355,1.38387096774194,1.38387096774194,1.38064516129032,1.39354838709677,1.38709677419355,1.38709677419355,1.39677419354839,1.40322580645161,1.40645161290323,1.40645161290323,1.4258064516129,1.43548387096774,1.43870967741935,1.45806451612903,1.46129032258065,1.48387096774194,1.48709677419355,1.49354838709677,1.5,1.50322580645161,1.50645161290323,1.49032258064516,1.46774193548387,1.44838709677419,1.43548387096774,1.42258064516129,1.41612903225806,1.40645161290323,1.4,1.40322580645161,1.39677419354839,1.4,1.39677419354839,1.40322580645161,1.39677419354839,1.40322580645161,1.39677419354839,1.40322580645161,1.4,1.39032258064516,1.38709677419355,1.38064516129032,1.39032258064516,1.38387096774194,1.39354838709677,1.38387096774194,1.38387096774194,1.38064516129032,1.39032258064516,1.37741935483871,1.37741935483871,1.38709677419355,1.38064516129032,1.39354838709677,1.38709677419355,1.38709677419355,1.37741935483871,1.37741935483871,1.38709677419355,1.37741935483871,1.39032258064516,1.37741935483871,1.38709677419355,1.37741935483871,1.39032258064516,1.38709677419355,1.38387096774194,1.38709677419355,1.37741935483871,1.38387096774194,1.39032258064516,1.38387096774194,1.38064516129032,1.39354838709677,1.39032258064516,1.38709677419355,1.38709677419355,1.39677419354839,1.38709677419355,1.37741935483871,1.38064516129032,1.38387096774194,1.39677419354839,1.38709677419355,1.39032258064516,1.4,1.40967741935484,1.41290322580645,1.44516129032258,1.46129032258065,1.44838709677419,1.4258064516129,1.40967741935484,1.39677419354839,1.39032258064516,1.37096774193548,1.37096774193548,1.36451612903226,1.37741935483871,1.3741935483871,1.37096774193548,1.36774193548387,1.3741935483871,1.3741935483871,1.3741935483871,1.3741935483871,1.38387096774194,1.42903225806452,1.58387096774194,1.8741935483871,1.76774193548387,1.13870967741935,1.03870967741935,1.13225806451613,1.25806451612903,1.35483870967742,1.37096774193548,1.37741935483871,1.38387096774194,1.38064516129032,1.37741935483871,1.38709677419355,1.38387096774194,1.39032258064516,1.39032258064516,1.39677419354839,1.39354838709677,1.40322580645161,1.4,1.41935483870968,1.42258064516129,1.42258064516129,1.4258064516129,1.43870967741935,1.45161290322581,1.46129032258065,1.47096774193548,1.47741935483871,1.49032258064516,1.49677419354839,1.49032258064516,1.49677419354839,1.48709677419355,1.48064516129032,1.46129032258065,1.43870967741935,1.42258064516129,1.41290322580645,1.40645161290323,1.39677419354839,1.40645161290323,1.39354838709677,1.39032258064516,1.39032258064516,1.39354838709677,1.38709677419355,1.38709677419355,1.38387096774194,1.38387096774194,1.38387096774194,1.38064516129032,1.37741935483871,1.38064516129032,1.38387096774194,1.38064516129032,1.38387096774194,1.38064516129032,1.39032258064516,1.39677419354839,1.38709677419355,1.39677419354839,1.39354838709677,1.39354838709677,1.39032258064516,1.39354838709677,1.39677419354839,1.39032258064516,1.39677419354839,1.38709677419355,1.38387096774194,1.39032258064516,1.38709677419355,1.38387096774194,1.38387096774194,1.38709677419355,1.38387096774194,1.38709677419355,1.38064516129032,1.38709677419355,1.38064516129032,1.38709677419355,1.38387096774194,1.38387096774194,1.38387096774194,1.38387096774194,1.38387096774194,1.38387096774194,1.38064516129032,1.39032258064516,1.37741935483871,1.38387096774194,1.37741935483871,1.39032258064516,1.38387096774194,1.39677419354839,1.39677419354839,1.40967741935484,1.40967741935484,1.41935483870968,1.44838709677419,1.45483870967742,1.43548387096774,1.41612903225806,1.41290322580645,1.39677419354839,1.39677419354839,1.3741935483871,1.37741935483871,1.37741935483871,1.3741935483871,1.36774193548387,1.37096774193548,1.36774193548387,1.3741935483871,1.3741935483871,1.37741935483871,1.3741935483871,1.37096774193548,1.45161290322581,1.64193548387097,1.87741935483871,1.72258064516129,1.2,1.2,1.25161290322581,1.36129032258065,1.37096774193548,1.37096774193548,1.3741935483871,1.37741935483871,1.38709677419355,1.38387096774194,1.38709677419355,1.38387096774194,1.39032258064516,1.39032258064516,1.39354838709677,1.39354838709677,1.39677419354839,1.4,1.40645161290323,1.41612903225806,1.41935483870968,1.41290322580645,1.42903225806452,1.42903225806452,1.44516129032258,1.45161290322581,1.46129032258065,1.45806451612903,1.47096774193548,1.47741935483871,1.4741935483871,1.47096774193548,1.46451612903226,1.44838709677419,1.43870967741935,1.4258064516129,1.40322580645161,1.40645161290323,1.39677419354839,1.4,1.39032258064516,1.39032258064516,1.39032258064516,1.39677419354839,1.38709677419355,1.39032258064516,1.38709677419355,1.39032258064516,1.38709677419355,1.38387096774194,1.38064516129032,1.38387096774194,1.38064516129032,1.38064516129032,1.38064516129032,1.38064516129032,1.38387096774194,1.38387096774194,1.38387096774194,1.38064516129032,1.3741935483871,1.38064516129032,1.39032258064516,1.37741935483871,1.38387096774194,1.38064516129032,1.38709677419355,1.38387096774194,1.38709677419355,1.38064516129032,1.38064516129032,1.38064516129032,1.38064516129032,1.38064516129032,1.37741935483871,1.38387096774194,1.38709677419355,1.38064516129032,1.37741935483871,1.38064516129032,1.37741935483871,1.38387096774194,1.3741935483871,1.38064516129032,1.38064516129032,1.39032258064516,1.38064516129032,1.38387096774194,1.38709677419355,1.38064516129032,1.38387096774194,1.38387096774194,1.37741935483871,1.38387096774194,1.39354838709677,1.39677419354839,1.40645161290323,1.40645161290323,1.43225806451613,1.45161290322581,1.43548387096774,1.41290322580645,1.40967741935484,1.4,1.39032258064516,1.36774193548387,1.36129032258065,1.37096774193548,1.36451612903226,1.36774193548387,1.37096774193548,1.36451612903226,1.36774193548387,1.36774193548387,1.37096774193548,1.36774193548387,1.36451612903226,1.40967741935484,1.53548387096774,1.80967741935484,1.86774193548387,1.3258064516129,1.15161290322581,1.21290322580645,1.32903225806452,1.3741935483871,1.37741935483871,1.37096774193548,1.37096774193548,1.36774193548387,1.38064516129032,1.37741935483871,1.38709677419355,1.39032258064516,1.39032258064516,1.39354838709677,1.39354838709677,1.40322580645161,1.39677419354839,1.41612903225806,1.40322580645161,1.42258064516129,1.42258064516129,1.43870967741935,1.44193548387097,1.45161290322581,1.46129032258065,1.48064516129032,1.48387096774194,1.5,1.5,1.50322580645161,1.49354838709677,1.48064516129032,1.47096774193548,1.45483870967742,1.45161290322581,1.4258064516129,1.41290322580645,1.40645161290323,1.39354838709677,1.4,1.40322580645161,1.38709677419355,1.39677419354839,1.39677419354839,1.39032258064516,1.38387096774194,1.38387096774194,1.38064516129032,1.39032258064516,1.38709677419355,1.39677419354839,1.38064516129032,1.38064516129032,1.39354838709677,1.38709677419355,1.37741935483871,1.38064516129032,1.37741935483871,1.37741935483871,1.37741935483871,1.3741935483871,1.38064516129032,1.38387096774194,1.38387096774194,1.38387096774194,1.38064516129032,1.38064516129032,1.38387096774194,1.38064516129032,1.39677419354839,1.38064516129032,1.37741935483871,1.3741935483871,1.38064516129032,1.38064516129032,1.37741935483871,1.38387096774194,1.39032258064516,1.38709677419355,1.38064516129032,1.37741935483871,1.38387096774194,1.38064516129032,1.38709677419355,1.37741935483871,1.38064516129032,1.37741935483871,1.38709677419355,1.38387096774194,1.38064516129032,1.38387096774194,1.39354838709677,1.4,1.39677419354839,1.41612903225806,1.42258064516129,1.45161290322581,1.43870967741935,1.43548387096774,1.41935483870968,1.40322580645161,1.39677419354839,1.37741935483871,1.36774193548387,1.37096774193548,1.37096774193548,1.36774193548387,1.3741935483871,1.36774193548387,1.36451612903226,1.37096774193548,1.37096774193548,1.38387096774194,1.3741935483871,1.41935483870968,1.53870967741935,1.8258064516129,1.84193548387097,1.28387096774194,1.06129032258065,1.13870967741935,1.25806451612903,1.35161290322581,1.3741935483871,1.3741935483871,1.37741935483871,1.38387096774194,1.38709677419355,1.39032258064516,1.39032258064516,1.39354838709677,1.39677419354839,1.40645161290323,1.4,1.40322580645161,1.41612903225806,1.40967741935484,1.41290322580645,1.42903225806452,1.43870967741935,1.44838709677419,1.45483870967742,1.4741935483871,1.4741935483871,1.47741935483871,1.49032258064516,1.49032258064516,1.49677419354839,1.5,1.48709677419355,1.4741935483871,1.45806451612903,1.44193548387097,1.43225806451613,1.42258064516129,1.40645161290323,1.4,1.4,1.39354838709677,1.38709677419355,1.39032258064516,1.39032258064516,1.38709677419355,1.39354838709677,1.38387096774194,1.38064516129032,1.37096774193548,1.37741935483871,1.38387096774194,1.38064516129032,1.38064516129032,1.38387096774194,1.38387096774194,1.38387096774194,1.38709677419355,1.39354838709677,1.39677419354839,1.4,1.39354838709677,1.39354838709677,1.39032258064516,1.4,1.39354838709677,1.39677419354839,1.39354838709677,1.39354838709677,1.39032258064516,1.38709677419355,1.38709677419355,1.39354838709677,1.39032258064516,1.39354838709677,1.39032258064516,1.39032258064516,1.39032258064516,1.39032258064516,1.39354838709677,1.38709677419355,1.38387096774194,1.4,1.39032258064516,1.39032258064516,1.39354838709677,1.39032258064516,1.38709677419355,1.38709677419355,1.39032258064516,1.39032258064516,1.38709677419355,1.39354838709677,1.39032258064516,1.40322580645161,1.40967741935484,1.41290322580645,1.43225806451613,1.45483870967742,1.44838709677419,1.42903225806452,1.40645161290323,1.40322580645161,1.38709677419355,1.37096774193548,1.36451612903226,1.36774193548387,1.37096774193548,1.3741935483871,1.36774193548387,1.36451612903226,1.36774193548387,1.36451612903226,1.35483870967742,1.37096774193548,1.37096774193548,1.43870967741935,1.6,1.86774193548387,1.78064516129032,1.20322580645161,1.1741935483871,1.2258064516129,1.35806451612903,1.36451612903226,1.36774193548387,1.37096774193548,1.36774193548387,1.36774193548387,1.37741935483871,1.36774193548387,1.3741935483871,1.38064516129032,1.3741935483871,1.38064516129032,1.38709677419355,1.38064516129032,1.39354838709677,1.39032258064516,1.40967741935484,1.40645161290323,1.41290322580645,1.41612903225806,1.4258064516129,1.43870967741935,1.44838709677419,1.45806451612903,1.46451612903226,1.46774193548387,1.46774193548387,1.4741935483871,1.46129032258065,1.45483870967742,1.44193548387097,1.4258064516129,1.40967741935484,1.40322580645161,1.39354838709677,1.38709677419355,1.38709677419355,1.38064516129032,1.38387096774194,1.38064516129032,1.38064516129032,1.37741935483871,1.37741935483871,1.38387096774194,1.37741935483871,1.37741935483871,1.37096774193548,1.36774193548387,1.38387096774194,1.37096774193548,1.3741935483871,1.3741935483871,1.3741935483871,1.37096774193548,1.37741935483871,1.37741935483871,1.37741935483871,1.3741935483871,1.37741935483871,1.3741935483871,1.3741935483871,1.3741935483871,1.38064516129032,1.38709677419355,1.3741935483871,1.38064516129032,1.37741935483871,1.37096774193548,1.38709677419355,1.3741935483871,1.38064516129032,1.38387096774194,1.38064516129032,1.38387096774194,1.38709677419355,1.38387096774194,1.37741935483871,1.38709677419355,1.38709677419355,1.38387096774194,1.39032258064516,1.4,1.39354838709677,1.39354838709677,1.38064516129032,1.38064516129032,1.38709677419355,1.38387096774194,1.39032258064516,1.4,1.40645161290323,1.40645161290323,1.41290322580645,1.44838709677419,1.45806451612903,1.44193548387097,1.4258064516129,1.40967741935484,1.4,1.39354838709677,1.38064516129032,1.37741935483871,1.37096774193548,1.38709677419355,1.38387096774194,1.37741935483871,1.37741935483871,1.3741935483871,1.3741935483871,1.3741935483871,1.37741935483871,1.38709677419355,1.49677419354839,1.71290322580645,1.96774193548387,1.62258064516129,1.11935483870968,1.13870967741935,1.22258064516129,1.35161290322581,1.37741935483871,1.38064516129032,1.38064516129032,1.37741935483871,1.39032258064516,1.39354838709677,1.39354838709677,1.4,1.4,1.40645161290323,1.40967741935484,1.40967741935484,1.40967741935484,1.40967741935484,1.41935483870968,1.43225806451613,1.43548387096774,1.44838709677419,1.45483870967742,1.46451612903226,1.48387096774194,1.48064516129032,1.49677419354839,1.50645161290323,1.51935483870968,1.51612903225806,1.51290322580645,1.50322580645161,1.49354838709677,1.46451612903226,1.45161290322581,1.43870967741935,1.4258064516129,1.41290322580645,1.40967741935484,1.40322580645161,1.40322580645161,1.39354838709677,1.4,1.40322580645161,1.40645161290323,1.39032258064516,1.39677419354839,1.39354838709677,1.39677419354839,1.38709677419355,1.39677419354839,1.38709677419355,1.38709677419355,1.38064516129032,1.37741935483871,1.39032258064516,1.38387096774194,1.38387096774194,1.38064516129032,1.38387096774194,1.38709677419355,1.38387096774194,1.38387096774194,1.37741935483871,1.38064516129032,1.38387096774194,1.37096774193548,1.38064516129032,1.38064516129032,1.38064516129032,1.38387096774194,1.38064516129032,1.37741935483871,1.37741935483871,1.37741935483871,1.38387096774194,1.37741935483871,1.3741935483871,1.38064516129032,1.38387096774194,1.37096774193548,1.3741935483871,1.37096774193548,1.3741935483871,1.3741935483871,1.36774193548387,1.37096774193548,1.37741935483871,1.3741935483871,1.38064516129032,1.38064516129032,1.38387096774194,1.39677419354839,1.39354838709677,1.40967741935484,1.43548387096774,1.44516129032258,1.4258064516129,1.41290322580645,1.39677419354839,1.38064516129032,1.37096774193548,1.35483870967742,1.36129032258065,1.35806451612903,1.35161290322581,1.35483870967742,1.35483870967742,1.35161290322581,1.35483870967742,1.35483870967742,1.35806451612903,1.35806451612903,1.36129032258065,1.43225806451613,1.65161290322581,1.92903225806452,1.65483870967742,1.09354838709677,1.08709677419355,1.16451612903226,1.30322580645161,1.35806451612903,1.36129032258065,1.35806451612903,1.36451612903226,1.36129032258065,1.37096774193548,1.37096774193548,1.36774193548387,1.37096774193548,1.3741935483871,1.38387096774194,1.38064516129032,1.38709677419355,1.39354838709677,1.40322580645161,1.40322580645161,1.41935483870968,1.42258064516129,1.43870967741935,1.44193548387097,1.45806451612903,1.46774193548387,1.48064516129032,1.49032258064516,1.5,1.49677419354839,1.49677419354839,1.48064516129032,1.47096774193548,1.45483870967742,1.43870967741935,1.43548387096774,1.41935483870968,1.40967741935484,1.40322580645161,1.4,1.39354838709677,1.40645161290323,1.39677419354839,1.4,1.39032258064516,1.4,1.39677419354839,1.39354838709677,1.39354838709677,1.39032258064516,1.39354838709677,1.39032258064516,1.39032258064516,1.39032258064516,1.38709677419355,1.39677419354839,1.4,1.4,1.4,1.40645161290323,1.40967741935484,1.40645161290323,1.40645161290323,1.40322580645161,1.40645161290323,1.40322580645161,1.40322580645161,1.40322580645161,1.40322580645161,1.40322580645161,1.40967741935484,1.39032258064516,1.39677419354839,1.39354838709677,1.4,1.39354838709677,1.39354838709677,1.39354838709677,1.40322580645161,1.38709677419355,1.39354838709677,1.38709677419355,1.39354838709677,1.39354838709677,1.39354838709677,1.39032258064516,1.38387096774194,1.4,1.39354838709677,1.39354838709677,1.39032258064516,1.39032258064516,1.39032258064516,1.39354838709677,1.40322580645161,1.41290322580645,1.41612903225806,1.44516129032258,1.45483870967742,1.43225806451613,1.41612903225806,1.40322580645161,1.39032258064516,1.38064516129032,1.36774193548387,1.36774193548387,1.36451612903226,1.36774193548387,1.36774193548387,1.36129032258065,1.36451612903226,1.36774193548387,1.36774193548387,1.36129032258065,1.36451612903226,1.35806451612903,1.44193548387097,1.61290322580645,1.9,1.7741935483871,1.19354838709677,1.1741935483871,1.22258064516129,1.34838709677419,1.36451612903226,1.36451612903226,1.36129032258065,1.36774193548387,1.36774193548387,1.36451612903226,1.37096774193548,1.36774193548387,1.3741935483871,1.3741935483871,1.3741935483871,1.37741935483871,1.38709677419355,1.38709677419355,1.39354838709677,1.4,1.40322580645161,1.40967741935484,1.41935483870968,1.42903225806452,1.44193548387097,1.45483870967742,1.46451612903226,1.4741935483871,1.47741935483871,1.48064516129032,1.48387096774194,1.4741935483871,1.45806451612903,1.44516129032258,1.42258064516129,1.41935483870968,1.40645161290323,1.39677419354839,1.38064516129032,1.38387096774194,1.38709677419355,1.38387096774194,1.37741935483871,1.38387096774194,1.38387096774194,1.38064516129032,1.38064516129032,1.38387096774194,1.37741935483871,1.37741935483871,1.38064516129032,1.37741935483871,1.37096774193548,1.3741935483871,1.38064516129032,1.38709677419355,1.38064516129032,1.3741935483871,1.38709677419355,1.38387096774194,1.38387096774194,1.37741935483871,1.39032258064516,1.38709677419355,1.39354838709677,1.39354838709677,1.39354838709677,1.39677419354839,1.39354838709677,1.4,1.4,1.40645161290323,1.40645161290323,1.40967741935484,1.41290322580645,1.41935483870968,1.41612903225806,1.41935483870968,1.41935483870968,1.4258064516129,1.42903225806452
1.39032258064516,1.38387096774194,1.38387096774194,1.3741935483871,1.38387096774194,1.38709677419355,1.38387096774194,1.37096774193548,1.37096774193548,1.37741935483871,1.37741935483871,1.37741935483871,1.37741935483871,1.38387096774194,1.3741935483871,1.37741935483871,1.37741935483871,1.37096774193548,1.38709677419355,1.38387096774194,1.38064516129032,1.38064516129032,1.3741935483871,1.38064516129032,1.38064516129032,1.38387096774194,1.37741935483871,1.38387096774194,1.3741935483871,1.38387096774194,1.37741935483871,1.3741935483871,1.37741935483871,1.38064516129032,1.37741935483871,1.3741935483871,1.38709677419355,1.37741935483871,1.38387096774194,1.38709677419355,1.38064516129032,1.38064516129032,1.38064516129032,1.38387096774194,1.37741935483871,1.38064516129032,1.39032258064516,1.38709677419355,1.38064516129032,1.38064516129032,1.38387096774194,1.37741935483871,1.3741935483871,1.38387096774194,1.38709677419355,1.38064516129032,1.38064516129032,1.38064516129032,1.38064516129032,1.38387096774194,1.39032258064516,1.40967741935484,1.40322580645161,1.42258064516129,1.44838709677419,1.45483870967742,1.44193548387097,1.42258064516129,1.40967741935484,1.4,1.39354838709677,1.37096774193548,1.37096774193548,1.37741935483871,1.37741935483871,1.37096774193548,1.3741935483871,1.3741935483871,1.37096774193548,1.36774193548387,1.36774193548387,1.37096774193548,1.38064516129032,1.46451612903226,1.6741935483871,1.94193548387097,1.72903225806452,1.16451612903226,1.1741935483871,1.24516129032258,1.36451612903226,1.3741935483871,1.3741935483871,1.36774193548387,1.3741935483871,1.37741935483871,1.38387096774194,1.38064516129032,1.38709677419355,1.38064516129032,1.4,1.38709677419355,1.39354838709677,1.39677419354839,1.39677419354839,1.40645161290323,1.41290322580645,1.41612903225806,1.42258064516129,1.43870967741935,1.44193548387097,1.46129032258065,1.46774193548387,1.47741935483871,1.48387096774194,1.49677419354839,1.49032258064516,1.49677419354839,1.49354838709677,1.48709677419355,1.46774193548387,1.45161290322581,1.43548387096774,1.42903225806452,1.41935483870968,1.4,1.39677419354839,1.40645161290323,1.39677419354839,1.39354838709677,1.38709677419355,1.39032258064516,1.40322580645161,1.39032258064516,1.39032258064516,1.38387096774194,1.39354838709677,1.39032258064516,1.38709677419355,1.38064516129032,1.39354838709677,1.38064516129032,1.38064516129032,1.38387096774194,1.38064516129032,1.38709677419355,1.38064516129032,1.39354838709677,1.38387096774194,1.38709677419355,1.38387096774194,1.38387096774194,1.38387096774194,1.39032258064516,1.39677419354839,1.38387096774194,1.39032258064516,1.38387096774194,1.37741935483871,1.38387096774194,1.38387096774194,1.38387096774194,1.38387096774194,1.38387096774194,1.37096774193548,1.37741935483871,1.37741935483871,1.38709677419355,1.37741935483871,1.38387096774194,1.39354838709677,1.38387096774194,1.38064516129032,1.37741935483871,1.38064516129032,1.39032258064516,1.38064516129032,1.38387096774194,1.38387096774194,1.3741935483871,1.38064516129032,1.39677419354839,1.40322580645161,1.39677419354839,1.41290322580645,1.42258064516129,1.45161290322581,1.45161290322581,1.44516129032258,1.41935483870968,1.41612903225806,1.39354838709677,1.37741935483871,1.3741935483871,1.36774193548387,1.36774193548387,1.36774193548387,1.36774193548387,1.36774193548387,1.37096774193548,1.36774193548387,1.3741935483871,1.3741935483871,1.36774193548387,1.39032258064516,1.48709677419355,1.74193548387097,1.93548387096774,1.45806451612903,1.05161290322581,1.08387096774194,1.20322580645161,1.3258064516129,1.37096774193548,1.37096774193548,1.37741935483871,1.37741935483871,1.37741935483871,1.38709677419355,1.38387096774194,1.39032258064516,1.39032258064516,1.39354838709677,1.4,1.4,1.4,1.40322580645161,1.41612903225806,1.42903225806452,1.42258064516129,1.43225806451613,1.44516129032258,1.45483870967742,1.45483870967742,1.48387096774194,1.48064516129032,1.49032258064516,1.48387096774194,1.5,1.48387096774194,1.48387096774194,1.46129032258065,1.45483870967742,1.42903225806452,1.42258064516129,1.41612903225806,1.41290322580645,1.4,1.4,1.39032258064516,1.38709677419355,1.39354838709677,1.39032258064516,1.38387096774194,1.38064516129032,1.38709677419355,1.37741935483871,1.38387096774194,1.3741935483871,1.38387096774194,1.37741935483871,1.38709677419355,1.38064516129032,1.39354838709677,1.38709677419355,1.38709677419355,1.39354838709677,1.39677419354839,1.39032258064516,1.39354838709677,1.4,1.4,1.39354838709677,1.39677419354839,1.39032258064516,1.39032258064516,1.38709677419355,1.38709677419355,1.38387096774194,1.38387096774194,1.38709677419355,1.39032258064516,1.39032258064516,1.38387096774194,1.38709677419355,1.38709677419355,1.38709677419355,1.38064516129032,1.38387096774194,1.38064516129032,1.39032258064516,1.38387096774194,1.38709677419355,1.38387096774194,1.38387096774194,1.38709677419355,1.38387096774194,1.38064516129032,1.38064516129032,1.38709677419355,1.38709677419355,1.38387096774194,1.38064516129032,1.39354838709677,1.4,1.41290322580645,1.40967741935484,1.42903225806452,1.45161290322581,1.46129032258065,1.43225806451613,1.41612903225806,1.40322580645161,1.39677419354839,1.3741935483871,1.36774193548387,1.3741935483871,1.36451612903226,1.36451612903226,1.36774193548387,1.35483870967742,1.36129032258065,1.36451612903226,1.37096774193548,1.37096774193548,1.37096774193548,1.41612903225806,1.54516129032258,1.81290322580645,1.85806451612903,1.31290322580645,1.15161290322581,1.20322580645161,1.32903225806452,1.3741935483871,1.37096774193548,1.38064516129032,1.37741935483871,1.3741935483871,1.37741935483871,1.3741935483871,1.38387096774194,1.38387096774194,1.38709677419355,1.38387096774194,1.39032258064516,1.39354838709677,1.39677419354839,1.39677419354839,1.41612903225806,1.40322580645161,1.41935483870968,1.41935483870968,1.43548387096774,1.44516129032258,1.44838709677419,1.46774193548387,1.4741935483871,1.4741935483871,1.47096774193548,1.47741935483871,1.48064516129032,1.46774193548387,1.45161290322581,1.44516129032258,1.43548387096774,1.41935483870968,1.40967741935484,1.4,1.40322580645161,1.4,1.39354838709677,1.39677419354839,1.39032258064516,1.39677419354839,1.39354838709677,1.39354838709677,1.39677419354839,1.39677419354839,1.38709677419355,1.38387096774194,1.38709677419355,1.38064516129032,1.37741935483871,1.37741935483871,1.38709677419355,1.39032258064516,1.38064516129032,1.38387096774194,1.38387096774194,1.38387096774194,1.38709677419355,1.38709677419355,1.38064516129032,1.38387096774194,1.38709677419355,1.38387096774194,1.3741935483871,1.39032258064516,1.38709677419355,1.38387096774194,1.37741935483871,1.38709677419355,1.3741935483871,1.37741935483871,1.38064516129032,1.38064516129032,1.38709677419355,1.38709677419355,1.37741935483871,1.38064516129032,1.38387096774194,1.38709677419355,1.38709677419355,1.38064516129032,1.38709677419355,1.38064516129032,1.38064516129032,1.37741935483871,1.38064516129032,1.39354838709677,1.38064516129032,1.38064516129032,1.37741935483871,1.38709677419355,1.39677419354839,1.38709677419355,1.4,1.40967741935484,1.41612903225806,1.42903225806452,1.45806451612903,1.46451612903226,1.43870967741935,1.42258064516129,1.40967741935484,1.39677419354839,1.38387096774194,1.36774193548387,1.37741935483871,1.37741935483871,1.3741935483871,1.3741935483871,1.37096774193548,1.36774193548387,1.3741935483871,1.37096774193548,1.36774193548387,1.3741935483871,1.40967741935484,1.52903225806452,1.82258064516129,1.90967741935484,1.36451612903226,1.0741935483871,1.14838709677419,1.26451612903226,1.35806451612903,1.3741935483871,1.3741935483871,1.37096774193548,1.39032258064516,1.37741935483871,1.39032258064516,1.39032258064516,1.38709677419355,1.39354838709677,1.39354838709677,1.39354838709677,1.4,1.4,1.40322580645161,1.41612903225806,1.4258064516129,1.42258064516129,1.43548387096774,1.43870967741935,1.46129032258065,1.46774193548387,1.47741935483871,1.48387096774194,1.49032258064516,1.49354838709677,1.49354838709677,1.49354838709677,1.48387096774194,1.46774193548387,1.44516129032258,1.42903225806452,1.41935483870968,1.40967741935484,1.4,1.4,1.39032258064516,1.38709677419355,1.39032258064516,1.38387096774194,1.39032258064516,1.39032258064516,1.38064516129032,1.38387096774194,1.38387096774194,1.38064516129032,1.38387096774194,1.37741935483871,1.38709677419355,1.38387096774194,1.38387096774194,1.37741935483871,1.39032258064516,1.38387096774194,1.39032258064516,1.38709677419355,1.39677419354839,1.38387096774194,1.39354838709677,1.38387096774194,1.38709677419355,1.39354838709677,1.39032258064516,1.37741935483871,1.39032258064516,1.38387096774194,1.3741935483871,1.38387096774194,1.38709677419355,1.38709677419355,1.38709677419355,1.38064516129032,1.39032258064516,1.38387096774194,1.37741935483871,1.38387096774194,1.38064516129032,1.38387096774194,1.3741935483871,1.38064516129032,1.38387096774194,1.38709677419355,1.38387096774194,1.38709677419355,1.38387096774194,1.38387096774194,1.39032258064516,1.38709677419355,1.38709677419355,1.40322580645161,1.41290322580645,1.41935483870968,1.4258064516129,1.44193548387097,1.46451612903226,1.44193548387097,1.4258064516129,1.40322580645161,1.39677419354839,1.3741935483871,1.3741935483871,1.3741935483871,1.36774193548387,1.36774193548387,1.37741935483871,1.36451612903226,1.36451612903226,1.35806451612903,1.37096774193548,1.36451612903226,1.37096774193548,1.37741935483871,1.44838709677419,1.63548387096774,1.93225806451613,1.7258064516129,1.13870967741935,1.11612903225806,1.19032258064516,1.31612903225806,1.37741935483871,1.3741935483871,1.36774193548387,1.3741935483871,1.37096774193548,1.38709677419355,1.39032258064516,1.38064516129032,1.37741935483871,1.38709677419355,1.39032258064516,1.39354838709677,1.39032258064516,1.4,1.39677419354839,1.41612903225806,1.41612903225806,1.4258064516129,1.42903225806452,1.44516129032258,1.45806451612903,1.46129032258065,1.46774193548387,1.48064516129032,1.47741935483871,1.48064516129032,1.47741935483871,1.48064516129032,1.47096774193548,1.43548387096774,1.43548387096774,1.41612903225806,1.41612903225806,1.40967741935484,1.40322580645161,1.4,1.39032258064516,1.39032258064516,1.38387096774194,1.38709677419355,1.38387096774194,1.38709677419355,1.38387096774194,1.38387096774194,1.38064516129032,1.3741935483871,1.4,1.37741935483871,1.3741935483871,1.38064516129032,1.39032258064516,1.38709677419355,1.39032258064516,1.38387096774194,1.38709677419355,1.4,1.39677419354839,1.39354838709677,1.39032258064516,1.39032258064516,1.38387096774194,1.39354838709677,1.38064516129032,1.38387096774194,1.38387096774194,1.38709677419355,1.38709677419355,1.38387096774194,1.38387096774194,1.38709677419355,1.37741935483871,1.37741935483871,1.38064516129032,1.39354838709677,1.39032258064516,1.36774193548387,1.38064516129032,1.3741935483871,1.38709677419355,1.37741935483871,1.39354838709677,1.37741935483871,1.38387096774194,1.38387096774194,1.37741935483871,1.38387096774194,1.38709677419355,1.38709677419355,1.39677419354839,1.40967741935484,1.40645161290323,1.41290322580645,1.43225806451613,1.44838709677419,1.44838709677419,1.43548387096774,1.41935483870968,1.39677419354839,1.39677419354839,1.36774193548387,1.37741935483871,1.36451612903226,1.36451612903226,1.36774193548387,1.36774193548387,1.36774193548387,1.35483870967742,1.37096774193548,1.36451612903226,1.36774193548387,1.37096774193548,1.45161290322581,1.64838709677419,1.96774193548387,1.77741935483871,1.14193548387097,1.12903225806452,1.19677419354839,1.33225806451613,1.37096774193548,1.37741935483871,1.36774193548387,1.39032258064516,1.3741935483871,1.38064516129032,1.38709677419355,1.38387096774194,1.38387096774194,1.38387096774194,1.4,1.39354838709677,1.39677419354839,1.4,1.40645161290323,1.42258064516129,1.41290322580645,1.43548387096774,1.44193548387097,1.45483870967742,1.46451612903226,1.47741935483871,1.47096774193548,1.49032258064516,1.5,1.5,1.49354838709677,1.49354838709677,1.48064516129032,1.46451612903226,1.43548387096774,1.42903225806452,1.41935483870968,1.40322580645161,1.40322580645161,1.39354838709677,1.39677419354839,1.38709677419355,1.39354838709677,1.39032258064516,1.39032258064516,1.3741935483871,1.37741935483871,1.38064516129032,1.39354838709677,1.38387096774194,1.38387096774194,1.38064516129032,1.38709677419355,1.37741935483871,1.38064516129032,1.38387096774194,1.37741935483871,1.37741935483871,1.38387096774194,1.37741935483871,1.39032258064516,1.38709677419355,1.37741935483871,1.39354838709677,1.38387096774194,1.38064516129032,1.38064516129032,1.38709677419355,1.3741935483871,1.38387096774194,1.38387096774194,1.38709677419355,1.37741935483871,1.38064516129032,1.38064516129032,1.38387096774194,1.38387096774194,1.38387096774194,1.38709677419355,1.3741935483871,1.38064516129032,1.38387096774194,1.37741935483871,1.39032258064516,1.38064516129032,1.38064516129032,1.38387096774194,1.38064516129032,1.38064516129032,1.38387096774194,1.38064516129032,1.39032258064516,1.40322580645161,1.40322580645161,1.41290322580645,1.42903225806452,1.44838709677419,1.44193548387097,1.4258064516129,1.40645161290323,1.39677419354839,1.38709677419355,1.37096774193548,1.37096774193548,1.37096774193548,1.36774193548387,1.36451612903226,1.36774193548387,1.36451612903226,1.36129032258065,1.36129032258065,1.36451612903226,1.36774193548387,1.37741935483871,1.4258064516129,1.60322580645161,1.90645161290323,1.75806451612903,1.15161290322581,1.0741935483871,1.16774193548387,1.29032258064516,1.35483870967742,1.37096774193548,1.36774193548387,1.37096774193548,1.37741935483871,1.39032258064516,1.38064516129032,1.39032258064516,1.39032258064516,1.39032258064516,1.39354838709677,1.39677419354839,1.39677419354839,1.41290322580645,1.40967741935484,1.41935483870968,1.42258064516129,1.42903225806452,1.43548387096774,1.44838709677419,1.46451612903226,1.47096774193548,1.48064516129032,1.48064516129032,1.49354838709677,1.48709677419355,1.5,1.48709677419355,1.46774193548387,1.44838709677419,1.44516129032258,1.4258064516129,1.41612903225806,1.40645161290323,1.4,1.4,1.4,1.39677419354839,1.39677419354839,1.39677419354839,1.38709677419355,1.38064516129032,1.38387096774194,1.39032258064516,1.38064516129032,1.39354838709677,1.3741935483871,1.38387096774194,1.37741935483871,1.38064516129032,1.39032258064516,1.38709677419355,1.38387096774194,1.39032258064516,1.38709677419355,1.39354838709677,1.39354838709677,1.39677419354839,1.4,1.39354838709677,1.39354838709677,1.40322580645161,1.40322580645161,1.40645161290323,1.39677419354839,1.38709677419355,1.40645161290323,1.39354838709677,1.39354838709677,1.38709677419355,1.39354838709677,1.39032258064516,1.38387096774194,1.39354838709677,1.39354838709677,1.38709677419355,1.39677419354839,1.38064516129032,1.38064516129032,1.38709677419355,1.39032258064516,1.38064516129032,1.39677419354839,1.38387096774194,1.38387096774194,1.38709677419355,1.39354838709677,1.38709677419355,1.40645161290323,1.40322580645161,1.40967741935484,1.42258064516129,1.44193548387097,1.45483870967742,1.43548387096774,1.41935483870968,1.39677419354839,1.40322580645161,1.3741935483871,1.3741935483871,1.36774193548387,1.37096774193548,1.36451612903226,1.36451612903226,1.36129032258065,1.36451612903226,1.36129032258065,1.36774193548387,1.37096774193548,1.36774193548387,1.40322580645161,1.52258064516129,1.78709677419355,1.87741935483871,1.36774193548387,1.14193548387097,1.2,1.31612903225806,1.36451612903226,1.3741935483871,1.37096774193548,1.36451612903226,1.38387096774194,1.3741935483871,1.37741935483871,1.37741935483871,1.38064516129032,1.38064516129032,1.38064516129032,1.4,1.38709677419355,1.39354838709677,1.4,1.40322580645161,1.40645161290323,1.42258064516129,1.42258064516129,1.42903225806452,1.44516129032258,1.45483870967742,1.47096774193548,1.48387096774194,1.48064516129032,1.5,1.48387096774194,1.48709677419355,1.4741935483871,1.45806451612903,1.44193548387097,1.43225806451613,1.41935483870968,1.40645161290323,1.39677419354839,1.39354838709677,1.39032258064516,1.37741935483871,1.39677419354839,1.38709677419355,1.38387096774194,1.39032258064516,1.39032258064516,1.38387096774194,1.38709677419355,1.38387096774194,1.38064516129032,1.38709677419355,1.38709677419355,1.37741935483871,1.37741935483871,1.38709677419355,1.37741935483871,1.37741935483871,1.38709677419355,1.38387096774194,1.37741935483871,1.38387096774194,1.37741935483871,1.37741935483871,1.37741935483871,1.38387096774194,1.38064516129032,1.37741935483871,1.38709677419355,1.36451612903226,1.38064516129032,1.3741935483871,1.37096774193548,1.38709677419355,1.37741935483871,1.37096774193548,1.36774193548387,1.38064516129032,1.38387096774194,1.3741935483871,1.38064516129032,1.37096774193548,1.3741935483871,1.38387096774194,1.38387096774194,1.37741935483871,1.3741935483871,1.36774193548387,1.38709677419355,1.37096774193548,1.39032258064516,1.40967741935484,1.40322580645161,1.41290322580645,1.42903225806452,1.45483870967742,1.45483870967742,1.4258064516129,1.41612903225806,1.39032258064516,1.38064516129032,1.3741935483871,1.36451612903226,1.37741935483871,1.37741935483871,1.38064516129032,1.38387096774194,1.35483870967742,1.37096774193548,1.38064516129032,1.37096774193548,1.36451612903226,1.37741935483871,1.43225806451613,1.58387096774194,1.89677419354839,1.79354838709677,1.15806451612903,1.05161290322581,1.14516129032258,1.26774193548387,1.36451612903226,1.3741935483871,1.38709677419355,1.38387096774194,1.38387096774194,1.39032258064516,1.4,1.4,1.40322580645161,1.40645161290323,1.40967741935484,1.41290322580645,1.40645161290323,1.40645161290323,1.43548387096774,1.41935483870968,1.43870967741935,1.43870967741935,1.46129032258065,1.46451612903226,1.48387096774194,1.49032258064516,1.50322580645161,1.51290322580645,1.51612903225806,1.51935483870968,1.51612903225806,1.50322580645161,1.48709677419355,1.46129032258065,1.44838709677419,1.44516129032258,1.42258064516129,1.41290322580645,1.41290322580645,1.40645161290323,1.39677419354839,1.4,1.39354838709677,1.39354838709677,1.39032258064516,1.39032258064516,1.38064516129032,1.38709677419355,1.38064516129032,1.38064516129032,1.38709677419355,1.37741935483871,1.37741935483871,1.3741935483871,1.38064516129032,1.38387096774194,1.38709677419355,1.38709677419355,1.38709677419355,1.39032258064516,1.38387096774194,1.39354838709677,1.39354838709677,1.38709677419355,1.39032258064516,1.38709677419355,1.39032258064516,1.38064516129032,1.39032258064516,1.37741935483871,1.38709677419355,1.37741935483871,1.38064516129032,1.3741935483871,1.3741935483871,1.37741935483871,1.3741935483871,1.3741935483871,1.38064516129032,1.37741935483871,1.37741935483871,1.38709677419355,1.3741935483871,1.36774193548387,1.3741935483871,1.38064516129032,1.3741935483871,1.38064516129032,1.37741935483871,1.39032258064516,1.39354838709677,1.40645161290323,1.40645161290323,1.44193548387097,1.44838709677419,1.42903225806452,1.41612903225806,1.40967741935484,1.39032258064516,1.38387096774194,1.36451612903226,1.37096774193548,1.35806451612903,1.36451612903226,1.36129032258065,1.36451612903226,1.36129032258065,1.36129032258065,1.36129032258065,1.36451612903226,1.36451612903226,1.36774193548387,1.44193548387097,1.60645161290323,1.86774193548387,1.73870967741935,1.19677419354839,1.15806451612903,1.20967741935484,1.33548387096774,1.36451612903226,1.36451612903226,1.37096774193548,1.36774193548387,1.37741935483871,1.3741935483871,1.37741935483871,1.3741935483871,1.39032258064516,1.3741935483871,1.37096774193548,1.38387096774194,1.39032258064516,1.38709677419355,1.39354838709677,1.40322580645161,1.41290322580645,1.41612903225806,1.42903225806452,1.43870967741935,1.44838709677419,1.45483870967742,1.46129032258065,1.4741935483871,1.4741935483871,1.48709677419355,1.47741935483871,1.46774193548387,1.44516129032258,1.44838709677419,1.4258064516129,1.42258064516129,1.40322580645161,1.40967741935484,1.40967741935484,1.39354838709677,1.39677419354839,1.39032258064516,1.39032258064516,1.38387096774194,1.39677419354839,1.38709677419355,1.39677419354839,1.38064516129032,1.39354838709677,1.38387096774194,1.39354838709677,1.38709677419355,1.39354838709677,1.39032258064516,1.38709677419355,1.38709677419355,1.39677419354839,1.38709677419355,1.38387096774194,1.39032258064516,1.39677419354839,1.40322580645161,1.4,1.39032258064516,1.39354838709677,1.4,1.39354838709677,1.39677419354839,1.39677419354839,1.39677419354839,1.39032258064516,1.40322580645161,1.39677419354839,1.39354838709677,1.40322580645161,1.40645161290323,1.39032258064516,1.39354838709677,1.4,1.40322580645161,1.40322580645161,1.40322580645161,1.4,1.4,1.40322580645161,1.40322580645161,1.40645161290323,1.40967741935484,1.41612903225806
1.44838709677419,1.11612903225806,1.15161290322581,1.26129032258065,1.33870967741935,1.35161290322581,1.35161290322581,1.35483870967742,1.34838709677419,1.34516129032258,1.36774193548387,1.36774193548387,1.37096774193548,1.3741935483871,1.37741935483871,1.37741935483871,1.3741935483871,1.39032258064516,1.38064516129032,1.39354838709677,1.39677419354839,1.40645161290323,1.41612903225806,1.43225806451613,1.43548387096774,1.45806451612903,1.46129032258065,1.47096774193548,1.49354838709677,1.49677419354839,1.49354838709677,1.49354838709677,1.48387096774194,1.46774193548387,1.45483870967742,1.42903225806452,1.40967741935484,1.39354838709677,1.40645161290323,1.39677419354839,1.38709677419355,1.39354838709677,1.38387096774194,1.37741935483871,1.38709677419355,1.37741935483871,1.39677419354839,1.38064516129032,1.38387096774194,1.38709677419355,1.38064516129032,1.37741935483871,1.38387096774194,1.3741935483871,1.37741935483871,1.37741935483871,1.38387096774194,1.38064516129032,1.38709677419355,1.38709677419355,1.37741935483871,1.38064516129032,1.38709677419355,1.37096774193548,1.38387096774194,1.39032258064516,1.38709677419355,1.39032258064516,1.38387096774194,1.4,1.38709677419355,1.38387096774194,1.39032258064516,1.39677419354839,1.39032258064516,1.38064516129032,1.38064516129032,1.38064516129032,1.4,1.38064516129032,1.39354838709677,1.39032258064516,1.38064516129032,1.39354838709677,1.38709677419355,1.38709677419355,1.39032258064516,1.38387096774194,1.38387096774194,1.39354838709677,1.4,1.39677419354839,1.39354838709677,1.41290322580645,1.41290322580645,1.43548387096774,1.46129032258065,1.45483870967742,1.43870967741935,1.43225806451613,1.41290322580645,1.41290322580645,1.38709677419355,1.37741935483871,1.37741935483871,1.38709677419355,1.37096774193548,1.38387096774194,1.37741935483871,1.3741935483871,1.37741935483871,1.38387096774194,1.37096774193548,1.3741935483871,1.40645161290323,1.50967741935484,1.79032258064516,1.89032258064516,1.36129032258065,1.04838709677419,1.11290322580645,1.22903225806452,1.34193548387097,1.3741935483871,1.38387096774194,1.38064516129032,1.39354838709677,1.38709677419355,1.40645161290323,1.39677419354839,1.40645161290323,1.39677419354839,1.40967741935484,1.41290322580645,1.41612903225806,1.41612903225806,1.42258064516129,1.4258064516129,1.43225806451613,1.43870967741935,1.45161290322581,1.46129032258065,1.48064516129032,1.4741935483871,1.48709677419355,1.50322580645161,1.50322580645161,1.50967741935484,1.50967741935484,1.50645161290323,1.48387096774194,1.47741935483871,1.46129032258065,1.44516129032258,1.4258064516129,1.41290322580645,1.40645161290323,1.40645161290323,1.4,1.4,1.38709677419355,1.39354838709677,1.39354838709677,1.39032258064516,1.39032258064516,1.38387096774194,1.39354838709677,1.38387096774194,1.38709677419355,1.39032258064516,1.38387096774194,1.38387096774194,1.39032258064516,1.39354838709677,1.4,1.4,1.39677419354839,1.39354838709677,1.40322580645161,1.39354838709677,1.40322580645161,1.39354838709677,1.4,1.39032258064516,1.4,1.39677419354839,1.39677419354839,1.39677419354839,1.39032258064516,1.38064516129032,1.38709677419355,1.39032258064516,1.39032258064516,1.38709677419355,1.38709677419355,1.38064516129032,1.39032258064516,1.38387096774194,1.38064516129032,1.39032258064516,1.38387096774194,1.38387096774194,1.38387096774194,1.38064516129032,1.3741935483871,1.37741935483871,1.38064516129032,1.38064516129032,1.38064516129032,1.38387096774194,1.38709677419355,1.39354838709677,1.40645161290323,1.40645161290323,1.4258064516129,1.44193548387097,1.43870967741935,1.41612903225806,1.4,1.38709677419355,1.38387096774194,1.36129032258065,1.35483870967742,1.35161290322581,1.36774193548387,1.36129032258065,1.35806451612903,1.35483870967742,1.35483870967742,1.34838709677419,1.36129032258065,1.35483870967742,1.36129032258065,1.42258064516129,1.57096774193548,1.85806451612903,1.81935483870968,1.22903225806452,1.16774193548387,1.21290322580645,1.33870967741935,1.35483870967742,1.35806451612903,1.35483870967742,1.35483870967742,1.35806451612903,1.36129032258065,1.36129032258065,1.36451612903226,1.36774193548387,1.36774193548387,1.3741935483871,1.38064516129032,1.38064516129032,1.37741935483871,1.39032258064516,1.38387096774194,1.39354838709677,1.39677419354839,1.41290322580645,1.41935483870968,1.43225806451613,1.43548387096774,1.44838709677419,1.46129032258065,1.46451612903226,1.46451612903226,1.47096774193548,1.46774193548387,1.44516129032258,1.43870967741935,1.42258064516129,1.40645161290323,1.40322580645161,1.39354838709677,1.39032258064516,1.38709677419355,1.3741935483871,1.38064516129032,1.38064516129032,1.37741935483871,1.38064516129032,1.38387096774194,1.38064516129032,1.38064516129032,1.38064516129032,1.37741935483871,1.38064516129032,1.38387096774194,1.37741935483871,1.37741935483871,1.3741935483871,1.38709677419355,1.3741935483871,1.38064516129032,1.38064516129032,1.38387096774194,1.37741935483871,1.37741935483871,1.38064516129032,1.38064516129032,1.38064516129032,1.38387096774194,1.38709677419355,1.38709677419355,1.37096774193548,1.38709677419355,1.38709677419355,1.38387096774194,1.39032258064516,1.38709677419355,1.4,1.39677419354839,1.39677419354839,1.38709677419355,1.39354838709677,1.38387096774194,1.39354838709677,1.40322580645161,1.40322580645161,1.40322580645161,1.40967741935484,1.4,1.39677419354839,1.40322580645161,1.40645161290323,1.40967741935484,1.40322580645161,1.40322580645161,1.40322580645161,1.41935483870968,1.41935483870968,1.4258064516129,1.44193548387097,1.44516129032258,1.4741935483871,1.47096774193548,1.45806451612903,1.43870967741935,1.4258064516129,1.40967741935484,1.39677419354839,1.38064516129032,1.38709677419355,1.37741935483871,1.38064516129032,1.3741935483871,1.38709677419355,1.39032258064516,1.38387096774194,1.37741935483871,1.37741935483871,1.38387096774194,1.39032258064516,1.48387096774194,1.73548387096774,1.98387096774194,1.60322580645161,1.11290322580645,1.13548387096774,1.21290322580645,1.34838709677419,1.35806451612903,1.36129032258065,1.36451612903226,1.36774193548387,1.36129032258065,1.38709677419355,1.3741935483871,1.37741935483871,1.36774193548387,1.3741935483871,1.39032258064516,1.38387096774194,1.38709677419355,1.38064516129032,1.40645161290323,1.40322580645161,1.40645161290323,1.42258064516129,1.43548387096774,1.44193548387097,1.46129032258065,1.46129032258065,1.48064516129032,1.50322580645161,1.5,1.51290322580645,1.50645161290323,1.48387096774194,1.46774193548387,1.45483870967742,1.44838709677419,1.4258064516129,1.41935483870968,1.41935483870968,1.40967741935484,1.41935483870968,1.41290322580645,1.41612903225806,1.40645161290323,1.4,1.40322580645161,1.4,1.39032258064516,1.39354838709677,1.39677419354839,1.39354838709677,1.38709677419355,1.39677419354839,1.39032258064516,1.39032258064516,1.39032258064516,1.39354838709677,1.38387096774194,1.39354838709677,1.39032258064516,1.38709677419355,1.38709677419355,1.39354838709677,1.39354838709677,1.38709677419355,1.38387096774194,1.4,1.39354838709677,1.38709677419355,1.37741935483871,1.39354838709677,1.38709677419355,1.39032258064516,1.38709677419355,1.38064516129032,1.39032258064516,1.37741935483871,1.39032258064516,1.38709677419355,1.38064516129032,1.39354838709677,1.38709677419355,1.38387096774194,1.38387096774194,1.38387096774194,1.38709677419355,1.38064516129032,1.38064516129032,1.37741935483871,1.38387096774194,1.38387096774194,1.37741935483871,1.38387096774194,1.3741935483871,1.4,1.39677419354839,1.40322580645161,1.41612903225806,1.43225806451613,1.44193548387097,1.42903225806452,1.41612903225806,1.40322580645161,1.38387096774194,1.37096774193548,1.35161290322581,1.36129032258065,1.36451612903226,1.35806451612903,1.36129032258065,1.35806451612903,1.35806451612903,1.35161290322581,1.35483870967742,1.35806451612903,1.36451612903226,1.35483870967742,1.42258064516129,1.56129032258065,1.85483870967742,1.80322580645161,1.23548387096774,1.09354838709677,1.16774193548387,1.28387096774194,1.36129032258065,1.36451612903226,1.36774193548387,1.36451612903226,1.37741935483871,1.36774193548387,1.38064516129032,1.37741935483871,1.37741935483871,1.38064516129032,1.38064516129032,1.39032258064516,1.39032258064516,1.39354838709677,1.39354838709677,1.40322580645161,1.41612903225806,1.42258064516129,1.42903225806452,1.43870967741935,1.45483870967742,1.46774193548387,1.4741935483871,1.47741935483871,1.48709677419355,1.49677419354839,1.48709677419355,1.49032258064516,1.46774193548387,1.44838709677419,1.42903225806452,1.42903225806452,1.41935483870968,1.40967741935484,1.40967741935484,1.39032258064516,1.39032258064516,1.39354838709677,1.39032258064516,1.38709677419355,1.39032258064516,1.37741935483871,1.38387096774194,1.38387096774194,1.38064516129032,1.37741935483871,1.38709677419355,1.38064516129032,1.38709677419355,1.37741935483871,1.3741935483871,1.37741935483871,1.38387096774194,1.39354838709677,1.39354838709677,1.38064516129032,1.40322580645161,1.39032258064516,1.39677419354839,1.39354838709677,1.39354838709677,1.39354838709677,1.38387096774194,1.38387096774194,1.38709677419355,1.38709677419355,1.38387096774194,1.38387096774194,1.38064516129032,1.38387096774194,1.38709677419355,1.38709677419355,1.38387096774194,1.38709677419355,1.39032258064516,1.37741935483871,1.39354838709677,1.38064516129032,1.37096774193548,1.38709677419355,1.38709677419355,1.38709677419355,1.38709677419355,1.39032258064516,1.39354838709677,1.37741935483871,1.38387096774194,1.38387096774194,1.39354838709677,1.38064516129032,1.40645161290323,1.40322580645161,1.40967741935484,1.42258064516129,1.43870967741935,1.45161290322581,1.44193548387097,1.42258064516129,1.40967741935484,1.4,1.39354838709677,1.37096774193548,1.36774193548387,1.3741935483871,1.37096774193548,1.37096774193548,1.37096774193548,1.36129032258065,1.37741935483871,1.37096774193548,1.3741935483871,1.35483870967742,1.3741935483871,1.43870967741935,1.59354838709677,1.87096774193548,1.8258064516129,1.24193548387097,1.18064516129032,1.23548387096774,1.35161290322581,1.38064516129032,1.38064516129032,1.38064516129032,1.3741935483871,1.38709677419355,1.38387096774194,1.38064516129032,1.38709677419355,1.40322580645161,1.38387096774194,1.39354838709677,1.40645161290323,1.4,1.40967741935484,1.40645161290323,1.41612903225806,1.41935483870968,1.42903225806452,1.42903225806452,1.44193548387097,1.45161290322581,1.46451612903226,1.46774193548387,1.48709677419355,1.48709677419355,1.48387096774194,1.48387096774194,1.48709677419355,1.46129032258065,1.44193548387097,1.43548387096774,1.41935483870968,1.41612903225806,1.40645161290323,1.39354838709677,1.39032258064516,1.39032258064516,1.38709677419355,1.38064516129032,1.38709677419355,1.38709677419355,1.39032258064516,1.38387096774194,1.38709677419355,1.39032258064516,1.37741935483871,1.38064516129032,1.39032258064516,1.38387096774194,1.3741935483871,1.38064516129032,1.3741935483871,1.38387096774194,1.38387096774194,1.38387096774194,1.37096774193548,1.39354838709677,1.3741935483871,1.38064516129032,1.38709677419355,1.38387096774194,1.38064516129032,1.39677419354839,1.38709677419355,1.38387096774194,1.38709677419355,1.37096774193548,1.38387096774194,1.38709677419355,1.38709677419355,1.38064516129032,1.38709677419355,1.38064516129032,1.38387096774194,1.38387096774194,1.38064516129032,1.37741935483871,1.39032258064516,1.37741935483871,1.39032258064516,1.38387096774194,1.38709677419355,1.38064516129032,1.38064516129032,1.38709677419355,1.38064516129032,1.38387096774194,1.39032258064516,1.37741935483871,1.39032258064516,1.39032258064516,1.39354838709677,1.40322580645161,1.40645161290323,1.41290322580645,1.42903225806452,1.44838709677419,1.45161290322581,1.44193548387097,1.42258064516129,1.42258064516129,1.4,1.3741935483871,1.3741935483871,1.36451612903226,1.37096774193548,1.36129032258065,1.37096774193548,1.3741935483871,1.36451612903226,1.3741935483871,1.36774193548387,1.37096774193548,1.37096774193548,1.38064516129032,1.47741935483871,1.69032258064516,1.94838709677419,1.63870967741935,1.1741935483871,1.18387096774194,1.28064516129032,1.37096774193548,1.38387096774194,1.37741935483871,1.37741935483871,1.37741935483871,1.38387096774194,1.38064516129032,1.38387096774194,1.38387096774194,1.39354838709677,1.39032258064516,1.39354838709677,1.39354838709677,1.39677419354839,1.39354838709677,1.40967741935484,1.40645161290323,1.41612903225806,1.43225806451613,1.43225806451613,1.44516129032258,1.46129032258065,1.47096774193548,1.46774193548387,1.48709677419355,1.48709677419355,1.49677419354839,1.49032258064516,1.48387096774194,1.46451612903226,1.45161290322581,1.43548387096774,1.42903225806452,1.41290322580645,1.39677419354839,1.39677419354839,1.39354838709677,1.38064516129032,1.39354838709677,1.39032258064516,1.38387096774194,1.38064516129032,1.38387096774194,1.38064516129032,1.38709677419355,1.38387096774194,1.38387096774194,1.38064516129032,1.36774193548387,1.38064516129032,1.37741935483871,1.38064516129032,1.3741935483871,1.37741935483871,1.37096774193548,1.39032258064516,1.3741935483871,1.37741935483871,1.38387096774194,1.37741935483871,1.38064516129032,1.37096774193548,1.38064516129032,1.38064516129032,1.39032258064516,1.3741935483871,1.36774193548387,1.37096774193548,1.37741935483871,1.37741935483871,1.37096774193548,1.3741935483871,1.39032258064516,1.37096774193548,1.3741935483871,1.36774193548387,1.36774193548387,1.37096774193548,1.38064516129032,1.37096774193548,1.37741935483871,1.38387096774194,1.3741935483871,1.3741935483871,1.37741935483871,1.3741935483871,1.38064516129032,1.3741935483871,1.37741935483871,1.35806451612903,1.38064516129032,1.38064516129032,1.38709677419355,1.39354838709677,1.4,1.40967741935484,1.42258064516129,1.44193548387097,1.46774193548387,1.44193548387097,1.42258064516129,1.4258064516129,1.4,1.38387096774194,1.36451612903226,1.3741935483871,1.36451612903226,1.36774193548387,1.36774193548387,1.35806451612903,1.3741935483871,1.36451612903226,1.36451612903226,1.36774193548387,1.36451612903226,1.36774193548387,1.43548387096774,1.60645161290323,1.93225806451613,1.80322580645161,1.13548387096774,1.04193548387097,1.13548387096774,1.26451612903226,1.36129032258065,1.38064516129032,1.38387096774194,1.36774193548387,1.37741935483871,1.37096774193548,1.38709677419355,1.38387096774194,1.38709677419355,1.39677419354839,1.39354838709677,1.4,1.40967741935484,1.41290322580645,1.41935483870968,1.43225806451613,1.43225806451613,1.43548387096774,1.45483870967742,1.45806451612903,1.46774193548387,1.49032258064516,1.49032258064516,1.50322580645161,1.51290322580645,1.51612903225806,1.50645161290323,1.52258064516129,1.49677419354839,1.48064516129032,1.45161290322581,1.44193548387097,1.4258064516129,1.41935483870968,1.40967741935484,1.40645161290323,1.4,1.39354838709677,1.39354838709677,1.39677419354839,1.39354838709677,1.38709677419355,1.38387096774194,1.39032258064516,1.38709677419355,1.39032258064516,1.3741935483871,1.38387096774194,1.39677419354839,1.38709677419355,1.39032258064516,1.39677419354839,1.4,1.39032258064516,1.40322580645161,1.4,1.4,1.4,1.40322580645161,1.39354838709677,1.4,1.39354838709677,1.39354838709677,1.39354838709677,1.39677419354839,1.39354838709677,1.38064516129032,1.39354838709677,1.39354838709677,1.39354838709677,1.38709677419355,1.38709677419355,1.39354838709677,1.39032258064516,1.38709677419355,1.39032258064516,1.38387096774194,1.38387096774194,1.38387096774194,1.3741935483871,1.38709677419355,1.37741935483871,1.38064516129032,1.38387096774194,1.38709677419355,1.37741935483871,1.39032258064516,1.40322580645161,1.40322580645161,1.41612903225806,1.4258064516129,1.44838709677419,1.45483870967742,1.43870967741935,1.42258064516129,1.40645161290323,1.38387096774194,1.3741935483871,1.38064516129032,1.3741935483871,1.3741935483871,1.36774193548387,1.36774193548387,1.36451612903226,1.36774193548387,1.37096774193548,1.36774193548387,1.37741935483871,1.36774193548387,1.3741935483871,1.46129032258065,1.65483870967742,1.93225806451613,1.68064516129032,1.13870967741935,1.12258064516129,1.2,1.3258064516129,1.37096774193548,1.36774193548387,1.37096774193548,1.36774193548387,1.3741935483871,1.38387096774194,1.37741935483871,1.38387096774194,1.38064516129032,1.39354838709677,1.39032258064516,1.39032258064516,1.39354838709677,1.4,1.4,1.40322580645161,1.41612903225806,1.41612903225806,1.42258064516129,1.44193548387097,1.45161290322581,1.46129032258065,1.46129032258065,1.47096774193548,1.48387096774194,1.48387096774194,1.47741935483871,1.47096774193548,1.46451612903226,1.43870967741935,1.42903225806452,1.41612903225806,1.40645161290323,1.39677419354839,1.39354838709677,1.38709677419355,1.38709677419355,1.37741935483871,1.38387096774194,1.37741935483871,1.38387096774194,1.37741935483871,1.37741935483871,1.36774193548387,1.3741935483871,1.37096774193548,1.37096774193548,1.37096774193548,1.36774193548387,1.37741935483871,1.37741935483871,1.3741935483871,1.3741935483871,1.38064516129032,1.37096774193548,1.38387096774194,1.3741935483871,1.38387096774194,1.37741935483871,1.38709677419355,1.37741935483871,1.38064516129032,1.3741935483871,1.38064516129032,1.37096774193548,1.3741935483871,1.38064516129032,1.38064516129032,1.3741935483871,1.38064516129032,1.37741935483871,1.3741935483871,1.37096774193548,1.37096774193548,1.37741935483871,1.37096774193548,1.3741935483871,1.37741935483871,1.37741935483871,1.37741935483871,1.3741935483871,1.3741935483871,1.38387096774194,1.37741935483871,1.38387096774194,1.3741935483871,1.39032258064516,1.4,1.40322580645161,1.41935483870968,1.42903225806452,1.44193548387097,1.45483870967742,1.42903225806452,1.42258064516129,1.40645161290323,1.39677419354839,1.37741935483871,1.36774193548387,1.3741935483871,1.37096774193548,1.37741935483871,1.3741935483871,1.3741935483871,1.37096774193548,1.38064516129032,1.37741935483871,1.3741935483871,1.38064516129032,1.41290322580645,1.51290322580645,1.78387096774194,1.89677419354839,1.44193548387097,1.16774193548387,1.21935483870968,1.32903225806452,1.38064516129032,1.38387096774194,1.38387096774194,1.38064516129032,1.38709677419355,1.38387096774194,1.39354838709677,1.4,1.39354838709677,1.39354838709677,1.40967741935484,1.4,1.39677419354839,1.41935483870968,1.40645161290323,1.41612903225806,1.42903225806452,1.43225806451613,1.43870967741935,1.45483870967742,1.45161290322581,1.47741935483871,1.4741935483871,1.49032258064516,1.49032258064516,1.49677419354839,1.5,1.49677419354839,1.48709677419355,1.46451612903226,1.45806451612903,1.43548387096774,1.42903225806452,1.41612903225806,1.40322580645161,1.4,1.39677419354839,1.39677419354839,1.39032258064516,1.38709677419355,1.39032258064516,1.38709677419355,1.39032258064516,1.38709677419355,1.38387096774194,1.38064516129032,1.38709677419355,1.3741935483871,1.38387096774194,1.38387096774194,1.38064516129032,1.3741935483871,1.38064516129032,1.37741935483871,1.37741935483871,1.38064516129032,1.37741935483871,1.38064516129032,1.38064516129032,1.37741935483871,1.37741935483871,1.3741935483871,1.38387096774194,1.38387096774194,1.3741935483871,1.37741935483871,1.3741935483871,1.39354838709677,1.38064516129032,1.38387096774194,1.38064516129032,1.38709677419355,1.37096774193548,1.38387096774194,1.38387096774194,1.38387096774194,1.39032258064516,1.38709677419355,1.38387096774194,1.39032258064516,1.38064516129032,1.39354838709677,1.38064516129032,1.38064516129032,1.39032258064516,1.39354838709677,1.4,1.39032258064516,1.39677419354839,1.4,1.40645161290323,1.41612903225806,1.42258064516129,1.44193548387097,1.46129032258065,1.46451612903226,1.44193548387097,1.42258064516129,1.40967741935484,1.39677419354839,1.37096774193548,1.36451612903226,1.36774193548387,1.38387096774194,1.36451612903226,1.36129032258065,1.35483870967742,1.35806451612903,1.35483870967742,1.35161290322581,1.35483870967742,1.36129032258065,1.39354838709677,1.51612903225806,1.82903225806452,1.89032258064516,1.32903225806452,1.06774193548387,1.14193548387097,1.25806451612903,1.35161290322581,1.35483870967742,1.35483870967742,1.37096774193548,1.36774193548387,1.36774193548387,1.36451612903226,1.37741935483871,1.3741935483871,1.37741935483871,1.38387096774194,1.38709677419355,1.38709677419355,1.39677419354839,1.39354838709677,1.40645161290323,1.41290322580645,1.41612903225806,1.4258064516129,1.44516129032258,1.44838709677419,1.47096774193548,1.4741935483871,1.4741935483871,1.49677419354839,1.50322580645161,1.5,1.48387096774194,1.47741935483871,1.45161290322581,1.43870967741935,1.41935483870968,1.40645161290323,1.39677419354839,1.39677419354839,1.3741935483871,1.38064516129032,1.3741935483871,1.37096774193548,1.36774193548387,1.36774193548387,1.36451612903226,1.36774193548387,1.36129032258065,1.35483870967742,1.35161290322581
