1.32451171875,1.3083984375,1.31162109375,1.30517578125,1.2890625,1.2955078125,1.31162109375,1.31806640625,1.3212890625,1.3212890625,1.3212890625,1.327734375,1.33740234375,1.33740234375,1.327734375,1.3341796875,1.3470703125,1.3470703125,1.34384765625,1.35029296875,1.3599609375,1.36318359375,1.36640625,1.36640625,1.379296875,1.40185546875,1.42119140625,1.430859375,1.42763671875,1.405078125,1.36640625,1.3470703125,1.35673828125,1.36318359375,1.353515625,1.34384765625,1.340625,1.35029296875,1.3599609375,1.3341796875,1.31484375,1.51142578125,1.920703125,2.049609375,1.559765625,0.98291015625,1.0119140625,1.405078125,1.5275390625,1.3986328125,1.36962890625,1.430859375,1.4244140625,1.40830078125,1.44375,1.45986328125,1.44375,1.44052734375,1.45341796875,1.47275390625,1.49208984375,1.49853515625,1.49853515625,1.51142578125,1.55009765625,1.58232421875,1.58876953125,1.5919921875,1.5984375,1.59521484375,1.57587890625,1.55009765625,1.51787109375,1.4888671875,1.45986328125,1.4244140625,1.36962890625,1.32451171875,1.31806640625,1.32451171875,1.32451171875,1.31162109375,1.30517578125,1.3083984375,1.3083984375,1.3083984375,1.31484375,1.3212890625,1.3212890625,1.3212890625,1.33095703125,1.340625,1.340625,1.33740234375,1.34384765625,1.353515625,1.3599609375,1.353515625,1.353515625,1.379296875,1.40185546875,1.3986328125,1.3921875,1.39541015625,1.38251953125,1.3470703125,1.327734375,1.327734375,1.327734375,1.32451171875,1.3212890625,1.31162109375,1.31484375,1.3212890625,1.2890625,1.28583984375,1.546875,1.99482421875,2.06572265625,1.4953125,0.92490234375,1.00546875,1.3986328125,1.4759765625,1.33740234375,1.34384765625,1.41796875,1.3986328125,1.36318359375,1.3921875,1.41796875,1.41474609375,1.4115234375,1.41796875,1.430859375,1.4501953125,1.46953125,1.482421875,1.49853515625,1.51142578125,1.53076171875,1.5533203125,1.56943359375,1.56943359375,1.559765625,1.55009765625,1.53076171875,1.49853515625,1.4630859375,1.4244140625,1.379296875,1.34384765625,1.31806640625,1.29873046875,1.2890625,1.29228515625,1.301953125,1.30517578125,1.29228515625,1.2890625,1.301953125,1.31484375,1.3212890625,1.3212890625,1.327734375,1.33095703125,1.33095703125,1.33740234375,1.3470703125,1.353515625,1.3470703125,1.34384765625,1.36318359375,1.3857421875,1.40185546875,1.4115234375,1.40830078125,1.38251953125,1.3470703125,1.327734375,1.32451171875,1.3212890625,1.3212890625,1.31806640625,1.31162109375,1.31484375,1.3341796875,1.3083984375,1.2826171875,1.49208984375,1.94326171875,2.10439453125,1.59521484375,0.9732421875,0.9796875,1.36318359375,1.4759765625,1.353515625,1.36318359375,1.43408203125,1.40185546875,1.36962890625,1.405078125,1.42763671875,1.41474609375,1.41474609375,1.4244140625,1.44052734375,1.46630859375,1.49208984375,1.5017578125,1.50498046875,1.52109375,1.5404296875,1.55654296875,1.5662109375,1.56298828125,1.55009765625,1.546875,1.54365234375,1.51787109375,1.46953125,1.42119140625,1.38251953125,1.353515625,1.32451171875,1.3083984375,1.301953125,1.2955078125,1.29228515625,1.29873046875,1.3083984375,1.301953125,1.2955078125,1.3083984375,1.32451171875,1.327734375,1.31484375,1.31162109375,1.327734375,1.34384765625,1.35029296875,1.353515625,1.36318359375,1.3728515625,1.3857421875,1.38896484375,1.39541015625,1.405078125,1.3986328125,1.353515625,1.31162109375,1.31806640625,1.340625,1.33740234375,1.3083984375,1.29228515625,1.301953125,1.33095703125,1.31806640625,1.26328125,1.38896484375,1.82724609375,2.1205078125,1.72734375,1.03125,0.89267578125,1.2890625,1.50498046875,1.39541015625,1.3470703125,1.42119140625,1.42119140625,1.37607421875,1.39541015625,1.4244140625,1.41796875,1.41474609375,1.43408203125,1.45341796875,1.456640625,1.46953125,1.49208984375,1.5146484375,1.53076171875,1.546875,1.5662109375,1.5791015625,1.58232421875,1.57587890625,1.5662109375,1.546875,1.51787109375,1.49208984375,1.45986328125,1.41796875,1.37607421875,1.340625,1.31806640625,1.3083984375,1.30517578125,1.301953125,1.301953125,1.30517578125,1.3083984375,1.31162109375,1.31484375,1.327734375,1.33740234375,1.33740234375,1.327734375,1.32451171875,1.340625,1.3599609375,1.36318359375,1.36962890625,1.38896484375,1.39541015625,1.38896484375,1.3921875,1.3921875,1.353515625,1.31162109375,1.31806640625,1.3470703125,1.35029296875,1.33095703125,1.31484375,1.31162109375,1.32451171875,1.31162109375,1.25361328125,1.33095703125,1.72412109375,2.101171875,1.85947265625,1.15693359375,0.84755859375,1.173046875,1.48564453125,1.43408203125,1.3470703125,1.405078125,1.42763671875,1.3857421875,1.38896484375,1.42119140625,1.430859375,1.42763671875,1.43408203125,1.4373046875,1.4501953125,1.46630859375,1.482421875,1.50498046875,1.52431640625,1.53720703125,1.5533203125,1.57265625,1.57587890625,1.56943359375,1.559765625,1.55654296875,1.53720703125,1.49853515625,1.45341796875,1.4115234375,1.37607421875,1.34384765625,1.3212890625,1.31162109375,1.301953125,1.2955078125,1.29873046875,1.30517578125,1.301953125,1.29228515625,1.29228515625,1.31162109375,1.33095703125,1.327734375,1.32451171875,1.33740234375,1.353515625,1.35029296875,1.34384765625,1.3470703125,1.36640625,1.38251953125,1.38251953125,1.38896484375,1.40830078125,1.3986328125,1.35029296875,1.31162109375,1.31806640625,1.3341796875,1.327734375,1.31806640625,1.31162109375,1.30517578125,1.31484375,1.31484375,1.2697265625,1.3341796875,1.69833984375,2.08505859375,1.90458984375,1.2310546875,0.8958984375,1.18916015625,1.4888671875,1.41796875,1.31484375,1.37607421875,1.40830078125,1.37607421875,1.3921875,1.42763671875,1.42119140625,1.40830078125,1.42763671875,1.44375,1.44052734375,1.44697265625,1.47275390625,1.5017578125,1.51787109375,1.5275390625,1.54365234375,1.56298828125,1.56943359375,1.5662109375,1.55654296875,1.5404296875,1.51787109375,1.48564453125,1.44697265625,1.40830078125,1.36962890625,1.33740234375,1.31484375,1.30517578125,1.301953125,1.29873046875,1.29873046875,1.30517578125,1.31162109375,1.31162109375,1.31806640625,1.33095703125,1.33740234375,1.32451171875,1.31484375,1.32451171875,1.340625,1.35029296875,1.35029296875,1.3470703125,1.3599609375,1.38251953125,1.3921875,1.3986328125,1.40830078125,1.40830078125,1.379296875,1.340625,1.32451171875,1.32451171875,1.327734375,1.33095703125,1.340625,1.33095703125,1.31484375,1.31484375,1.29873046875,1.2955078125,1.5017578125,1.9400390625,2.08828125,1.57265625,0.94423828125,0.97001953125,1.3921875,1.5017578125,1.340625,1.3341796875,1.42763671875,1.4115234375,1.36962890625,1.3986328125,1.41796875,1.405078125,1.4115234375,1.44697265625,1.4630859375,1.45986328125,1.46630859375,1.4888671875,1.508203125,1.52109375,1.533984375,1.55654296875,1.57587890625,1.5791015625,1.56298828125,1.54365234375,1.52109375,1.4953125,1.46630859375,1.4373046875,1.39541015625,1.35673828125,1.33095703125,1.3212890625,1.31162109375,1.301953125,1.301953125,1.3083984375,1.3083984375,1.301953125,1.30517578125,1.32451171875,1.33740234375,1.32451171875,1.31162109375,1.32451171875,1.33740234375,1.3341796875,1.33740234375,1.35029296875,1.35673828125,1.36318359375,1.37607421875,1.38896484375,1.39541015625,1.40185546875,1.39541015625,1.3728515625,1.353515625,1.33740234375,1.3212890625,1.31484375,1.327734375,1.340625,1.31806640625,1.301953125,1.327734375,1.3341796875,1.29228515625,1.42119140625,1.83369140625,2.075390625,1.65322265625,0.98291015625,0.8958984375,1.30517578125,1.50498046875,1.3986328125,1.36640625,1.44052734375,1.43408203125,1.38896484375,1.40185546875,1.42119140625,1.42119140625,1.430859375,1.44697265625,1.45341796875,1.45986328125,1.47919921875,1.49853515625,1.508203125,1.52109375,1.54365234375,1.5662109375,1.57587890625,1.57265625,1.57265625,1.559765625,1.53720703125,1.51787109375,1.4953125,1.4501953125,1.3921875,1.36318359375,1.3470703125,1.32451171875,1.29873046875,1.2890625,1.29228515625,1.2955078125,1.30517578125,1.31162109375,1.31484375,1.31162109375,1.31162109375,1.3212890625,1.3341796875,1.340625,1.33740234375,1.34384765625,1.35673828125,1.35673828125,1.353515625,1.3599609375,1.38251953125,1.3986328125,1.405078125,1.40830078125,1.40185546875,1.36962890625,1.33740234375,1.327734375,1.3341796875,1.33740234375,1.33095703125,1.31806640625,1.31806640625,1.33740234375,1.32451171875,1.26328125,1.340625,1.72734375,2.08505859375,1.84013671875,1.1666015625,0.88623046875,1.2052734375,1.4888671875,1.42763671875,1.3470703125,1.40830078125,1.42763671875,1.38251953125,1.3857421875,1.41474609375,1.41796875,1.42119140625,1.43408203125,1.44375,1.4501953125,1.47275390625,1.4953125,1.5017578125,1.508203125,1.5275390625,1.5533203125,1.5662109375,1.55654296875,1.55009765625,1.546875,1.54365234375,1.52431640625,1.49208984375,1.45341796875,1.4115234375,1.36640625,1.33095703125,1.31162109375,1.2955078125,1.2890625,1.2890625,1.301953125,1.3083984375,1.31162109375,1.3083984375,1.30517578125,1.3083984375,1.31806640625,1.33095703125,1.340625,1.340625,1.33095703125,1.32451171875,1.33740234375,1.353515625,1.3599609375,1.3599609375,1.36962890625,1.379296875,1.3921875,1.40185546875,1.39541015625,1.3599609375,1.327734375,1.32451171875,1.33740234375,1.33740234375,1.32451171875,1.3083984375,1.3083984375,1.3341796875,1.3341796875,1.27294921875,1.2955078125,1.6306640625,2.0689453125,1.998046875,1.353515625,0.90234375,1.10859375,1.456640625,1.456640625,1.33740234375,1.36962890625,1.41474609375,1.38251953125,1.379296875,1.405078125,1.40185546875,1.40185546875,1.4244140625,1.44052734375,1.44052734375,1.456640625,1.482421875,1.4953125,1.49853515625,1.5146484375,1.54365234375,1.559765625,1.559765625,1.546875,1.5404296875,1.54365234375,1.533984375,1.49853515625,1.45341796875,1.4115234375,1.379296875,1.34384765625,1.3212890625,1.31484375,1.30517578125,1.29228515625,1.29873046875,1.32451171875,1.340625,1.33095703125,1.31806640625,1.31806640625,1.327734375,1.33095703125,1.33740234375,1.3470703125,1.340625,1.327734375,1.32451171875,1.3470703125,1.36962890625,1.3728515625,1.36640625,1.3728515625,1.3857421875,1.40185546875,1.4115234375,1.41474609375,1.3921875,1.353515625,1.327734375,1.327734375,1.340625,1.353515625,1.3470703125,1.3212890625,1.31806640625,1.34384765625,1.3212890625,1.276171875,1.44697265625,1.89169921875,2.1076171875,1.65966796875,1.018359375,0.95390625,1.340625,1.5017578125,1.36962890625,1.33095703125,1.41474609375,1.42763671875,1.3921875,1.40830078125,1.430859375,1.41796875,1.41474609375,1.44697265625,1.4759765625,1.47275390625,1.4630859375,1.482421875,1.51787109375,1.533984375,1.54365234375,1.559765625,1.5662109375,1.5662109375,1.5662109375,1.56298828125,1.5404296875,1.49853515625,1.456640625,1.42763671875,1.39541015625,1.3599609375,1.33095703125,1.31484375,1.3083984375,1.30517578125,1.29873046875,1.301953125,1.31806640625,1.3212890625,1.3083984375,1.29873046875,1.31484375,1.3341796875,1.3341796875,1.327734375,1.32451171875,1.327734375,1.33095703125,1.3341796875,1.33740234375,1.340625,1.35029296875,1.35673828125,1.36318359375,1.3728515625,1.38251953125,1.3921875,1.4115234375,1.4115234375,1.379296875,1.340625,1.327734375,1.33095703125,1.327734375,1.32451171875,1.32451171875,1.31806640625,1.3212890625,1.33095703125,1.30517578125,1.2890625,1.51142578125,1.95615234375,2.08828125,1.54365234375,0.9216796875,0.95712890625,1.3728515625,1.4953125,1.3728515625,1.36962890625,1.42763671875,1.3986328125,1.3857421875,1.42763671875,1.43408203125,1.4115234375,1.42119140625,1.44375,1.45341796875,1.4630859375,1.482421875,1.49853515625,1.51142578125,1.52109375,1.5404296875,1.5662109375,1.5791015625,1.57587890625,1.5662109375,1.55654296875,1.53720703125,1.50498046875,1.46953125,1.44052734375,1.405078125,1.3599609375,1.32451171875,1.3083984375,1.301953125,1.29228515625,1.28583984375,1.301953125,1.31484375,1.31484375,1.31162109375,1.31484375,1.31806640625,1.3212890625,1.327734375,1.327734375,1.33095703125,1.3341796875,1.3341796875,1.327734375,1.3341796875,1.34384765625,1.340625,1.33740234375,1.35029296875,1.37607421875,1.3857421875,1.38896484375,1.40185546875,1.40830078125,1.38896484375,1.340625,1.31806640625,1.33095703125,1.340625,1.33095703125,1.33095703125,1.327734375,1.32451171875,1.32451171875,1.30517578125,1.2955078125,1.49853515625,1.93681640625,2.09150390625,1.5662109375,0.93779296875,0.96357421875,1.379296875,1.50498046875,1.37607421875,1.36962890625,1.43408203125,1.405078125,1.379296875,1.41796875,1.44052734375,1.42763671875,1.4373046875,1.456640625,1.4630859375,1.46953125,1.4888671875,1.50498046875,1.51787109375,1.533984375,1.55009765625,1.56298828125,1.57265625,1.5791015625,1.57587890625,1.56298828125,1.55009765625,1.5275390625,1.482421875,1.430859375,1.39541015625,1.36640625,1.327734375,1.29873046875,1.2955078125,1.29873046875,1.29228515625,1.2890625,1.29873046875,1.301953125,1.301953125,1.31806640625,1.33095703125,1.32451171875,1.31806640625,1.3341796875,1.3470703125,1.34384765625,1.33095703125,1.327734375,1.3341796875,1.35029296875,1.353515625,1.3470703125,1.353515625,1.3728515625,1.3921875,1.40185546875,1.4115234375,1.41474609375,1.3921875,1.3599609375,1.340625,1.33740234375,1.3341796875,1.3341796875,1.33095703125,1.3212890625,1.33095703125,1.3470703125,1.31484375,1.27939453125,1.4630859375,1.9013671875,2.101171875,1.64677734375,1.00546875,0.95712890625,1.34384765625,1.4888671875,1.35029296875,1.33740234375,1.43408203125,1.430859375,1.38896484375,1.405078125,1.4244140625,1.41474609375,1.4244140625,1.44052734375,1.44375,1.44375,1.45986328125,1.482421875,1.508203125,1.53720703125,1.5533203125,1.55654296875,1.559765625,1.57265625,1.57265625,1.559765625,1.533984375,1.50498046875,1.46953125,1.430859375,1.39541015625,1.36318359375,1.3341796875,1.3083984375,1.29873046875,1.3083984375,1.31806640625,1.3212890625,1.31162109375,1.3083984375,1.31484375,1.327734375,1.3341796875,1.32451171875,1.32451171875,1.327734375,1.32451171875,1.32451171875,1.33740234375,1.3470703125,1.3470703125,1.34384765625,1.35029296875,1.3599609375,1.3599609375,1.3599609375,1.3728515625,1.38896484375,1.3986328125,1.41474609375,1.43408203125,1.41474609375,1.36640625,1.33740234375,1.34384765625,1.34384765625,1.327734375,1.31806640625,1.32451171875,1.340625,1.35029296875,1.31484375,1.26650390625,1.38896484375,1.79501953125,2.09150390625,1.77890625,1.1150390625,0.915234375,1.26650390625,1.5017578125,1.39541015625,1.32451171875,1.3986328125,1.42119140625,1.38251953125,1.39541015625,1.42119140625,1.41474609375,1.41796875,1.43408203125,1.44375,1.456640625,1.47919921875,1.482421875,1.48564453125,1.5146484375,1.54365234375,1.55009765625,1.55654296875,1.57265625,1.5791015625,1.56298828125,1.53720703125,1.51142578125,1.4759765625,1.430859375,1.38896484375,1.35673828125,1.340625,1.32451171875,1.30517578125,1.28583984375,1.2890625,1.3083984375,1.31162109375,1.301953125,1.29873046875,1.30517578125,1.3083984375,1.30517578125,1.3083984375,1.3212890625,1.33095703125,1.327734375,1.32451171875,1.327734375,1.327734375,1.32451171875,1.327734375,1.34384765625,1.35673828125,1.35673828125,1.35673828125,1.3728515625,1.3986328125,1.40830078125,1.40830078125,1.40185546875,1.379296875,1.35029296875,1.34384765625,1.34384765625,1.3341796875,1.33095703125,1.33095703125,1.31484375,1.31484375,1.3341796875,1.3083984375,1.276171875,1.4953125,1.95615234375,2.101171875,1.55654296875,0.928125,0.95712890625,1.3728515625,1.5017578125,1.379296875,1.3728515625,1.4373046875,1.41474609375,1.3921875,1.42763671875,1.44375,1.430859375,1.44052734375,1.45986328125,1.46953125,1.47275390625,1.48564453125,1.50498046875,1.52109375,1.54365234375,1.57587890625,1.59521484375,1.59521484375,1.58876953125,1.58232421875,1.5662109375,1.546875,1.53076171875,1.4953125,1.45341796875,1.42763671875,1.3921875,1.35029296875,1.32451171875,1.31806640625,1.301953125,1.2955078125,1.31162109375,1.32451171875,1.31162109375,1.31162109375,1.3341796875,1.3470703125,1.3341796875,1.3341796875,1.33740234375,1.340625,1.340625,1.340625,1.33740234375,1.340625,1.35029296875,1.36318359375,1.36318359375,1.35673828125,1.36318359375,1.38896484375,1.39541015625,1.39541015625,1.4115234375,1.41474609375,1.38251953125,1.3470703125,1.34384765625,1.353515625,1.35029296875,1.340625,1.327734375,1.3083984375,1.3212890625,1.3341796875,1.3083984375,1.40185546875,1.7724609375,2.07216796875,1.75634765625,1.07958984375,0.87978515625,1.24716796875,1.5017578125,1.4115234375,1.3470703125,1.41474609375,1.42763671875,1.3857421875,1.39541015625,1.42119140625,1.41474609375,1.41474609375,1.4244140625,1.44052734375,1.4501953125,1.4630859375
1.31162109375,1.31162109375,1.3212890625,1.32451171875,1.32451171875,1.32451171875,1.32451171875,1.32451171875,1.33095703125,1.34384765625,1.3470703125,1.340625,1.33095703125,1.33740234375,1.35029296875,1.35673828125,1.3470703125,1.340625,1.35029296875,1.36962890625,1.36962890625,1.36318359375,1.36962890625,1.3921875,1.405078125,1.40830078125,1.42119140625,1.42763671875,1.40830078125,1.36640625,1.33095703125,1.327734375,1.340625,1.35029296875,1.35029296875,1.33740234375,1.32451171875,1.3341796875,1.33095703125,1.29228515625,1.39541015625,1.78857421875,2.11083984375,1.82724609375,1.15048828125,0.89267578125,1.21171875,1.47275390625,1.40830078125,1.3470703125,1.41796875,1.430859375,1.38251953125,1.38251953125,1.41474609375,1.42763671875,1.42763671875,1.43408203125,1.4373046875,1.44697265625,1.47275390625,1.49853515625,1.5146484375,1.52431640625,1.54365234375,1.5662109375,1.5919921875,1.611328125,1.61455078125,1.5984375,1.57587890625,1.55654296875,1.53076171875,1.48564453125,1.43408203125,1.3921875,1.35673828125,1.32451171875,1.29873046875,1.29873046875,1.30517578125,1.3083984375,1.301953125,1.30517578125,1.301953125,1.301953125,1.31162109375,1.32451171875,1.32451171875,1.32451171875,1.3341796875,1.3470703125,1.340625,1.32451171875,1.31806640625,1.33095703125,1.3470703125,1.34384765625,1.33095703125,1.33095703125,1.3470703125,1.3470703125,1.35029296875,1.379296875,1.41474609375,1.42119140625,1.40830078125,1.405078125,1.3986328125,1.35673828125,1.327734375,1.33095703125,1.340625,1.33095703125,1.32451171875,1.32451171875,1.3212890625,1.33095703125,1.33740234375,1.29228515625,1.32451171875,1.64033203125,2.07216796875,2.04638671875,1.430859375,0.93134765625,1.06669921875,1.41474609375,1.45341796875,1.3470703125,1.36962890625,1.4115234375,1.3857421875,1.38251953125,1.41796875,1.4244140625,1.41474609375,1.42763671875,1.44052734375,1.44697265625,1.45986328125,1.4759765625,1.48564453125,1.5017578125,1.5275390625,1.55654296875,1.58232421875,1.5984375,1.60166015625,1.5984375,1.58876953125,1.559765625,1.52431640625,1.49208984375,1.456640625,1.40185546875,1.353515625,1.327734375,1.31806640625,1.3083984375,1.30517578125,1.30517578125,1.301953125,1.301953125,1.30517578125,1.31484375,1.3212890625,1.33095703125,1.33095703125,1.3212890625,1.31484375,1.3212890625,1.33095703125,1.340625,1.34384765625,1.340625,1.33095703125,1.327734375,1.340625,1.353515625,1.35673828125,1.34384765625,1.34384765625,1.36318359375,1.3857421875,1.3921875,1.39541015625,1.41474609375,1.43408203125,1.41474609375,1.36318359375,1.33095703125,1.33740234375,1.35029296875,1.3470703125,1.33740234375,1.33095703125,1.3212890625,1.31806640625,1.33095703125,1.31806640625,1.27294921875,1.3857421875,1.78212890625,2.0947265625,1.80146484375,1.14404296875,0.9087890625,1.224609375,1.46953125,1.39541015625,1.327734375,1.3921875,1.41796875,1.3921875,1.405078125,1.41796875,1.405078125,1.41474609375,1.44375,1.4501953125,1.44375,1.456640625,1.48564453125,1.5017578125,1.508203125,1.53076171875,1.56943359375,1.59521484375,1.5984375,1.59521484375,1.5984375,1.59521484375,1.57265625,1.52109375,1.4630859375,1.4115234375,1.36962890625,1.3470703125,1.3341796875,1.31162109375,1.2826171875,1.2826171875,1.30517578125,1.31162109375,1.3083984375,1.31162109375,1.3212890625,1.31484375,1.3083984375,1.3083984375,1.31162109375,1.3212890625,1.327734375,1.327734375,1.32451171875,1.3212890625,1.33095703125,1.33095703125,1.327734375,1.327734375,1.34384765625,1.35673828125,1.353515625,1.3470703125,1.353515625,1.379296875,1.3986328125,1.40830078125,1.41474609375,1.42119140625,1.4115234375,1.36962890625,1.340625,1.340625,1.35029296875,1.340625,1.3341796875,1.33740234375,1.327734375,1.32451171875,1.3470703125,1.340625,1.3083984375,1.47275390625,1.894921875,2.08828125,1.62099609375,0.9796875,0.93134765625,1.33095703125,1.4953125,1.38251953125,1.36640625,1.4373046875,1.41796875,1.379296875,1.40830078125,1.4373046875,1.42763671875,1.42119140625,1.4373046875,1.4501953125,1.4630859375,1.482421875,1.5017578125,1.51787109375,1.5404296875,1.559765625,1.5791015625,1.5984375,1.6177734375,1.62421875,1.60810546875,1.58232421875,1.55654296875,1.51787109375,1.47275390625,1.4373046875,1.3921875,1.34384765625,1.3212890625,1.31484375,1.29873046875,1.2826171875,1.2955078125,1.3083984375,1.301953125,1.29228515625,1.301953125,1.31806640625,1.32451171875,1.32451171875,1.327734375,1.327734375,1.31806640625,1.31806640625,1.32451171875,1.32451171875,1.3212890625,1.3341796875,1.35029296875,1.353515625,1.34384765625,1.3470703125,1.3599609375,1.37607421875,1.3857421875,1.3921875,1.40185546875,1.40185546875,1.379296875,1.3470703125,1.33740234375,1.34384765625,1.35029296875,1.33740234375,1.3212890625,1.31484375,1.32451171875,1.340625,1.327734375,1.2890625,1.3986328125,1.78212890625,2.0818359375,1.76923828125,1.10537109375,0.89912109375,1.250390625,1.47919921875,1.3857421875,1.3341796875,1.41796875,1.430859375,1.379296875,1.38251953125,1.41796875,1.430859375,1.4244140625,1.41474609375,1.4244140625,1.45341796875,1.47919921875,1.48564453125,1.5017578125,1.533984375,1.5533203125,1.55009765625,1.5662109375,1.60166015625,1.6177734375,1.60166015625,1.5791015625,1.559765625,1.51787109375,1.46953125,1.4244140625,1.3857421875,1.34384765625,1.31484375,1.3083984375,1.31162109375,1.30517578125,1.29228515625,1.29228515625,1.301953125,1.30517578125,1.301953125,1.3083984375,1.3212890625,1.33095703125,1.327734375,1.3212890625,1.3212890625,1.33095703125,1.3341796875,1.33095703125,1.33095703125,1.33095703125,1.33095703125,1.340625,1.35029296875,1.3470703125,1.3470703125,1.35673828125,1.36318359375,1.3599609375,1.36962890625,1.38896484375,1.39541015625,1.40185546875,1.41796875,1.4115234375,1.36640625,1.33740234375,1.35029296875,1.35673828125,1.3341796875,1.3212890625,1.3341796875,1.33095703125,1.327734375,1.33095703125,1.30517578125,1.3083984375,1.56298828125,2.0109375,2.10439453125,1.5533203125,0.97001953125,1.01513671875,1.3857421875,1.46953125,1.353515625,1.36640625,1.430859375,1.3986328125,1.36640625,1.39541015625,1.42763671875,1.43408203125,1.43408203125,1.4373046875,1.4501953125,1.46953125,1.482421875,1.4888671875,1.49853515625,1.52431640625,1.559765625,1.58232421875,1.58876953125,1.59521484375,1.60166015625,1.59521484375,1.58232421875,1.559765625,1.51142578125,1.4501953125,1.4115234375,1.38251953125,1.34384765625,1.3083984375,1.29873046875,1.31162109375,1.31484375,1.30517578125,1.301953125,1.3083984375,1.31162109375,1.31806640625,1.3212890625,1.31806640625,1.3212890625,1.33095703125,1.340625,1.3341796875,1.33095703125,1.3341796875,1.33095703125,1.32451171875,1.33095703125,1.33740234375,1.340625,1.33740234375,1.33740234375,1.3341796875,1.33095703125,1.33740234375,1.35029296875,1.3599609375,1.3599609375,1.35673828125,1.36962890625,1.39541015625,1.4115234375,1.40830078125,1.4115234375,1.41796875,1.40185546875,1.36640625,1.340625,1.3470703125,1.353515625,1.35029296875,1.34384765625,1.340625,1.33740234375,1.34384765625,1.34384765625,1.29873046875,1.31162109375,1.5984375,2.05927734375,2.1140625,1.51787109375,0.93779296875,1.018359375,1.40185546875,1.4759765625,1.3470703125,1.36318359375,1.43408203125,1.4115234375,1.37607421875,1.3986328125,1.41474609375,1.41796875,1.4373046875,1.4501953125,1.4501953125,1.456640625,1.47275390625,1.4953125,1.51142578125,1.53076171875,1.5533203125,1.57587890625,1.585546875,1.58876953125,1.59521484375,1.5984375,1.5791015625,1.54365234375,1.50498046875,1.45986328125,1.405078125,1.36318359375,1.34384765625,1.327734375,1.30517578125,1.29228515625,1.29873046875,1.29873046875,1.2955078125,1.29873046875,1.31162109375,1.31806640625,1.31806640625,1.31806640625,1.3212890625,1.32451171875,1.327734375,1.33095703125,1.327734375,1.31806640625,1.31484375,1.327734375,1.33740234375,1.33740234375,1.33740234375,1.3341796875,1.327734375,1.327734375,1.340625,1.3470703125,1.34384765625,1.340625,1.340625,1.353515625,1.36962890625,1.37607421875,1.36962890625,1.3728515625,1.3986328125,1.41474609375,1.41796875,1.42119140625,1.4115234375,1.37607421875,1.340625,1.340625,1.35029296875,1.3470703125,1.33740234375,1.3341796875,1.3341796875,1.340625,1.34384765625,1.3083984375,1.31806640625,1.58232421875,2.023828125,2.08505859375,1.5017578125,0.92490234375,1.00869140625,1.405078125,1.4888671875,1.36962890625,1.379296875,1.430859375,1.3986328125,1.3857421875,1.4244140625,1.430859375,1.4115234375,1.4244140625,1.4501953125,1.45986328125,1.46630859375,1.47919921875,1.4953125,1.51787109375,1.54365234375,1.5662109375,1.585546875,1.5984375,1.6048828125,1.60166015625,1.5984375,1.585546875,1.5533203125,1.52109375,1.482421875,1.42763671875,1.36962890625,1.33095703125,1.31806640625,1.31484375,1.31162109375,1.30517578125,1.2955078125,1.29228515625,1.301953125,1.31162109375,1.3083984375,1.30517578125,1.31806640625,1.33095703125,1.327734375,1.3212890625,1.327734375,1.3341796875,1.327734375,1.32451171875,1.3341796875,1.340625,1.3341796875,1.3341796875,1.33740234375,1.340625,1.353515625,1.35673828125,1.3470703125,1.3470703125,1.3728515625,1.40185546875,1.40185546875,1.40185546875,1.39541015625,1.36640625,1.33095703125,1.33095703125,1.35029296875,1.34384765625,1.31806640625,1.31484375,1.32451171875,1.3341796875,1.33740234375,1.3083984375,1.30517578125,1.55009765625,1.998046875,2.0947265625,1.5275390625,0.91201171875,0.96357421875,1.36962890625,1.47919921875,1.36640625,1.3728515625,1.43408203125,1.3986328125,1.3728515625,1.4115234375,1.42763671875,1.4115234375,1.41474609375,1.43408203125,1.4501953125,1.45986328125,1.47275390625,1.49208984375,1.5146484375,1.5404296875,1.56943359375,1.5919921875,1.60166015625,1.60166015625,1.60810546875,1.60166015625,1.56943359375,1.533984375,1.508203125,1.46953125,1.41796875,1.379296875,1.35673828125,1.32451171875,1.301953125,1.29873046875,1.29873046875,1.29228515625,1.28583984375,1.28583984375,1.30517578125,1.3212890625,1.327734375,1.32451171875,1.3212890625,1.327734375,1.3341796875,1.33095703125,1.32451171875,1.32451171875,1.3341796875,1.340625,1.33095703125,1.327734375,1.33740234375,1.3470703125,1.353515625,1.35029296875,1.35029296875,1.353515625,1.36962890625,1.38896484375,1.40185546875,1.4115234375,1.41474609375,1.38896484375,1.3470703125,1.33095703125,1.3341796875,1.340625,1.33740234375,1.3341796875,1.327734375,1.3212890625,1.340625,1.3341796875,1.276171875,1.340625,1.71123046875,2.101171875,1.93037109375,1.26328125,0.8958984375,1.15048828125,1.456640625,1.42119140625,1.33740234375,1.39541015625,1.42763671875,1.37607421875,1.37607421875,1.4244140625,1.430859375,1.4115234375,1.4115234375,1.43408203125,1.44697265625,1.456640625,1.46953125,1.49208984375,1.51142578125,1.533984375,1.559765625,1.585546875,1.6048828125,1.61455078125,1.59521484375,1.5662109375,1.55654296875,1.54365234375,1.4888671875,1.4244140625,1.3921875,1.37607421875,1.34384765625,1.31162109375,1.30517578125,1.3083984375,1.29873046875,1.29228515625,1.29873046875,1.30517578125,1.31484375,1.32451171875,1.3212890625,1.31484375,1.3212890625,1.3341796875,1.33095703125,1.31806640625,1.31484375,1.32451171875,1.33095703125,1.3341796875,1.3341796875,1.3341796875,1.33740234375,1.3341796875,1.340625,1.353515625,1.3599609375,1.353515625,1.35673828125,1.379296875,1.3986328125,1.405078125,1.41474609375,1.42763671875,1.40830078125,1.36962890625,1.3470703125,1.3599609375,1.36640625,1.3470703125,1.33095703125,1.33740234375,1.34384765625,1.35029296875,1.340625,1.30517578125,1.3341796875,1.61455078125,2.0431640625,2.0818359375,1.508203125,0.9603515625,1.04736328125,1.40830078125,1.4759765625,1.35673828125,1.36640625,1.42763671875,1.40830078125,1.3921875,1.4115234375,1.41796875,1.42119140625,1.44052734375,1.4501953125,1.4501953125,1.4630859375,1.482421875,1.4953125,1.508203125,1.5275390625,1.546875,1.56943359375,1.5919921875,1.60166015625,1.60166015625,1.5919921875,1.57265625,1.53720703125,1.4888671875,1.45341796875,1.41796875,1.38251953125,1.34384765625,1.3083984375,1.29228515625,1.29873046875,1.3083984375,1.31484375,1.31806640625,1.31806640625,1.3083984375,1.30517578125,1.31162109375,1.31806640625,1.31484375,1.31484375,1.327734375,1.33740234375,1.33095703125,1.327734375,1.33095703125,1.33095703125,1.3212890625,1.3212890625,1.327734375,1.33740234375,1.33740234375,1.34384765625,1.35673828125,1.36318359375,1.3599609375,1.3599609375,1.37607421875,1.40185546875,1.41796875,1.42119140625,1.3986328125,1.35673828125,1.327734375,1.33740234375,1.35029296875,1.340625,1.32451171875,1.31806640625,1.3212890625,1.327734375,1.3212890625,1.28583984375,1.36640625,1.72412109375,2.08828125,1.89814453125,1.2310546875,0.87978515625,1.147265625,1.45986328125,1.4244140625,1.3341796875,1.38251953125,1.4115234375,1.379296875,1.3921875,1.42763671875,1.4244140625,1.42119140625,1.43408203125,1.44052734375,1.44052734375,1.45986328125,1.47919921875,1.48564453125,1.49853515625,1.533984375,1.5662109375,1.5791015625,1.58876953125,1.60810546875,1.61455078125,1.5919921875,1.559765625,1.53076171875,1.4953125,1.44375,1.38896484375,1.3470703125,1.32451171875,1.3083984375,1.29228515625,1.2890625,1.301953125,1.30517578125,1.301953125,1.29873046875,1.301953125,1.30517578125,1.3083984375,1.31484375,1.31484375,1.31162109375,1.31484375,1.3212890625,1.31806640625,1.3212890625,1.327734375,1.33095703125,1.327734375,1.33740234375,1.353515625,1.35029296875,1.3341796875,1.33740234375,1.37607421875,1.41474609375,1.42119140625,1.405078125,1.3857421875,1.353515625,1.32451171875,1.32451171875,1.33740234375,1.340625,1.3341796875,1.327734375,1.3212890625,1.3341796875,1.33740234375,1.29228515625,1.33740234375,1.67255859375,2.06572265625,1.920703125,1.2568359375,0.8701171875,1.1279296875,1.45341796875,1.430859375,1.34384765625,1.40185546875,1.44375,1.40185546875,1.3921875,1.41796875,1.4244140625,1.4244140625,1.4373046875,1.4501953125,1.45986328125,1.47275390625,1.48564453125,1.50498046875,1.5275390625,1.54365234375,1.5662109375,1.60166015625,1.62099609375,1.60810546875,1.59521484375,1.5984375,1.5919921875,1.5533203125,1.49853515625,1.4501953125,1.40830078125,1.36962890625,1.340625,1.32451171875,1.31484375,1.30517578125,1.29228515625,1.28583984375,1.30517578125,1.33095703125,1.3341796875,1.31484375,1.30517578125,1.3212890625,1.33095703125,1.3341796875,1.33740234375,1.34384765625,1.3470703125,1.34384765625,1.34384765625,1.340625,1.3470703125,1.35673828125,1.3599609375,1.36318359375,1.379296875,1.3986328125,1.40185546875,1.40830078125,1.40830078125,1.38251953125,1.35029296875,1.3470703125,1.353515625,1.33095703125,1.3083984375,1.32451171875,1.34384765625,1.33740234375,1.3341796875,1.327734375,1.2955078125,1.4115234375,1.8111328125,2.10439453125,1.76279296875,1.0763671875,0.87978515625,1.2439453125,1.4888671875,1.3986328125,1.340625,1.4115234375,1.42119140625,1.379296875,1.39541015625,1.4244140625,1.42119140625,1.41474609375,1.43408203125,1.44697265625,1.4501953125,1.45986328125,1.48564453125,1.508203125,1.52109375,1.53076171875,1.5533203125,1.585546875,1.60166015625,1.5919921875,1.5791015625,1.57587890625,1.546875,1.4953125,1.456640625,1.430859375,1.3857421875,1.33740234375,1.3212890625,1.31806640625,1.2890625,1.276171875,1.301953125,1.31806640625,1.30517578125,1.301953125,1.3212890625,1.32451171875,1.3083984375,1.29873046875,1.31162109375,1.327734375,1.33095703125,1.32451171875,1.31806640625,1.31484375,1.3212890625,1.33740234375,1.353515625,1.3470703125,1.3341796875,1.33740234375,1.353515625,1.379296875,1.39541015625,1.3986328125,1.39541015625,1.3857421875,1.35029296875,1.31806640625,1.3212890625,1.33740234375,1.327734375,1.31484375,1.3212890625,1.3212890625,1.3212890625,1.327734375,1.29228515625,1.26005859375,1.482421875,1.946484375,2.101171875,1.585546875,0.966796875,0.9732421875,1.35673828125,1.46630859375,1.3341796875,1.32451171875,1.3921875,1.38251953125,1.36962890625,1.40185546875,1.41474609375,1.3986328125,1.40185546875,1.42119140625,1.4373046875,1.44697265625,1.4630859375,1.47275390625,1.4888671875,1.5146484375,1.54365234375,1.56298828125,1.58232421875,1.59521484375,1.59521484375,1.58232421875,1.56943359375,1.546875,1.5017578125,1.44375,1.40185546875,1.379296875,1.3470703125,1.3212890625,1.3212890625,1.3212890625,1.31162109375,1.3083984375,1.327734375,1.34384765625,1.340625,1.327734375,1.327734375,1.34384765625,1.35673828125,1.353515625,1.35029296875,1.36318359375,1.3728515625,1.36318359375,1.36962890625,1.3857421875,1.3857421875,1.38251953125,1.405078125,1.43408203125,1.43408203125,1.42119140625,1.44052734375
1.36318359375,1.75634765625,2.10439453125,1.85947265625,1.16982421875,0.85078125,1.15693359375,1.46630859375,1.42119140625,1.3212890625,1.36318359375,1.39541015625,1.36962890625,1.38251953125,1.41796875,1.41474609375,1.405078125,1.41796875,1.43408203125,1.44052734375,1.45341796875,1.4630859375,1.47919921875,1.50498046875,1.5404296875,1.57265625,1.59521484375,1.60166015625,1.58876953125,1.56943359375,1.55009765625,1.51787109375,1.47275390625,1.4244140625,1.37607421875,1.327734375,1.301953125,1.2955078125,1.2955078125,1.2955078125,1.29873046875,1.3083984375,1.31162109375,1.301953125,1.2955078125,1.31162109375,1.31806640625,1.31162109375,1.31162109375,1.33095703125,1.35029296875,1.340625,1.32451171875,1.32451171875,1.33740234375,1.340625,1.33095703125,1.33095703125,1.3470703125,1.36318359375,1.36318359375,1.353515625,1.34384765625,1.35029296875,1.37607421875,1.3986328125,1.40185546875,1.41474609375,1.44375,1.430859375,1.36962890625,1.3341796875,1.34384765625,1.3470703125,1.33740234375,1.3341796875,1.327734375,1.30517578125,1.31162109375,1.33740234375,1.31806640625,1.3212890625,1.5919921875,2.03671875,2.05283203125,1.42763671875,0.8765625,0.99580078125,1.3728515625,1.43408203125,1.33740234375,1.37607421875,1.430859375,1.3921875,1.37607421875,1.40830078125,1.42119140625,1.4115234375,1.40830078125,1.41796875,1.4373046875,1.4630859375,1.47275390625,1.4888671875,1.5275390625,1.5662109375,1.5791015625,1.58232421875,1.5984375,1.5984375,1.57587890625,1.55654296875,1.546875,1.50498046875,1.44375,1.405078125,1.38896484375,1.35673828125,1.32451171875,1.31162109375,1.301953125,1.29873046875,1.3083984375,1.32451171875,1.327734375,1.32451171875,1.3212890625,1.3212890625,1.327734375,1.33740234375,1.33740234375,1.3341796875,1.340625,1.34384765625,1.34384765625,1.34384765625,1.35029296875,1.35029296875,1.3470703125,1.34384765625,1.35029296875,1.36318359375,1.3728515625,1.3728515625,1.36640625,1.38251953125,1.4115234375,1.4244140625,1.42119140625,1.41474609375,1.3857421875,1.3470703125,1.3341796875,1.35029296875,1.3599609375,1.353515625,1.3470703125,1.33095703125,1.3212890625,1.340625,1.33095703125,1.27939453125,1.39541015625,1.8111328125,2.08828125,1.6951171875,0.9990234375,0.85400390625,1.25361328125,1.4888671875,1.39541015625,1.35673828125,1.42763671875,1.4115234375,1.36318359375,1.38896484375,1.42119140625,1.430859375,1.44375,1.4501953125,1.44375,1.4501953125,1.47919921875,1.5017578125,1.51142578125,1.52431640625,1.55654296875,1.59521484375,1.62744140625,1.62421875,1.5984375,1.56943359375,1.55009765625,1.5275390625,1.49853515625,1.456640625,1.40830078125,1.36962890625,1.340625,1.31484375,1.301953125,1.31162109375,1.327734375,1.3212890625,1.31806640625,1.3212890625,1.327734375,1.327734375,1.33095703125,1.3341796875,1.3341796875,1.33740234375,1.3470703125,1.3599609375,1.35673828125,1.35029296875,1.35029296875,1.35673828125,1.3599609375,1.35673828125,1.353515625,1.3470703125,1.35029296875,1.379296875,1.405078125,1.41796875,1.42119140625,1.40185546875,1.3599609375,1.327734375,1.3341796875,1.34384765625,1.3341796875,1.31806640625,1.31484375,1.31484375,1.33095703125,1.34384765625,1.301953125,1.28583984375,1.52431640625,1.9787109375,2.07861328125,1.49853515625,0.8830078125,0.94423828125,1.36318359375,1.4759765625,1.35673828125,1.35673828125,1.42119140625,1.38896484375,1.35673828125,1.38896484375,1.42119140625,1.41474609375,1.405078125,1.40830078125,1.43408203125,1.4630859375,1.47275390625,1.46630859375,1.4888671875,1.5404296875,1.57587890625,1.58876953125,1.5919921875,1.59521484375,1.58876953125,1.57265625,1.54365234375,1.4953125,1.44375,1.40185546875,1.3728515625,1.35673828125,1.33095703125,1.29873046875,1.2890625,1.31162109375,1.3212890625,1.301953125,1.29228515625,1.31162109375,1.32451171875,1.32451171875,1.3341796875,1.33740234375,1.31484375,1.3083984375,1.33740234375,1.36318359375,1.353515625,1.340625,1.34384765625,1.3599609375,1.36640625,1.353515625,1.340625,1.35673828125,1.38896484375,1.405078125,1.40830078125,1.4244140625,1.41796875,1.3728515625,1.33740234375,1.34384765625,1.35673828125,1.34384765625,1.33095703125,1.3341796875,1.327734375,1.32451171875,1.327734375,1.29873046875,1.28583984375,1.51787109375,1.98193359375,2.1205078125,1.559765625,0.915234375,0.94423828125,1.3599609375,1.46953125,1.3341796875,1.33740234375,1.41796875,1.39541015625,1.36640625,1.3986328125,1.4115234375,1.39541015625,1.4115234375,1.44052734375,1.44375,1.44375,1.45986328125,1.482421875,1.508203125,1.55009765625,1.57587890625,1.5791015625,1.58876953125,1.60810546875,1.5984375,1.56298828125,1.533984375,1.50498046875,1.4630859375,1.41474609375,1.3728515625,1.3470703125,1.340625,1.33095703125,1.31162109375,1.301953125,1.3083984375,1.31484375,1.31806640625,1.3212890625,1.327734375,1.33095703125,1.327734375,1.327734375,1.3341796875,1.3341796875,1.33095703125,1.33740234375,1.35029296875,1.35029296875,1.33740234375,1.33740234375,1.353515625,1.36318359375,1.35029296875,1.34384765625,1.3599609375,1.38251953125,1.40185546875,1.4244140625,1.44375,1.42763671875,1.379296875,1.340625,1.33740234375,1.353515625,1.3470703125,1.3212890625,1.3083984375,1.31162109375,1.32451171875,1.33740234375,1.31162109375,1.31806640625,1.56943359375,2.0173828125,2.101171875,1.5146484375,0.90556640625,0.9732421875,1.379296875,1.46953125,1.33740234375,1.353515625,1.43408203125,1.40830078125,1.36962890625,1.3986328125,1.4244140625,1.42119140625,1.41796875,1.42119140625,1.4244140625,1.4373046875,1.45986328125,1.4953125,1.53720703125,1.56943359375,1.585546875,1.585546875,1.5919921875,1.5984375,1.585546875,1.55654296875,1.5275390625,1.4953125,1.44697265625,1.39541015625,1.36962890625,1.35673828125,1.327734375,1.301953125,1.2955078125,1.301953125,1.3083984375,1.3083984375,1.30517578125,1.30517578125,1.31484375,1.32451171875,1.32451171875,1.32451171875,1.327734375,1.3341796875,1.33095703125,1.33095703125,1.3341796875,1.3341796875,1.340625,1.35029296875,1.35673828125,1.3599609375,1.35673828125,1.36640625,1.379296875,1.38896484375,1.3986328125,1.41474609375,1.4115234375,1.36640625,1.32451171875,1.3212890625,1.3341796875,1.33740234375,1.33095703125,1.33095703125,1.327734375,1.33095703125,1.32451171875,1.2826171875,1.29873046875,1.5662109375,2.0109375,2.0818359375,1.508203125,0.915234375,0.9796875,1.38251953125,1.47275390625,1.33740234375,1.340625,1.4115234375,1.38251953125,1.3599609375,1.405078125,1.430859375,1.41474609375,1.4115234375,1.430859375,1.44052734375,1.44697265625,1.46630859375,1.49208984375,1.51787109375,1.54365234375,1.56943359375,1.58876953125,1.6048828125,1.611328125,1.60810546875,1.5791015625,1.53720703125,1.4953125,1.45341796875,1.40830078125,1.36640625,1.33095703125,1.3083984375,1.30517578125,1.31484375,1.32451171875,1.31806640625,1.3083984375,1.31162109375,1.31484375,1.3083984375,1.31806640625,1.33095703125,1.327734375,1.32451171875,1.3341796875,1.3470703125,1.3470703125,1.3341796875,1.3341796875,1.3470703125,1.3599609375,1.3599609375,1.3599609375,1.379296875,1.40185546875,1.405078125,1.405078125,1.41474609375,1.40830078125,1.3728515625,1.34384765625,1.340625,1.35029296875,1.340625,1.3212890625,1.31484375,1.32451171875,1.34384765625,1.33095703125,1.276171875,1.34384765625,1.7015625,2.07216796875,1.88525390625,1.20205078125,0.837890625,1.1150390625,1.44697265625,1.4373046875,1.353515625,1.40185546875,1.41796875,1.36962890625,1.3728515625,1.4115234375,1.4115234375,1.3986328125,1.41474609375,1.44052734375,1.4630859375,1.4759765625,1.4888671875,1.50498046875,1.5275390625,1.5533203125,1.57587890625,1.5984375,1.5984375,1.5919921875,1.5919921875,1.585546875,1.5404296875,1.47919921875,1.43408203125,1.38896484375,1.3470703125,1.33095703125,1.32451171875,1.30517578125,1.2955078125,1.301953125,1.29873046875,1.2890625,1.301953125,1.31806640625,1.31806640625,1.31806640625,1.327734375,1.33740234375,1.33740234375,1.340625,1.340625,1.33740234375,1.34384765625,1.3599609375,1.36318359375,1.3470703125,1.35029296875,1.3857421875,1.405078125,1.3921875,1.3921875,1.41474609375,1.3986328125,1.3470703125,1.327734375,1.35029296875,1.3470703125,1.31806640625,1.31806640625,1.33095703125,1.32451171875,1.327734375,1.3341796875,1.29228515625,1.32451171875,1.6693359375,2.0818359375,1.93359375,1.2439453125,0.84755859375,1.11826171875,1.4501953125,1.4244140625,1.32451171875,1.379296875,1.42119140625,1.3857421875,1.379296875,1.40185546875,1.40830078125,1.4115234375,1.42119140625,1.42763671875,1.43408203125,1.45341796875,1.482421875,1.508203125,1.5275390625,1.5533203125,1.5791015625,1.6048828125,1.61455078125,1.60810546875,1.58876953125,1.559765625,1.52431640625,1.48564453125,1.44052734375,1.39541015625,1.36318359375,1.33740234375,1.31484375,1.30517578125,1.31162109375,1.30517578125,1.2955078125,1.301953125,1.31484375,1.31484375,1.31806640625,1.327734375,1.33095703125,1.327734375,1.33095703125,1.34384765625,1.3470703125,1.34384765625,1.34384765625,1.353515625,1.35029296875,1.33740234375,1.33740234375,1.3599609375,1.379296875,1.379296875,1.38251953125,1.3986328125,1.42119140625,1.430859375,1.41796875,1.38251953125,1.35673828125,1.35029296875,1.35029296875,1.340625,1.3341796875,1.33740234375,1.33095703125,1.327734375,1.340625,1.32451171875,1.27294921875,1.379296875,1.791796875,2.11083984375,1.7982421875,1.11826171875,0.88623046875,1.2181640625,1.46953125,1.39541015625,1.32451171875,1.37607421875,1.39541015625,1.3857421875,1.41796875,1.430859375,1.405078125,1.40185546875,1.43408203125,1.44697265625,1.44375,1.45341796875,1.482421875,1.49853515625,1.51142578125,1.55009765625,1.60166015625,1.62099609375,1.61455078125,1.611328125,1.59521484375,1.5533203125,1.51142578125,1.482421875,1.4373046875,1.379296875,1.340625,1.3341796875,1.32451171875,1.31162109375,1.301953125,1.3083984375,1.31484375,1.3212890625,1.327734375,1.33095703125,1.3212890625,1.3083984375,1.3212890625,1.340625,1.340625,1.3212890625,1.32451171875,1.35029296875,1.36640625,1.35673828125,1.33740234375,1.33740234375,1.34384765625,1.34384765625,1.34384765625,1.35673828125,1.36318359375,1.3599609375,1.36640625,1.379296875,1.38896484375,1.3986328125,1.41474609375,1.430859375,1.42763671875,1.3986328125,1.36318359375,1.35029296875,1.3470703125,1.34384765625,1.3470703125,1.35029296875,1.3341796875,1.31484375,1.31806640625,1.33740234375,1.3083984375,1.2890625,1.52109375,1.98193359375,2.1076171875,1.546875,0.91845703125,0.9474609375,1.35029296875,1.45986328125,1.34384765625,1.3470703125,1.40830078125,1.3857421875,1.3728515625,1.40830078125,1.405078125,1.3921875,1.4244140625,1.45341796875,1.44697265625,1.44697265625,1.46953125,1.49208984375,1.508203125,1.55009765625,1.59521484375,1.61455078125,1.60810546875,1.6048828125,1.60810546875,1.58876953125,1.546875,1.50498046875,1.46630859375,1.41796875,1.3728515625,1.3470703125,1.33740234375,1.31806640625,1.301953125,1.301953125,1.301953125,1.2890625,1.27939453125,1.29873046875,1.33095703125,1.3470703125,1.327734375,1.3083984375,1.31484375,1.327734375,1.340625,1.35029296875,1.353515625,1.34384765625,1.340625,1.34384765625,1.34384765625,1.33095703125,1.33095703125,1.3470703125,1.35673828125,1.353515625,1.353515625,1.36962890625,1.379296875,1.37607421875,1.379296875,1.39541015625,1.41474609375,1.4115234375,1.40185546875,1.42119140625,1.44375,1.4115234375,1.35673828125,1.3470703125,1.3728515625,1.36640625,1.33740234375,1.340625,1.3470703125,1.3341796875,1.3470703125,1.3728515625,1.327734375,1.36640625,1.71123046875,2.07861328125,1.8626953125,1.1666015625,0.8443359375,1.15693359375,1.46630859375,1.42119140625,1.36962890625,1.4501953125,1.456640625,1.38251953125,1.38251953125,1.42119140625,1.4115234375,1.40185546875,1.4244140625,1.44375,1.44697265625,1.456640625,1.4759765625,1.50498046875,1.546875,1.57587890625,1.58876953125,1.60810546875,1.6306640625,1.6177734375,1.58232421875,1.559765625,1.5533203125,1.52109375,1.456640625,1.40185546875,1.3728515625,1.34384765625,1.3212890625,1.3212890625,1.3212890625,1.2955078125,1.27939453125,1.29228515625,1.31162109375,1.31484375,1.31806640625,1.327734375,1.327734375,1.32451171875,1.3341796875,1.3470703125,1.3470703125,1.34384765625,1.3470703125,1.35029296875,1.3470703125,1.33740234375,1.33095703125,1.33095703125,1.33095703125,1.34384765625,1.36318359375,1.3728515625,1.36318359375,1.35673828125,1.37607421875,1.3986328125,1.40185546875,1.39541015625,1.3986328125,1.39541015625,1.37607421875,1.353515625,1.3470703125,1.33740234375,1.3212890625,1.32451171875,1.33740234375,1.340625,1.3341796875,1.30517578125,1.27294921875,1.41796875,1.8369140625,2.11083984375,1.7337890625,1.04091796875,0.85400390625,1.2181640625,1.4630859375,1.3921875,1.353515625,1.41796875,1.3986328125,1.34384765625,1.37607421875,1.4244140625,1.4244140625,1.4115234375,1.42119140625,1.44052734375,1.4501953125,1.45986328125,1.47275390625,1.4953125,1.53720703125,1.58876953125,1.611328125,1.6048828125,1.60810546875,1.62421875,1.60810546875,1.559765625,1.52431640625,1.4953125,1.44697265625,1.3857421875,1.353515625,1.34384765625,1.3341796875,1.31162109375,1.2955078125,1.301953125,1.3083984375,1.3083984375,1.31162109375,1.3212890625,1.3212890625,1.31806640625,1.31162109375,1.3083984375,1.3212890625,1.34384765625,1.35673828125,1.35029296875,1.34384765625,1.340625,1.33740234375,1.340625,1.3470703125,1.340625,1.3341796875,1.34384765625,1.35029296875,1.34384765625,1.35029296875,1.3728515625,1.3857421875,1.379296875,1.3728515625,1.379296875,1.3857421875,1.40830078125,1.4373046875,1.4373046875,1.3986328125,1.36640625,1.353515625,1.34384765625,1.340625,1.3470703125,1.340625,1.31484375,1.31806640625,1.3599609375,1.36640625,1.301953125,1.3470703125,1.6951171875,2.1076171875,2.0044921875,1.340625,0.87978515625,1.08603515625,1.44052734375,1.4373046875,1.3212890625,1.37607421875,1.44375,1.3986328125,1.3728515625,1.4115234375,1.42763671875,1.41474609375,1.42763671875,1.4501953125,1.4501953125,1.4501953125,1.4630859375,1.48564453125,1.51787109375,1.559765625,1.5919921875,1.5984375,1.6048828125,1.61455078125,1.61455078125,1.5919921875,1.55654296875,1.5017578125,1.44697265625,1.4115234375,1.3921875,1.35673828125,1.31484375,1.301953125,1.3083984375,1.30517578125,1.30517578125,1.31484375,1.31806640625,1.301953125,1.301953125,1.3212890625,1.32451171875,1.31162109375,1.31484375,1.33740234375,1.35029296875,1.340625,1.3341796875,1.33740234375,1.3341796875,1.33740234375,1.33740234375,1.3212890625,1.31162109375,1.33095703125,1.36318359375,1.36640625,1.35673828125,1.35673828125,1.35673828125,1.353515625,1.36318359375,1.38251953125,1.38251953125,1.37607421875,1.3921875,1.4244140625,1.4373046875,1.43408203125,1.4244140625,1.40185546875,1.379296875,1.36640625,1.36318359375,1.35029296875,1.34384765625,1.34384765625,1.33095703125,1.32451171875,1.340625,1.327734375,1.3083984375,1.50498046875,1.94326171875,2.10439453125,1.59521484375,0.95068359375,0.92490234375,1.32451171875,1.482421875,1.38251953125,1.36962890625,1.42763671875,1.40185546875,1.36962890625,1.39541015625,1.41474609375,1.41474609375,1.42763671875,1.44697265625,1.45341796875,1.45986328125,1.47919921875,1.5017578125,1.52431640625,1.54365234375,1.5662109375,1.58876953125,1.62421875,1.64677734375,1.6306640625,1.59521484375,1.56943359375,1.55009765625,1.5017578125,1.430859375,1.38251953125,1.36962890625,1.35673828125,1.33095703125,1.31484375,1.31162109375,1.3083984375,1.3083984375,1.31484375,1.31484375,1.301953125,1.30517578125,1.32451171875,1.33095703125,1.33095703125,1.33740234375,1.33740234375,1.3341796875,1.33740234375,1.34384765625,1.33740234375,1.33095703125,1.33095703125,1.33740234375,1.340625,1.33740234375,1.33740234375,1.3470703125,1.3599609375,1.36962890625,1.36640625,1.36962890625,1.38896484375,1.4115234375,1.41474609375,1.39541015625,1.37607421875,1.353515625,1.340625,1.340625,1.340625,1.33740234375,1.327734375,1.3212890625,1.3212890625,1.33095703125,1.31806640625,1.27294921875,1.36962890625,1.74990234375,2.07216796875,1.78857421875,1.1021484375,0.84111328125,1.173046875,1.4501953125,1.39541015625,1.33740234375,1.38896484375,1.38896484375,1.353515625,1.3857421875,1.41474609375,1.39541015625,1.39541015625,1.41796875,1.41796875,1.41796875,1.44697265625,1.48564453125,1.5017578125,1.5146484375,1.54365234375,1.57587890625,1.59521484375,1.6048828125,1.59521484375,1.56943359375,1.55009765625,1.533984375,1.49208984375,1.430859375,1.38251953125,1.35673828125,1.33095703125,1.29873046875,1.276171875,1.27294921875,1.2826171875,1.29228515625,1.2955078125,1.2955078125,1.29873046875
1.6306640625,1.63388671875,1.6048828125,1.57265625,1.55654296875,1.52109375,1.45341796875,1.40185546875,1.36640625,1.3341796875,1.32451171875,1.3341796875,1.327734375,1.301953125,1.30517578125,1.327734375,1.33095703125,1.3212890625,1.32451171875,1.3341796875,1.33740234375,1.327734375,1.3212890625,1.327734375,1.35029296875,1.36318359375,1.3470703125,1.33095703125,1.34384765625,1.3599609375,1.35029296875,1.33740234375,1.3470703125,1.36318359375,1.36962890625,1.3857421875,1.39541015625,1.39541015625,1.405078125,1.4244140625,1.4115234375,1.3728515625,1.34384765625,1.34384765625,1.35029296875,1.3470703125,1.340625,1.33095703125,1.3341796875,1.34384765625,1.3341796875,1.29228515625,1.31806640625,1.60166015625,2.02705078125,2.049609375,1.456640625,0.9087890625,1.01513671875,1.40185546875,1.482421875,1.36640625,1.36318359375,1.40185546875,1.37607421875,1.36318359375,1.3921875,1.405078125,1.40830078125,1.42763671875,1.4501953125,1.45986328125,1.4630859375,1.47275390625,1.49208984375,1.5146484375,1.5404296875,1.57265625,1.6048828125,1.62421875,1.62421875,1.61455078125,1.59521484375,1.5662109375,1.51787109375,1.46953125,1.42763671875,1.3857421875,1.35029296875,1.33095703125,1.31484375,1.301953125,1.3083984375,1.32451171875,1.327734375,1.31806640625,1.31162109375,1.31484375,1.3212890625,1.327734375,1.3341796875,1.33095703125,1.32451171875,1.33740234375,1.35029296875,1.3470703125,1.340625,1.340625,1.34384765625,1.3341796875,1.33095703125,1.34384765625,1.35673828125,1.36640625,1.3728515625,1.3728515625,1.3728515625,1.38896484375,1.40830078125,1.41474609375,1.4244140625,1.430859375,1.405078125,1.35673828125,1.33095703125,1.33740234375,1.35673828125,1.36640625,1.3599609375,1.33095703125,1.31806640625,1.340625,1.33095703125,1.29873046875,1.45986328125,1.8884765625,2.1140625,1.69833984375,1.0376953125,0.90556640625,1.26650390625,1.47919921875,1.39541015625,1.340625,1.3986328125,1.41474609375,1.3921875,1.39541015625,1.40830078125,1.41474609375,1.41796875,1.4244140625,1.43408203125,1.44697265625,1.46630859375,1.48564453125,1.508203125,1.533984375,1.56298828125,1.59521484375,1.6177734375,1.6177734375,1.60166015625,1.5919921875,1.5791015625,1.53720703125,1.4759765625,1.42763671875,1.39541015625,1.3599609375,1.32451171875,1.30517578125,1.2955078125,1.29228515625,1.29873046875,1.31484375,1.3083984375,1.2955078125,1.29873046875,1.3083984375,1.3083984375,1.31162109375,1.31806640625,1.3212890625,1.32451171875,1.32451171875,1.31484375,1.31484375,1.32451171875,1.32451171875,1.31484375,1.31484375,1.3341796875,1.3470703125,1.3470703125,1.33095703125,1.32451171875,1.33095703125,1.34384765625,1.35029296875,1.34384765625,1.3599609375,1.3986328125,1.40830078125,1.3921875,1.3986328125,1.41796875,1.3921875,1.3341796875,1.31484375,1.3341796875,1.340625,1.327734375,1.32451171875,1.327734375,1.3212890625,1.3212890625,1.301953125,1.2890625,1.4759765625,1.89169921875,2.05927734375,1.585546875,0.9603515625,0.9216796875,1.31162109375,1.46953125,1.353515625,1.340625,1.42763671875,1.42119140625,1.37607421875,1.3986328125,1.43408203125,1.430859375,1.41796875,1.42763671875,1.44697265625,1.456640625,1.46630859375,1.49853515625,1.5404296875,1.56943359375,1.585546875,1.60810546875,1.62099609375,1.61455078125,1.611328125,1.6177734375,1.59521484375,1.5533203125,1.5146484375,1.4759765625,1.41796875,1.36962890625,1.35673828125,1.35673828125,1.33740234375,1.31484375,1.31162109375,1.3212890625,1.3212890625,1.31484375,1.31806640625,1.33095703125,1.340625,1.3470703125,1.353515625,1.35673828125,1.35029296875,1.340625,1.35029296875,1.36640625,1.3599609375,1.340625,1.34384765625,1.36318359375,1.3728515625,1.36962890625,1.3728515625,1.3857421875,1.38896484375,1.3857421875,1.3921875,1.40830078125,1.41796875,1.42763671875,1.4373046875,1.4244140625,1.38896484375,1.3599609375,1.36318359375,1.36640625,1.36318359375,1.35029296875,1.340625,1.33740234375,1.35029296875,1.3341796875,1.29228515625,1.3728515625,1.7080078125,2.03349609375,1.84658203125,1.2181640625,0.87978515625,1.13115234375,1.44052734375,1.430859375,1.35029296875,1.3986328125,1.4244140625,1.3728515625,1.36640625,1.41474609375,1.42763671875,1.40830078125,1.4115234375,1.44052734375,1.45986328125,1.456640625,1.4630859375,1.4953125,1.52109375,1.53720703125,1.5662109375,1.60166015625,1.611328125,1.5984375,1.585546875,1.5791015625,1.55654296875,1.51142578125,1.45986328125,1.40185546875,1.3470703125,1.3212890625,1.31162109375,1.29873046875,1.2826171875,1.28583984375,1.301953125,1.3083984375,1.30517578125,1.29873046875,1.2955078125,1.301953125,1.3083984375,1.31484375,1.32451171875,1.33740234375,1.34384765625,1.33095703125,1.3212890625,1.3212890625,1.33095703125,1.327734375,1.32451171875,1.33095703125,1.34384765625,1.340625,1.34384765625,1.35673828125,1.3470703125,1.33095703125,1.353515625,1.405078125,1.4115234375,1.3921875,1.40185546875,1.4244140625,1.3857421875,1.32451171875,1.31484375,1.34384765625,1.34384765625,1.31806640625,1.3083984375,1.32451171875,1.353515625,1.34384765625,1.276171875,1.3212890625,1.6822265625,2.09150390625,1.9658203125,1.30517578125,0.87978515625,1.09892578125,1.43408203125,1.4373046875,1.33740234375,1.36962890625,1.4115234375,1.3857421875,1.38251953125,1.4115234375,1.42119140625,1.41474609375,1.42119140625,1.43408203125,1.44697265625,1.4630859375,1.48564453125,1.5017578125,1.51787109375,1.55009765625,1.58232421875,1.59521484375,1.60810546875,1.62744140625,1.6177734375,1.57587890625,1.533984375,1.50498046875,1.46630859375,1.41796875,1.37607421875,1.34384765625,1.31484375,1.301953125,1.30517578125,1.3083984375,1.301953125,1.301953125,1.3083984375,1.3083984375,1.3083984375,1.3212890625,1.33740234375,1.33095703125,1.31484375,1.3212890625,1.33095703125,1.327734375,1.32451171875,1.34384765625,1.353515625,1.33740234375,1.327734375,1.33740234375,1.34384765625,1.340625,1.3470703125,1.3599609375,1.3599609375,1.36640625,1.3857421875,1.40830078125,1.42119140625,1.430859375,1.430859375,1.3986328125,1.35029296875,1.3341796875,1.3470703125,1.35673828125,1.34384765625,1.33740234375,1.34384765625,1.35029296875,1.35029296875,1.3341796875,1.276171875,1.3212890625,1.67255859375,2.09794921875,1.972265625,1.276171875,0.8443359375,1.095703125,1.4501953125,1.44052734375,1.353515625,1.4115234375,1.43408203125,1.379296875,1.379296875,1.42119140625,1.4115234375,1.39541015625,1.42763671875,1.456640625,1.44697265625,1.44052734375,1.47919921875,1.53076171875,1.546875,1.55009765625,1.57587890625,1.61455078125,1.63388671875,1.62421875,1.60810546875,1.58876953125,1.55654296875,1.52109375,1.49208984375,1.44697265625,1.3857421875,1.35029296875,1.34384765625,1.33095703125,1.3083984375,1.301953125,1.301953125,1.30517578125,1.31484375,1.33095703125,1.3341796875,1.327734375,1.33095703125,1.34384765625,1.340625,1.33095703125,1.327734375,1.33095703125,1.33095703125,1.3341796875,1.34384765625,1.353515625,1.35673828125,1.35673828125,1.3599609375,1.35673828125,1.35673828125,1.36962890625,1.3857421875,1.40185546875,1.41796875,1.4115234375,1.36962890625,1.33095703125,1.32451171875,1.33740234375,1.34384765625,1.33740234375,1.327734375,1.3212890625,1.32451171875,1.33095703125,1.30517578125,1.2955078125,1.50498046875,1.94326171875,2.0947265625,1.57587890625,0.9345703125,0.93134765625,1.3341796875,1.4759765625,1.3599609375,1.35029296875,1.4115234375,1.3921875,1.36962890625,1.39541015625,1.405078125,1.39541015625,1.405078125,1.430859375,1.4501953125,1.46630859375,1.47919921875,1.482421875,1.4953125,1.5275390625,1.5662109375,1.58232421875,1.58232421875,1.5919921875,1.60166015625,1.58876953125,1.546875,1.508203125,1.4759765625,1.4373046875,1.3857421875,1.34384765625,1.33095703125,1.31806640625,1.29873046875,1.28583984375,1.28583984375,1.29228515625,1.30517578125,1.31484375,1.31162109375,1.31162109375,1.31806640625,1.32451171875,1.3212890625,1.32451171875,1.327734375,1.3341796875,1.34384765625,1.3470703125,1.33095703125,1.32451171875,1.33740234375,1.3470703125,1.34384765625,1.34384765625,1.3599609375,1.36640625,1.3728515625,1.38251953125,1.3921875,1.40185546875,1.405078125,1.3921875,1.3599609375,1.33740234375,1.34384765625,1.3470703125,1.33095703125,1.3212890625,1.31806640625,1.32451171875,1.33740234375,1.3341796875,1.2826171875,1.340625,1.70478515625,2.09794921875,1.91748046875,1.22783203125,0.8572265625,1.14404296875,1.46953125,1.41796875,1.31162109375,1.3728515625,1.4115234375,1.3728515625,1.379296875,1.41796875,1.41474609375,1.405078125,1.430859375,1.45341796875,1.456640625,1.45986328125,1.47275390625,1.4953125,1.52431640625,1.55654296875,1.57587890625,1.58232421875,1.5984375,1.62421875,1.62421875,1.585546875,1.53076171875,1.4953125,1.4630859375,1.41796875,1.36318359375,1.3341796875,1.32451171875,1.3212890625,1.3212890625,1.31806640625,1.31806640625,1.31806640625,1.31484375,1.3083984375,1.31162109375,1.3341796875,1.3470703125,1.3341796875,1.33095703125,1.35029296875,1.353515625,1.327734375,1.3212890625,1.35029296875,1.36962890625,1.35673828125,1.340625,1.353515625,1.379296875,1.37607421875,1.3599609375,1.3728515625,1.4115234375,1.42763671875,1.41796875,1.42119140625,1.430859375,1.3986328125,1.3470703125,1.3341796875,1.353515625,1.3599609375,1.34384765625,1.340625,1.340625,1.3341796875,1.33095703125,1.301953125,1.2826171875,1.46953125,1.90458984375,2.1140625,1.65966796875,0.9990234375,0.9087890625,1.2955078125,1.482421875,1.36962890625,1.327734375,1.3986328125,1.405078125,1.379296875,1.3857421875,1.3921875,1.405078125,1.44052734375,1.45341796875,1.430859375,1.430859375,1.4630859375,1.4953125,1.51787109375,1.53720703125,1.56298828125,1.58876953125,1.60810546875,1.61455078125,1.611328125,1.58876953125,1.546875,1.508203125,1.47919921875,1.44697265625,1.40185546875,1.35673828125,1.327734375,1.31484375,1.30517578125,1.29873046875,1.301953125,1.301953125,1.29873046875,1.2955078125,1.30517578125,1.3212890625,1.32451171875,1.31484375,1.31484375,1.327734375,1.32451171875,1.30517578125,1.31484375,1.3470703125,1.353515625,1.33095703125,1.31806640625,1.340625,1.36640625,1.36640625,1.3599609375,1.37607421875,1.3986328125,1.3986328125,1.39541015625,1.41796875,1.4244140625,1.379296875,1.327734375,1.327734375,1.35029296875,1.34384765625,1.3212890625,1.31806640625,1.31806640625,1.31806640625,1.3212890625,1.29873046875,1.3083984375,1.55009765625,1.98515625,2.06572265625,1.49208984375,0.88623046875,0.95712890625,1.36962890625,1.46630859375,1.340625,1.36318359375,1.43408203125,1.3986328125,1.36962890625,1.405078125,1.41796875,1.40185546875,1.4115234375,1.43408203125,1.44375,1.45986328125,1.48564453125,1.49853515625,1.51142578125,1.54365234375,1.57265625,1.585546875,1.60166015625,1.6177734375,1.6048828125,1.57587890625,1.5533203125,1.5275390625,1.47919921875,1.41796875,1.37607421875,1.35029296875,1.33095703125,1.32451171875,1.31806640625,1.29873046875,1.27939453125,1.2955078125,1.32451171875,1.327734375,1.31484375,1.31484375,1.33095703125,1.3341796875,1.327734375,1.327734375,1.33740234375,1.33740234375,1.3341796875,1.33740234375,1.3470703125,1.353515625,1.3599609375,1.36962890625,1.38251953125,1.38896484375,1.39541015625,1.405078125,1.40185546875,1.36318359375,1.327734375,1.327734375,1.340625,1.3341796875,1.3212890625,1.31484375,1.3083984375,1.31162109375,1.327734375,1.301953125,1.301953125,1.546875,1.97548828125,2.0302734375,1.43408203125,0.85400390625,0.9603515625,1.38251953125,1.4759765625,1.35029296875,1.3599609375,1.4244140625,1.3986328125,1.36962890625,1.39541015625,1.405078125,1.40185546875,1.41796875,1.4373046875,1.44375,1.45341796875,1.47919921875,1.508203125,1.51787109375,1.533984375,1.5662109375,1.60166015625,1.6177734375,1.611328125,1.59521484375,1.57265625,1.54365234375,1.5146484375,1.47919921875,1.42763671875,1.379296875,1.353515625,1.33740234375,1.31806640625,1.30517578125,1.30517578125,1.30517578125,1.29873046875,1.30517578125,1.32451171875,1.33740234375,1.327734375,1.3212890625,1.33095703125,1.34384765625,1.34384765625,1.33740234375,1.33740234375,1.3470703125,1.353515625,1.36640625,1.36962890625,1.353515625,1.353515625,1.38896484375,1.40830078125,1.39541015625,1.39541015625,1.40830078125,1.38896484375,1.34384765625,1.3341796875,1.34384765625,1.3341796875,1.32451171875,1.33095703125,1.3341796875,1.31806640625,1.30517578125,1.276171875,1.2955078125,1.5404296875,1.97548828125,2.0947265625,1.559765625,0.9345703125,0.95390625,1.35673828125,1.46953125,1.340625,1.35673828125,1.4373046875,1.405078125,1.36318359375,1.39541015625,1.4115234375,1.39541015625,1.405078125,1.42763671875,1.4373046875,1.44375,1.4630859375,1.4888671875,1.51142578125,1.53076171875,1.56298828125,1.585546875,1.59521484375,1.58876953125,1.56943359375,1.546875,1.53076171875,1.51142578125,1.46953125,1.40830078125,1.36640625,1.35673828125,1.3470703125,1.3212890625,1.29228515625,1.28583984375,1.29873046875,1.3083984375,1.3083984375,1.31162109375,1.32451171875,1.340625,1.33740234375,1.3212890625,1.31806640625,1.33095703125,1.3341796875,1.327734375,1.32451171875,1.33095703125,1.353515625,1.3728515625,1.3728515625,1.36318359375,1.36962890625,1.3857421875,1.3921875,1.3986328125,1.41796875,1.4244140625,1.3857421875,1.33095703125,1.31484375,1.340625,1.353515625,1.3470703125,1.33740234375,1.327734375,1.32451171875,1.327734375,1.29873046875,1.2826171875,1.49853515625,1.95615234375,2.1205078125,1.60166015625,0.9474609375,0.928125,1.3341796875,1.47275390625,1.35029296875,1.33740234375,1.4115234375,1.40185546875,1.3728515625,1.39541015625,1.41474609375,1.40830078125,1.41796875,1.430859375,1.430859375,1.44052734375,1.4630859375,1.49208984375,1.5146484375,1.5404296875,1.5662109375,1.58232421875,1.58876953125,1.5984375,1.5984375,1.5791015625,1.546875,1.508203125,1.46630859375,1.41796875,1.379296875,1.3470703125,1.33095703125,1.32451171875,1.31162109375,1.2890625,1.2890625,1.31162109375,1.3212890625,1.31162109375,1.31162109375,1.31484375,1.31162109375,1.31484375,1.33095703125,1.33740234375,1.327734375,1.327734375,1.33740234375,1.340625,1.33740234375,1.3470703125,1.36640625,1.37607421875,1.36640625,1.35673828125,1.37607421875,1.40830078125,1.4244140625,1.41474609375,1.3921875,1.3599609375,1.34384765625,1.340625,1.33095703125,1.3212890625,1.32451171875,1.33095703125,1.33095703125,1.33095703125,1.32451171875,1.27939453125,1.327734375,1.662890625,2.075390625,1.97548828125,1.30517578125,0.84755859375,1.0634765625,1.430859375,1.44375,1.34384765625,1.3857421875,1.4244140625,1.38251953125,1.379296875,1.4115234375,1.40830078125,1.3921875,1.40185546875,1.42763671875,1.45341796875,1.4759765625,1.4888671875,1.5017578125,1.5275390625,1.55654296875,1.56943359375,1.5791015625,1.59521484375,1.5984375,1.5919921875,1.58232421875,1.55654296875,1.5017578125,1.44375,1.40830078125,1.3728515625,1.340625,1.31806640625,1.3083984375,1.30517578125,1.29873046875,1.301953125,1.31484375,1.32451171875,1.31484375,1.3083984375,1.3212890625,1.34384765625,1.34384765625,1.33740234375,1.3470703125,1.353515625,1.34384765625,1.34384765625,1.3599609375,1.3599609375,1.353515625,1.36318359375,1.38251953125,1.38896484375,1.38896484375,1.41474609375,1.42763671875,1.3857421875,1.33095703125,1.31806640625,1.327734375,1.33095703125,1.327734375,1.3341796875,1.3212890625,1.301953125,1.3212890625,1.3341796875,1.2890625,1.36318359375,1.740234375,2.075390625,1.78212890625,1.0763671875,0.8314453125,1.198828125,1.46953125,1.38251953125,1.3212890625,1.40185546875,1.40830078125,1.35029296875,1.36962890625,1.42119140625,1.41474609375,1.3986328125,1.41474609375,1.4373046875,1.44375,1.45341796875,1.47919921875,1.50498046875,1.53076171875,1.559765625,1.58876953125,1.60166015625,1.5984375,1.5919921875,1.57587890625,1.5533203125,1.5275390625,1.49853515625,1.456640625,1.40830078125,1.36962890625,1.3470703125,1.327734375,1.31162109375,1.30517578125,1.301953125,1.30517578125,1.31806640625,1.3341796875,1.340625,1.3341796875,1.33095703125,1.3341796875,1.340625,1.353515625,1.36318359375,1.3599609375,1.35029296875,1.35673828125,1.36962890625,1.36962890625,1.36318359375,1.36962890625,1.38896484375,1.39541015625,1.3986328125,1.405078125,1.41796875,1.42763671875,1.41796875,1.38251953125,1.3599609375,1.36640625,1.3728515625,1.35673828125,1.3341796875,1.33740234375,1.340625,1.3341796875,1.3341796875,1.31806640625,1.29228515625,1.456640625,1.88525390625,2.11728515625,1.69189453125,1.0248046875,0.9216796875,1.31484375,1.51142578125,1.40185546875,1.340625,1.39541015625,1.4115234375,1.405078125,1.4244140625,1.42763671875
1.379296875,1.3857421875,1.3921875,1.3986328125,1.3857421875,1.353515625,1.32451171875,1.32451171875,1.3341796875,1.33095703125,1.31806640625,1.31162109375,1.3212890625,1.33095703125,1.2955078125,1.2955078125,1.55009765625,2.0044921875,2.09150390625,1.51142578125,0.93134765625,1.018359375,1.41474609375,1.482421875,1.340625,1.35029296875,1.42119140625,1.3986328125,1.37607421875,1.39541015625,1.405078125,1.405078125,1.4244140625,1.4373046875,1.43408203125,1.4373046875,1.45986328125,1.48564453125,1.50498046875,1.51787109375,1.53720703125,1.559765625,1.57265625,1.559765625,1.54365234375,1.53720703125,1.52431640625,1.49208984375,1.44697265625,1.4115234375,1.38251953125,1.3470703125,1.31162109375,1.301953125,1.30517578125,1.29873046875,1.2826171875,1.27939453125,1.29228515625,1.301953125,1.3083984375,1.3212890625,1.32451171875,1.31162109375,1.3083984375,1.3212890625,1.340625,1.34384765625,1.327734375,1.32451171875,1.340625,1.353515625,1.35029296875,1.34384765625,1.353515625,1.36962890625,1.3857421875,1.3986328125,1.41796875,1.4244140625,1.405078125,1.36962890625,1.34384765625,1.33740234375,1.33740234375,1.340625,1.34384765625,1.340625,1.3341796875,1.34384765625,1.327734375,1.27939453125,1.353515625,1.7208984375,2.07861328125,1.87880859375,1.22138671875,0.9087890625,1.198828125,1.4888671875,1.42763671875,1.3341796875,1.3986328125,1.42763671875,1.38896484375,1.3921875,1.41796875,1.41474609375,1.4115234375,1.4373046875,1.45986328125,1.46953125,1.4759765625,1.49208984375,1.51142578125,1.52431640625,1.53720703125,1.56298828125,1.57587890625,1.57265625,1.56298828125,1.56298828125,1.546875,1.51787109375,1.49853515625,1.47275390625,1.42763671875,1.37607421875,1.34384765625,1.3212890625,1.29873046875,1.29228515625,1.30517578125,1.31162109375,1.31162109375,1.31484375,1.31484375,1.31484375,1.31162109375,1.31806640625,1.33095703125,1.33740234375,1.33740234375,1.33095703125,1.33095703125,1.33740234375,1.340625,1.33740234375,1.3341796875,1.340625,1.353515625,1.36640625,1.379296875,1.38896484375,1.3921875,1.40830078125,1.4115234375,1.38251953125,1.34384765625,1.33740234375,1.3470703125,1.340625,1.327734375,1.32451171875,1.32451171875,1.327734375,1.327734375,1.2955078125,1.2890625,1.5146484375,1.9529296875,2.0818359375,1.56298828125,0.9603515625,0.9796875,1.3728515625,1.4888671875,1.3599609375,1.3470703125,1.41474609375,1.40185546875,1.379296875,1.4115234375,1.4244140625,1.40830078125,1.41474609375,1.44375,1.456640625,1.456640625,1.47275390625,1.50498046875,1.51787109375,1.52431640625,1.546875,1.56943359375,1.57265625,1.56943359375,1.57265625,1.56298828125,1.54365234375,1.51787109375,1.4759765625,1.42119140625,1.3857421875,1.36318359375,1.33095703125,1.301953125,1.29228515625,1.2955078125,1.2955078125,1.2955078125,1.301953125,1.301953125,1.30517578125,1.3212890625,1.32451171875,1.31806640625,1.31806640625,1.33740234375,1.33740234375,1.3212890625,1.3212890625,1.340625,1.35029296875,1.34384765625,1.34384765625,1.353515625,1.36962890625,1.38896484375,1.39541015625,1.3986328125,1.405078125,1.3986328125,1.36318359375,1.3212890625,1.31806640625,1.33740234375,1.34384765625,1.3341796875,1.3212890625,1.31806640625,1.3212890625,1.31162109375,1.28583984375,1.41796875,1.81435546875,2.0689453125,1.688671875,1.02158203125,0.89267578125,1.28583984375,1.508203125,1.4115234375,1.36962890625,1.4373046875,1.430859375,1.38896484375,1.3986328125,1.42119140625,1.41796875,1.42119140625,1.44052734375,1.4630859375,1.46953125,1.46630859375,1.47919921875,1.51142578125,1.5404296875,1.5533203125,1.559765625,1.57587890625,1.5791015625,1.56943359375,1.56943359375,1.56298828125,1.53076171875,1.482421875,1.44052734375,1.4115234375,1.379296875,1.3341796875,1.29873046875,1.2890625,1.2955078125,1.29873046875,1.29228515625,1.29228515625,1.29873046875,1.3083984375,1.3212890625,1.33095703125,1.327734375,1.31484375,1.31806640625,1.33740234375,1.35029296875,1.35029296875,1.35029296875,1.353515625,1.35673828125,1.35673828125,1.36318359375,1.37607421875,1.38251953125,1.38896484375,1.40830078125,1.4115234375,1.36962890625,1.3212890625,1.31806640625,1.3470703125,1.353515625,1.3341796875,1.32451171875,1.3341796875,1.35029296875,1.3341796875,1.27294921875,1.33740234375,1.71123046875,2.09150390625,1.89169921875,1.21171875,0.8830078125,1.1794921875,1.4888671875,1.44375,1.35029296875,1.40185546875,1.4244140625,1.379296875,1.38251953125,1.41796875,1.4244140625,1.4244140625,1.44052734375,1.4501953125,1.4501953125,1.46630859375,1.49208984375,1.5146484375,1.51787109375,1.52109375,1.54365234375,1.57265625,1.58232421875,1.57587890625,1.56298828125,1.55654296875,1.5404296875,1.49853515625,1.44375,1.39541015625,1.36318359375,1.340625,1.31806640625,1.29873046875,1.2890625,1.2890625,1.2955078125,1.301953125,1.3083984375,1.3083984375,1.31162109375,1.3212890625,1.32451171875,1.3212890625,1.327734375,1.33095703125,1.33095703125,1.327734375,1.33095703125,1.33740234375,1.35029296875,1.3599609375,1.3599609375,1.36318359375,1.379296875,1.3921875,1.3986328125,1.40830078125,1.40185546875,1.36640625,1.33740234375,1.3341796875,1.340625,1.33740234375,1.327734375,1.3212890625,1.3212890625,1.33095703125,1.31484375,1.26005859375,1.35029296875,1.7466796875,2.101171875,1.8498046875,1.17626953125,0.90556640625,1.22138671875,1.4888671875,1.4115234375,1.32451171875,1.38251953125,1.4115234375,1.38251953125,1.38896484375,1.4115234375,1.41474609375,1.42119140625,1.43408203125,1.44052734375,1.4501953125,1.46630859375,1.47919921875,1.49208984375,1.51142578125,1.53720703125,1.5533203125,1.56298828125,1.56298828125,1.5662109375,1.559765625,1.53720703125,1.50498046875,1.47275390625,1.44375,1.40830078125,1.36962890625,1.33740234375,1.31806640625,1.30517578125,1.29873046875,1.29873046875,1.29228515625,1.29873046875,1.31806640625,1.3341796875,1.327734375,1.31162109375,1.31806640625,1.33095703125,1.327734375,1.32451171875,1.3341796875,1.340625,1.33095703125,1.3341796875,1.353515625,1.36318359375,1.3599609375,1.36640625,1.38251953125,1.38896484375,1.3921875,1.40830078125,1.4244140625,1.4115234375,1.3728515625,1.33740234375,1.3341796875,1.3470703125,1.35029296875,1.34384765625,1.33095703125,1.327734375,1.3470703125,1.33740234375,1.28583984375,1.36962890625,1.74990234375,2.0818359375,1.8240234375,1.1666015625,0.91201171875,1.2310546875,1.4953125,1.41796875,1.33740234375,1.40185546875,1.430859375,1.3857421875,1.3857421875,1.4244140625,1.4373046875,1.42763671875,1.43408203125,1.45341796875,1.4630859375,1.46630859375,1.482421875,1.508203125,1.52431640625,1.53076171875,1.55009765625,1.57587890625,1.585546875,1.5662109375,1.55009765625,1.54365234375,1.53076171875,1.49208984375,1.44052734375,1.39541015625,1.36318359375,1.33740234375,1.31484375,1.30517578125,1.301953125,1.301953125,1.301953125,1.301953125,1.2955078125,1.29873046875,1.31806640625,1.3341796875,1.3341796875,1.32451171875,1.327734375,1.340625,1.34384765625,1.3341796875,1.33095703125,1.3341796875,1.340625,1.353515625,1.36318359375,1.353515625,1.35029296875,1.3728515625,1.39541015625,1.3986328125,1.4115234375,1.42763671875,1.405078125,1.353515625,1.33095703125,1.34384765625,1.3470703125,1.3341796875,1.3341796875,1.33095703125,1.3212890625,1.327734375,1.33095703125,1.2890625,1.35029296875,1.69833984375,2.0625,1.869140625,1.2052734375,0.87978515625,1.17626953125,1.482421875,1.43408203125,1.34384765625,1.40830078125,1.44697265625,1.3986328125,1.3857421875,1.41796875,1.43408203125,1.4373046875,1.44375,1.44697265625,1.456640625,1.47275390625,1.4953125,1.50498046875,1.508203125,1.52431640625,1.559765625,1.58876953125,1.58876953125,1.5791015625,1.5662109375,1.5533203125,1.533984375,1.508203125,1.4630859375,1.405078125,1.36640625,1.35029296875,1.33095703125,1.31162109375,1.2955078125,1.2890625,1.2890625,1.2890625,1.2890625,1.301953125,1.32451171875,1.33095703125,1.31806640625,1.31162109375,1.32451171875,1.340625,1.33740234375,1.3212890625,1.31484375,1.33095703125,1.353515625,1.36318359375,1.35029296875,1.340625,1.35673828125,1.38251953125,1.39541015625,1.39541015625,1.3986328125,1.3986328125,1.37607421875,1.33740234375,1.31484375,1.31484375,1.327734375,1.34384765625,1.33740234375,1.31806640625,1.33095703125,1.33740234375,1.28583984375,1.33095703125,1.67900390625,2.0625,1.9078125,1.25361328125,0.89267578125,1.16015625,1.47919921875,1.4501953125,1.353515625,1.405078125,1.4373046875,1.3921875,1.37607421875,1.40830078125,1.42119140625,1.4244140625,1.4373046875,1.44697265625,1.45986328125,1.4759765625,1.4888671875,1.5017578125,1.5146484375,1.53720703125,1.5662109375,1.5791015625,1.57265625,1.56943359375,1.57265625,1.56943359375,1.5404296875,1.4953125,1.4501953125,1.40830078125,1.37607421875,1.34384765625,1.31162109375,1.2955078125,1.301953125,1.30517578125,1.2955078125,1.2890625,1.2955078125,1.301953125,1.30517578125,1.31484375,1.32451171875,1.33095703125,1.33095703125,1.33740234375,1.340625,1.33740234375,1.3341796875,1.327734375,1.327734375,1.33740234375,1.353515625,1.36318359375,1.36318359375,1.36640625,1.379296875,1.39541015625,1.40185546875,1.40830078125,1.40830078125,1.38896484375,1.35673828125,1.34384765625,1.3470703125,1.340625,1.32451171875,1.33095703125,1.3341796875,1.327734375,1.3212890625,1.29873046875,1.2890625,1.4953125,1.93359375,2.0947265625,1.58876953125,0.97001953125,0.98291015625,1.3857421875,1.49208984375,1.3470703125,1.340625,1.430859375,1.42763671875,1.3921875,1.405078125,1.42763671875,1.43408203125,1.43408203125,1.43408203125,1.44697265625,1.4630859375,1.47919921875,1.4888671875,1.50498046875,1.53076171875,1.5533203125,1.56943359375,1.57587890625,1.57587890625,1.57587890625,1.56298828125,1.533984375,1.49853515625,1.46630859375,1.42763671875,1.3857421875,1.353515625,1.33740234375,1.31806640625,1.2955078125,1.2890625,1.29873046875,1.301953125,1.29873046875,1.2955078125,1.30517578125,1.31484375,1.3212890625,1.3341796875,1.33740234375,1.33095703125,1.327734375,1.33740234375,1.33740234375,1.327734375,1.3212890625,1.3212890625,1.31806640625,1.33095703125,1.3470703125,1.3599609375,1.36640625,1.36962890625,1.3728515625,1.37607421875,1.3857421875,1.40185546875,1.41796875,1.42763671875,1.405078125,1.3599609375,1.340625,1.3470703125,1.35673828125,1.3470703125,1.340625,1.3341796875,1.3341796875,1.34384765625,1.340625,1.2890625,1.31484375,1.64033203125,2.0818359375,2.03349609375,1.40185546875,0.93779296875,1.121484375,1.4630859375,1.456640625,1.340625,1.38251953125,1.43408203125,1.3986328125,1.38251953125,1.42119140625,1.4373046875,1.43408203125,1.44375,1.45341796875,1.456640625,1.46630859375,1.47919921875,1.4953125,1.5146484375,1.53720703125,1.5533203125,1.56943359375,1.585546875,1.585546875,1.56943359375,1.546875,1.5275390625,1.5017578125,1.4630859375,1.41474609375,1.36962890625,1.34384765625,1.33095703125,1.3212890625,1.31162109375,1.30517578125,1.301953125,1.2955078125,1.2955078125,1.30517578125,1.31806640625,1.3212890625,1.3212890625,1.32451171875,1.33095703125,1.33740234375,1.340625,1.3341796875,1.3212890625,1.31162109375,1.327734375,1.34384765625,1.3341796875,1.32451171875,1.33740234375,1.3470703125,1.33740234375,1.327734375,1.340625,1.3599609375,1.36318359375,1.35673828125,1.36318359375,1.38251953125,1.3986328125,1.40185546875,1.40830078125,1.42763671875,1.4244140625,1.379296875,1.340625,1.34384765625,1.35673828125,1.353515625,1.340625,1.33095703125,1.32451171875,1.33095703125,1.340625,1.301953125,1.33095703125,1.637109375,2.0689453125,2.03994140625,1.40830078125,0.915234375,1.09248046875,1.456640625,1.46953125,1.340625,1.379296875,1.44375,1.41474609375,1.39541015625,1.42119140625,1.430859375,1.42763671875,1.44052734375,1.4630859375,1.47919921875,1.482421875,1.47919921875,1.4888671875,1.51787109375,1.55009765625,1.56943359375,1.58232421875,1.58876953125,1.5919921875,1.58232421875,1.56943359375,1.5533203125,1.52431640625,1.47919921875,1.44052734375,1.4115234375,1.36962890625,1.32451171875,1.30517578125,1.3083984375,1.3083984375,1.29873046875,1.2955078125,1.301953125,1.3083984375,1.30517578125,1.31162109375,1.32451171875,1.32451171875,1.32451171875,1.327734375,1.3341796875,1.3341796875,1.32451171875,1.31806640625,1.3212890625,1.32451171875,1.3212890625,1.327734375,1.340625,1.340625,1.33740234375,1.3470703125,1.3599609375,1.353515625,1.34384765625,1.36318359375,1.40185546875,1.41474609375,1.4115234375,1.41474609375,1.40185546875,1.3599609375,1.33095703125,1.33740234375,1.3470703125,1.33740234375,1.3341796875,1.33740234375,1.33740234375,1.34384765625,1.33740234375,1.29228515625,1.38251953125,1.75634765625,2.0689453125,1.76923828125,1.09892578125,0.8830078125,1.24072265625,1.50498046875,1.4244140625,1.35673828125,1.42763671875,1.43408203125,1.379296875,1.38896484375,1.43408203125,1.44375,1.430859375,1.43408203125,1.4501953125,1.46953125,1.4888671875,1.4953125,1.508203125,1.533984375,1.56298828125,1.58232421875,1.58876953125,1.58876953125,1.58876953125,1.58232421875,1.5662109375,1.54365234375,1.508203125,1.456640625,1.3986328125,1.36962890625,1.36318359375,1.340625,1.3083984375,1.28583984375,1.28583984375,1.29228515625,1.29873046875,1.301953125,1.2955078125,1.28583984375,1.2955078125,1.31806640625,1.33095703125,1.327734375,1.327734375,1.3341796875,1.33095703125,1.31806640625,1.3212890625,1.32451171875,1.3212890625,1.3212890625,1.33740234375,1.3470703125,1.34384765625,1.340625,1.340625,1.35029296875,1.37607421875,1.40185546875,1.405078125,1.3921875,1.40185546875,1.405078125,1.3728515625,1.340625,1.340625,1.35029296875,1.33740234375,1.31806640625,1.3212890625,1.3341796875,1.34384765625,1.30517578125,1.26005859375,1.42119140625,1.85302734375,2.0947265625,1.68544921875,1.0376953125,0.9345703125,1.31162109375,1.49853515625,1.38251953125,1.340625,1.4244140625,1.43408203125,1.39541015625,1.40830078125,1.430859375,1.42763671875,1.42763671875,1.44697265625,1.46953125,1.4759765625,1.47919921875,1.48564453125,1.50498046875,1.5275390625,1.5533203125,1.57587890625,1.585546875,1.585546875,1.58232421875,1.5791015625,1.5662109375,1.533984375,1.4953125,1.4501953125,1.405078125,1.3599609375,1.33095703125,1.31806640625,1.3083984375,1.301953125,1.30517578125,1.31162109375,1.31162109375,1.30517578125,1.30517578125,1.31484375,1.327734375,1.3341796875,1.327734375,1.33095703125,1.340625,1.35029296875,1.3470703125,1.340625,1.33740234375,1.34384765625,1.35029296875,1.3470703125,1.34384765625,1.3470703125,1.35673828125,1.36318359375,1.36962890625,1.37607421875,1.38896484375,1.4115234375,1.4244140625,1.430859375,1.4373046875,1.42119140625,1.379296875,1.34384765625,1.340625,1.35029296875,1.353515625,1.3599609375,1.3599609375,1.34384765625,1.340625,1.340625,1.30517578125,1.36962890625,1.7208984375,2.09794921875,1.93359375,1.276171875,0.915234375,1.1794921875,1.4953125,1.45341796875,1.34384765625,1.38896484375,1.43408203125,1.3986328125,1.39541015625,1.42763671875,1.44052734375,1.44375,1.45341796875,1.45986328125,1.46630859375,1.4759765625,1.4888671875,1.49853515625,1.52431640625,1.5533203125,1.56943359375,1.57265625,1.58232421875,1.58876953125,1.57265625,1.546875,1.53076171875,1.50498046875,1.4630859375,1.41474609375,1.3728515625,1.340625,1.31484375,1.301953125,1.2955078125,1.2890625,1.28583984375,1.28583984375,1.2955078125,1.30517578125,1.30517578125,1.29873046875,1.29873046875,1.30517578125,1.3083984375,1.31162109375,1.31806640625,1.32451171875,1.3212890625,1.31484375,1.31484375,1.31162109375,1.31484375,1.33095703125,1.33095703125,1.31806640625,1.32451171875,1.3470703125,1.35029296875,1.34384765625,1.35673828125,1.38251953125,1.38896484375,1.38896484375,1.3986328125,1.40185546875,1.36640625,1.33095703125,1.327734375,1.33740234375,1.3341796875,1.32451171875,1.3212890625,1.31484375,1.31806640625,1.3083984375,1.276171875,1.3599609375,1.72734375,2.06572265625,1.817578125,1.15048828125,0.87978515625,1.1923828125,1.46630859375,1.405078125,1.33740234375,1.39541015625,1.40830078125,1.379296875,1.39541015625,1.42119140625,1.4115234375,1.40830078125,1.430859375,1.44697265625,1.456640625,1.46630859375,1.47919921875,1.4953125,1.52109375,1.546875,1.56943359375,1.58232421875,1.5919921875,1.59521484375,1.59521484375,1.5791015625,1.546875,1.508203125,1.46953125,1.42763671875,1.38896484375,1.3599609375,1.33740234375,1.3212890625,1.3083984375,1.301953125,1.31162109375,1.327734375,1.3341796875,1.3212890625,1.31806640625,1.3341796875,1.3599609375,1.3728515625,1.36640625,1.36640625,1.37607421875,1.3857421875,1.38251953125,1.37607421875,1.37607421875,1.38251953125,1.3986328125
1.44375,1.45341796875,1.46630859375,1.4888671875,1.5146484375,1.533984375,1.5533203125,1.56943359375,1.58232421875,1.5919921875,1.5919921875,1.56943359375,1.53720703125,1.5017578125,1.46630859375,1.41796875,1.36962890625,1.340625,1.3212890625,1.2955078125,1.27294921875,1.27294921875,1.29228515625,1.29873046875,1.2955078125,1.29228515625,1.29873046875,1.3083984375,1.3083984375,1.30517578125,1.301953125,1.31162109375,1.32451171875,1.327734375,1.31806640625,1.31806640625,1.33740234375,1.33740234375,1.3212890625,1.327734375,1.353515625,1.36640625,1.36640625,1.3728515625,1.3921875,1.405078125,1.405078125,1.40185546875,1.3986328125,1.3728515625,1.34384765625,1.33740234375,1.34384765625,1.33740234375,1.327734375,1.33095703125,1.340625,1.3470703125,1.33095703125,1.2826171875,1.327734375,1.6564453125,2.07216796875,1.99482421875,1.35029296875,0.91201171875,1.121484375,1.46630859375,1.46630859375,1.36318359375,1.3986328125,1.43408203125,1.3986328125,1.40185546875,1.44375,1.4373046875,1.42119140625,1.44052734375,1.4630859375,1.46953125,1.46630859375,1.4888671875,1.52109375,1.54365234375,1.55654296875,1.5791015625,1.60810546875,1.62099609375,1.60810546875,1.585546875,1.5662109375,1.55654296875,1.53720703125,1.48564453125,1.42119140625,1.37607421875,1.3470703125,1.32451171875,1.30517578125,1.29873046875,1.301953125,1.2955078125,1.29228515625,1.29228515625,1.301953125,1.3083984375,1.31484375,1.31806640625,1.3212890625,1.31806640625,1.3212890625,1.3341796875,1.33095703125,1.32451171875,1.32451171875,1.3341796875,1.340625,1.34384765625,1.35029296875,1.3599609375,1.36318359375,1.36962890625,1.38251953125,1.3986328125,1.40830078125,1.3986328125,1.36962890625,1.340625,1.33095703125,1.3341796875,1.33095703125,1.3212890625,1.31162109375,1.31162109375,1.3212890625,1.33740234375,1.31484375,1.27939453125,1.44375,1.86591796875,2.07861328125,1.64033203125,0.9990234375,0.928125,1.31162109375,1.482421875,1.37607421875,1.3599609375,1.43408203125,1.4115234375,1.36318359375,1.3921875,1.430859375,1.4244140625,1.41796875,1.4373046875,1.44697265625,1.44697265625,1.456640625,1.4888671875,1.52109375,1.53720703125,1.5533203125,1.5791015625,1.60166015625,1.60166015625,1.5919921875,1.5791015625,1.56298828125,1.53076171875,1.4759765625,1.4244140625,1.38896484375,1.3599609375,1.32451171875,1.29873046875,1.2890625,1.2826171875,1.276171875,1.276171875,1.276171875,1.27939453125,1.2890625,1.301953125,1.31484375,1.31484375,1.31484375,1.31484375,1.31162109375,1.31806640625,1.327734375,1.327734375,1.327734375,1.32451171875,1.32451171875,1.33740234375,1.353515625,1.353515625,1.34384765625,1.353515625,1.38251953125,1.3921875,1.3986328125,1.40830078125,1.3986328125,1.353515625,1.327734375,1.340625,1.35673828125,1.34384765625,1.32451171875,1.3212890625,1.327734375,1.33740234375,1.3341796875,1.2955078125,1.3083984375,1.5791015625,2.01416015625,2.0625,1.48564453125,0.941015625,1.04091796875,1.4244140625,1.4888671875,1.36640625,1.38251953125,1.44052734375,1.4115234375,1.3921875,1.430859375,1.44697265625,1.43408203125,1.4373046875,1.456640625,1.4630859375,1.47275390625,1.4953125,1.51787109375,1.533984375,1.55009765625,1.57587890625,1.59521484375,1.6048828125,1.6177734375,1.6177734375,1.60166015625,1.57265625,1.5404296875,1.4953125,1.4373046875,1.3921875,1.3599609375,1.33740234375,1.31484375,1.30517578125,1.30517578125,1.31484375,1.31484375,1.31162109375,1.3083984375,1.30517578125,1.30517578125,1.3212890625,1.340625,1.340625,1.327734375,1.32451171875,1.327734375,1.33095703125,1.33095703125,1.32451171875,1.32451171875,1.33095703125,1.3470703125,1.35673828125,1.3599609375,1.35673828125,1.36318359375,1.379296875,1.38896484375,1.39541015625,1.405078125,1.41474609375,1.3986328125,1.3599609375,1.3341796875,1.33740234375,1.340625,1.3341796875,1.340625,1.34384765625,1.327734375,1.32451171875,1.327734375,1.29228515625,1.327734375,1.65,2.06572265625,1.98837890625,1.3599609375,0.928125,1.13115234375,1.45341796875,1.4373046875,1.33095703125,1.3728515625,1.41796875,1.3857421875,1.38251953125,1.42119140625,1.4244140625,1.4115234375,1.42763671875,1.44697265625,1.4501953125,1.456640625,1.46953125,1.49208984375,1.51787109375,1.546875,1.56943359375,1.5791015625,1.5919921875,1.5984375,1.59521484375,1.56943359375,1.533984375,1.49853515625,1.4630859375,1.42119140625,1.3728515625,1.3341796875,1.30517578125,1.2890625,1.28583984375,1.2955078125,1.2955078125,1.2890625,1.28583984375,1.29228515625,1.301953125,1.30517578125,1.30517578125,1.30517578125,1.30517578125,1.30517578125,1.30517578125,1.31484375,1.3212890625,1.327734375,1.33095703125,1.33095703125,1.3212890625,1.3212890625,1.33095703125,1.3341796875,1.3341796875,1.3470703125,1.35673828125,1.353515625,1.35673828125,1.38251953125,1.40185546875,1.39541015625,1.39541015625,1.4115234375,1.405078125,1.36640625,1.3341796875,1.33740234375,1.3470703125,1.34384765625,1.33740234375,1.33095703125,1.327734375,1.33740234375,1.33740234375,1.28583984375,1.31806640625,1.6435546875,2.0818359375,2.049609375,1.4244140625,0.93134765625,1.09248046875,1.44375,1.4630859375,1.3470703125,1.379296875,1.430859375,1.3986328125,1.3921875,1.43408203125,1.44052734375,1.430859375,1.44697265625,1.4630859375,1.45986328125,1.45986328125,1.48564453125,1.51787109375,1.5404296875,1.5533203125,1.5662109375,1.58876953125,1.60810546875,1.61455078125,1.6048828125,1.58876953125,1.57587890625,1.5404296875,1.48564453125,1.430859375,1.39541015625,1.36318359375,1.32451171875,1.301953125,1.30517578125,1.3083984375,1.29873046875,1.2955078125,1.301953125,1.30517578125,1.30517578125,1.31484375,1.3212890625,1.31806640625,1.31162109375,1.3083984375,1.31806640625,1.327734375,1.33095703125,1.32451171875,1.327734375,1.3470703125,1.3470703125,1.33095703125,1.3212890625,1.3341796875,1.35029296875,1.3599609375,1.36318359375,1.3599609375,1.3599609375,1.37607421875,1.405078125,1.4244140625,1.4244140625,1.405078125,1.36962890625,1.34384765625,1.33740234375,1.340625,1.3341796875,1.33095703125,1.33740234375,1.33740234375,1.327734375,1.327734375,1.30517578125,1.2955078125,1.49853515625,1.93359375,2.09150390625,1.58232421875,0.9474609375,0.95390625,1.36318359375,1.49208984375,1.36640625,1.37607421875,1.456640625,1.42119140625,1.379296875,1.4115234375,1.430859375,1.41796875,1.4244140625,1.456640625,1.46630859375,1.46630859375,1.482421875,1.50498046875,1.52431640625,1.54365234375,1.5662109375,1.585546875,1.5984375,1.611328125,1.61455078125,1.59521484375,1.56943359375,1.5404296875,1.5017578125,1.44697265625,1.39541015625,1.3599609375,1.340625,1.31484375,1.28583984375,1.2826171875,1.28583984375,1.28583984375,1.2826171875,1.2890625,1.301953125,1.30517578125,1.30517578125,1.3083984375,1.31806640625,1.327734375,1.3341796875,1.3341796875,1.33095703125,1.32451171875,1.3212890625,1.3212890625,1.327734375,1.33740234375,1.340625,1.34384765625,1.34384765625,1.3470703125,1.35673828125,1.38251953125,1.405078125,1.405078125,1.39541015625,1.3921875,1.3728515625,1.340625,1.33095703125,1.340625,1.33740234375,1.32451171875,1.32451171875,1.327734375,1.33095703125,1.340625,1.31484375,1.28583984375,1.47919921875,1.9271484375,2.11083984375,1.61455078125,0.96357421875,0.9345703125,1.34384765625,1.508203125,1.3921875,1.3728515625,1.43408203125,1.41474609375,1.38896484375,1.42119140625,1.43408203125,1.40830078125,1.41796875,1.456640625,1.4759765625,1.47275390625,1.482421875,1.49853515625,1.5146484375,1.54365234375,1.57587890625,1.5984375,1.6048828125,1.6048828125,1.60166015625,1.58876953125,1.5791015625,1.559765625,1.51142578125,1.4501953125,1.40185546875,1.36640625,1.33095703125,1.30517578125,1.29873046875,1.2955078125,1.28583984375,1.2826171875,1.2955078125,1.30517578125,1.30517578125,1.301953125,1.3083984375,1.31162109375,1.31162109375,1.32451171875,1.33740234375,1.33095703125,1.31806640625,1.3212890625,1.33740234375,1.340625,1.33095703125,1.33095703125,1.34384765625,1.35029296875,1.340625,1.340625,1.3599609375,1.3921875,1.40830078125,1.41474609375,1.4115234375,1.3921875,1.353515625,1.327734375,1.3341796875,1.34384765625,1.33095703125,1.32451171875,1.32451171875,1.31806640625,1.3212890625,1.33095703125,1.301953125,1.31162109375,1.59521484375,2.04638671875,2.07216796875,1.4630859375,0.93134765625,1.0634765625,1.43408203125,1.46953125,1.340625,1.36318359375,1.41796875,1.3857421875,1.37607421875,1.41796875,1.4244140625,1.40830078125,1.42119140625,1.4501953125,1.45986328125,1.45986328125,1.47275390625,1.49853515625,1.52431640625,1.53720703125,1.55654296875,1.58232421875,1.59521484375,1.58876953125,1.58232421875,1.58232421875,1.56298828125,1.51787109375,1.46630859375,1.41796875,1.3728515625,1.33740234375,1.31484375,1.2955078125,1.29228515625,1.2955078125,1.301953125,1.29873046875,1.29873046875,1.3083984375,1.31484375,1.3083984375,1.301953125,1.31162109375,1.3341796875,1.34384765625,1.327734375,1.31162109375,1.3212890625,1.340625,1.33740234375,1.3212890625,1.32451171875,1.34384765625,1.35673828125,1.35673828125,1.353515625,1.36962890625,1.3986328125,1.405078125,1.3986328125,1.40185546875,1.41796875,1.405078125,1.35673828125,1.33095703125,1.33740234375,1.3470703125,1.34384765625,1.33740234375,1.327734375,1.31806640625,1.33095703125,1.32451171875,1.2826171875,1.39541015625,1.79501953125,2.09794921875,1.79501953125,1.13759765625,0.92490234375,1.250390625,1.482421875,1.39541015625,1.3341796875,1.40185546875,1.41474609375,1.3857421875,1.40185546875,1.4244140625,1.41474609375,1.4115234375,1.43408203125,1.44697265625,1.45341796875,1.46953125,1.49208984375,1.51142578125,1.5275390625,1.546875,1.56943359375,1.58232421875,1.5919921875,1.60810546875,1.61455078125,1.58876953125,1.53720703125,1.49853515625,1.4630859375,1.41796875,1.3599609375,1.31806640625,1.30517578125,1.30517578125,1.30517578125,1.301953125,1.30517578125,1.3083984375,1.301953125,1.2955078125,1.29873046875,1.31162109375,1.32451171875,1.33095703125,1.3212890625,1.32451171875,1.33740234375,1.33095703125,1.3083984375,1.3083984375,1.33740234375,1.35029296875,1.340625,1.33740234375,1.35029296875,1.35673828125,1.35029296875,1.35673828125,1.3857421875,1.405078125,1.40185546875,1.40830078125,1.40830078125,1.37607421875,1.3341796875,1.3341796875,1.34384765625,1.33740234375,1.3341796875,1.34384765625,1.33740234375,1.32451171875,1.32451171875,1.30517578125,1.31806640625,1.57587890625,2.0044921875,2.04638671875,1.46953125,0.92490234375,1.02802734375,1.4115234375,1.482421875,1.36962890625,1.38896484375,1.44375,1.405078125,1.3857421875,1.42763671875,1.44052734375,1.42119140625,1.42763671875,1.4501953125,1.46630859375,1.46953125,1.47919921875,1.50498046875,1.53076171875,1.55654296875,1.57587890625,1.58876953125,1.5984375,1.61455078125,1.611328125,1.585546875,1.5533203125,1.5275390625,1.5017578125,1.44697265625,1.38896484375,1.35029296875,1.327734375,1.3083984375,1.2826171875,1.27294921875,1.28583984375,1.29228515625,1.2890625,1.29228515625,1.301953125,1.30517578125,1.30517578125,1.31484375,1.32451171875,1.327734375,1.32451171875,1.3212890625,1.3212890625,1.3341796875,1.340625,1.3341796875,1.33095703125,1.340625,1.353515625,1.34384765625,1.33740234375,1.3599609375,1.3857421875,1.3921875,1.3857421875,1.39541015625,1.3921875,1.35673828125,1.32451171875,1.31806640625,1.33095703125,1.33740234375,1.327734375,1.31162109375,1.3083984375,1.3341796875,1.3341796875,1.27939453125,1.35673828125,1.73701171875,2.08505859375,1.84658203125,1.17626953125,0.89267578125,1.198828125,1.4759765625,1.41796875,1.35029296875,1.4115234375,1.42763671875,1.38896484375,1.40185546875,1.42763671875,1.42119140625,1.42763671875,1.4501953125,1.45341796875,1.4501953125,1.46630859375,1.4888671875,1.51142578125,1.53720703125,1.559765625,1.57265625,1.5919921875,1.61455078125,1.6177734375,1.60166015625,1.5791015625,1.55654296875,1.52109375,1.46630859375,1.4115234375,1.379296875,1.353515625,1.33095703125,1.301953125,1.28583984375,1.28583984375,1.29228515625,1.29873046875,1.301953125,1.29873046875,1.301953125,1.31484375,1.327734375,1.327734375,1.327734375,1.33740234375,1.340625,1.33740234375,1.33740234375,1.34384765625,1.340625,1.32451171875,1.3212890625,1.340625,1.35673828125,1.35673828125,1.35029296875,1.35673828125,1.36962890625,1.38896484375,1.40185546875,1.40185546875,1.40185546875,1.40185546875,1.38251953125,1.353515625,1.35029296875,1.3599609375,1.353515625,1.33740234375,1.33095703125,1.33095703125,1.3341796875,1.35029296875,1.327734375,1.2697265625,1.3921875,1.80791015625,2.1076171875,1.77568359375,1.11181640625,0.9216796875,1.26328125,1.49853515625,1.41474609375,1.353515625,1.41474609375,1.4244140625,1.38251953125,1.3986328125,1.43408203125,1.430859375,1.41796875,1.4244140625,1.44052734375,1.456640625,1.47275390625,1.49208984375,1.51787109375,1.53720703125,1.55009765625,1.5662109375,1.585546875,1.59521484375,1.5984375,1.5919921875,1.56943359375,1.53720703125,1.49853515625,1.45341796875,1.405078125,1.36318359375,1.33095703125,1.3083984375,1.2955078125,1.2890625,1.2890625,1.2890625,1.2890625,1.2955078125,1.301953125,1.30517578125,1.301953125,1.29228515625,1.301953125,1.31806640625,1.32451171875,1.3212890625,1.31162109375,1.3083984375,1.31806640625,1.33740234375,1.340625,1.3341796875,1.3341796875,1.340625,1.340625,1.340625,1.35673828125,1.37607421875,1.379296875,1.379296875,1.38896484375,1.405078125,1.4244140625,1.42763671875,1.39541015625,1.353515625,1.34384765625,1.35673828125,1.353515625,1.33740234375,1.3470703125,1.35029296875,1.33095703125,1.3212890625,1.3212890625,1.28583984375,1.35029296875,1.7015625,2.08828125,1.93681640625,1.29228515625,0.928125,1.17626953125,1.482421875,1.44052734375,1.33095703125,1.379296875,1.430859375,1.41474609375,1.40830078125,1.41474609375,1.4115234375,1.42763671875,1.45341796875,1.4501953125,1.4501953125,1.47275390625,1.4953125,1.49853515625,1.51142578125,1.55009765625,1.58232421875,1.58876953125,1.58876953125,1.5984375,1.5984375,1.57587890625,1.54365234375,1.508203125,1.46630859375,1.42119140625,1.3728515625,1.33740234375,1.3212890625,1.31162109375,1.2955078125,1.29228515625,1.301953125,1.30517578125,1.2955078125,1.29228515625,1.301953125,1.31484375,1.32451171875,1.32451171875,1.32451171875,1.32451171875,1.33095703125,1.3341796875,1.33095703125,1.33095703125,1.3341796875,1.340625,1.3470703125,1.34384765625,1.33740234375,1.3341796875,1.353515625,1.37607421875,1.379296875,1.379296875,1.38896484375,1.405078125,1.42119140625,1.430859375,1.42119140625,1.38896484375,1.3599609375,1.3470703125,1.3470703125,1.34384765625,1.3470703125,1.35029296875,1.340625,1.3341796875,1.35029296875,1.33740234375,1.301953125,1.430859375,1.83046875,2.08828125,1.72734375,1.07314453125,0.91845703125,1.27939453125,1.49853515625,1.405078125,1.3599609375,1.43408203125,1.44052734375,1.405078125,1.41796875,1.44052734375,1.430859375,1.42763671875,1.44375,1.456640625,1.4630859375,1.47919921875,1.5017578125,1.52431640625,1.53720703125,1.56298828125,1.5919921875,1.6048828125,1.60810546875,1.6048828125,1.5984375,1.58232421875,1.546875,1.508203125,1.456640625,1.40830078125,1.37607421875,1.35029296875,1.3212890625,1.29228515625,1.2826171875,1.29228515625,1.29228515625,1.27939453125,1.27939453125,1.2955078125,1.3083984375,1.31484375,1.301953125,1.2955078125,1.31162109375,1.32451171875,1.31806640625,1.3083984375,1.3212890625,1.340625,1.3341796875,1.31484375,1.31484375,1.32451171875,1.32451171875,1.327734375,1.3341796875,1.340625,1.35029296875,1.3728515625,1.39541015625,1.3986328125,1.3921875,1.379296875,1.3599609375,1.340625,1.33095703125,1.327734375,1.327734375,1.3212890625,1.31162109375,1.3083984375,1.31484375,1.3212890625,1.28583984375,1.26650390625,1.45986328125,1.88525390625,2.06572265625,1.6048828125,0.98291015625,0.9474609375,1.33740234375,1.48564453125,1.36962890625,1.3470703125,1.4115234375,1.3986328125,1.36962890625,1.3986328125,1.4244140625,1.41796875,1.41474609375,1.4244140625,1.44052734375,1.45986328125,1.4759765625,1.4953125,1.51787109375,1.5404296875,1.559765625,1.57265625,1.58876953125,1.6048828125,1.6048828125,1.59521484375,1.5791015625,1.5404296875,1.49208984375,1.4501953125,1.40830078125,1.36318359375,1.32451171875,1.31162109375,1.3083984375,1.3083984375,1.3083984375,1.3083984375,1.30517578125,1.3083984375,1.3212890625,1.3341796875,1.340625,1.34384765625,1.34384765625,1.3470703125,1.36318359375,1.37607421875,1.36962890625,1.36640625,1.3728515625,1.3857421875,1.3921875,1.38896484375,1.3857421875,1.38896484375,1.405078125,1.42119140625,1.42763671875,1.43408203125,1.44697265625
1.2890625,1.27294921875,1.4888671875,1.946484375,2.11083984375,1.58876953125,0.93779296875,0.91845703125,1.3212890625,1.4630859375,1.340625,1.327734375,1.40185546875,1.38896484375,1.36318359375,1.3857421875,1.40185546875,1.3986328125,1.40830078125,1.41796875,1.42119140625,1.430859375,1.45341796875,1.482421875,1.50498046875,1.53076171875,1.559765625,1.57265625,1.5791015625,1.58876953125,1.58876953125,1.56943359375,1.53720703125,1.5017578125,1.456640625,1.40830078125,1.36962890625,1.33740234375,1.32451171875,1.31806640625,1.301953125,1.27939453125,1.2826171875,1.30517578125,1.31162109375,1.30517578125,1.30517578125,1.3083984375,1.30517578125,1.3083984375,1.32451171875,1.33095703125,1.3212890625,1.3212890625,1.33095703125,1.3341796875,1.33095703125,1.340625,1.3599609375,1.3728515625,1.36318359375,1.353515625,1.36962890625,1.40185546875,1.42119140625,1.4115234375,1.3857421875,1.35673828125,1.340625,1.33740234375,1.327734375,1.31806640625,1.3212890625,1.327734375,1.327734375,1.327734375,1.3212890625,1.276171875,1.32451171875,1.662890625,2.075390625,1.97548828125,1.30517578125,0.8443359375,1.0634765625,1.42763671875,1.44375,1.34384765625,1.3857421875,1.4244140625,1.38251953125,1.379296875,1.4115234375,1.40830078125,1.3921875,1.405078125,1.42763671875,1.45341796875,1.4759765625,1.4888671875,1.5017578125,1.53076171875,1.559765625,1.56943359375,1.5791015625,1.59521484375,1.60166015625,1.59521484375,1.585546875,1.559765625,1.50498046875,1.44697265625,1.4115234375,1.37607421875,1.34384765625,1.3212890625,1.31162109375,1.3083984375,1.30517578125,1.3083984375,1.31806640625,1.327734375,1.3212890625,1.31162109375,1.327734375,1.3470703125,1.3470703125,1.34384765625,1.35029296875,1.35673828125,1.3470703125,1.3470703125,1.36318359375,1.36640625,1.35673828125,1.36640625,1.38896484375,1.3921875,1.39541015625,1.42119140625,1.430859375,1.38896484375,1.3341796875,1.3212890625,1.33095703125,1.3341796875,1.33095703125,1.33740234375,1.32451171875,1.30517578125,1.32451171875,1.33740234375,1.29228515625,1.36640625,1.74345703125,2.07861328125,1.7853515625,1.07958984375,0.83466796875,1.198828125,1.47275390625,1.3857421875,1.3212890625,1.40185546875,1.4115234375,1.35029296875,1.3728515625,1.42119140625,1.41474609375,1.3986328125,1.41474609375,1.4373046875,1.44375,1.45341796875,1.47919921875,1.50498046875,1.53076171875,1.559765625,1.585546875,1.5984375,1.5984375,1.58876953125,1.57265625,1.55009765625,1.52431640625,1.4953125,1.4501953125,1.40185546875,1.36640625,1.340625,1.3212890625,1.30517578125,1.29873046875,1.29873046875,1.29873046875,1.31162109375,1.327734375,1.3341796875,1.327734375,1.3212890625,1.32451171875,1.33095703125,1.34384765625,1.353515625,1.35029296875,1.340625,1.3470703125,1.3599609375,1.3599609375,1.35029296875,1.3599609375,1.37607421875,1.3857421875,1.3857421875,1.3921875,1.405078125,1.41474609375,1.405078125,1.36962890625,1.3470703125,1.353515625,1.3599609375,1.340625,1.3212890625,1.32451171875,1.32451171875,1.31806640625,1.3212890625,1.30517578125,1.276171875,1.44052734375,1.869140625,2.101171875,1.67578125,1.00869140625,0.90556640625,1.29873046875,1.4953125,1.3857421875,1.32451171875,1.379296875,1.39541015625,1.38896484375,1.40830078125,1.41474609375,1.405078125,1.41474609375,1.4244140625,1.42763671875,1.44375,1.46630859375,1.47275390625,1.482421875,1.5275390625,1.57587890625,1.58876953125,1.58876953125,1.59521484375,1.5919921875,1.56298828125,1.5404296875,1.52109375,1.4759765625,1.41796875,1.379296875,1.3599609375,1.34384765625,1.32451171875,1.31484375,1.3083984375,1.301953125,1.30517578125,1.31162109375,1.31806640625,1.31806640625,1.31806640625,1.327734375,1.340625,1.34384765625,1.3341796875,1.340625,1.353515625,1.3470703125,1.327734375,1.32451171875,1.340625,1.353515625,1.35673828125,1.35029296875,1.35673828125,1.3857421875,1.4115234375,1.42119140625,1.4115234375,1.41474609375,1.4115234375,1.379296875,1.33740234375,1.340625,1.36318359375,1.35029296875,1.327734375,1.3212890625,1.3212890625,1.3212890625,1.3341796875,1.3083984375,1.2890625,1.508203125,1.9658203125,2.11083984375,1.56943359375,0.93134765625,0.94423828125,1.35673828125,1.49208984375,1.35673828125,1.327734375,1.39541015625,1.405078125,1.3921875,1.40830078125,1.41474609375,1.405078125,1.41796875,1.4373046875,1.44375,1.44697265625,1.45986328125,1.4888671875,1.52109375,1.546875,1.5662109375,1.585546875,1.59521484375,1.585546875,1.57587890625,1.56298828125,1.533984375,1.4888671875,1.44375,1.41474609375,1.3921875,1.36318359375,1.33095703125,1.31162109375,1.3083984375,1.29873046875,1.29228515625,1.301953125,1.33095703125,1.3470703125,1.340625,1.33095703125,1.3212890625,1.31806640625,1.31806640625,1.32451171875,1.3212890625,1.31484375,1.33095703125,1.35673828125,1.353515625,1.3341796875,1.340625,1.35673828125,1.35673828125,1.353515625,1.353515625,1.353515625,1.36962890625,1.40830078125,1.43408203125,1.4244140625,1.39541015625,1.36640625,1.353515625,1.353515625,1.35673828125,1.34384765625,1.327734375,1.327734375,1.33095703125,1.32451171875,1.32451171875,1.31162109375,1.29873046875,1.4501953125,1.8498046875,2.07861328125,1.67255859375,1.00224609375,0.8765625,1.2697265625,1.482421875,1.38251953125,1.353515625,1.430859375,1.42763671875,1.38251953125,1.3986328125,1.4115234375,1.405078125,1.42119140625,1.44375,1.44375,1.44375,1.47275390625,1.5017578125,1.51142578125,1.52431640625,1.5662109375,1.6048828125,1.61455078125,1.60810546875,1.60166015625,1.58232421875,1.5533203125,1.533984375,1.5017578125,1.44052734375,1.3921875,1.37607421875,1.353515625,1.3212890625,1.30517578125,1.30517578125,1.30517578125,1.30517578125,1.31484375,1.31484375,1.3212890625,1.327734375,1.327734375,1.327734375,1.34384765625,1.35673828125,1.35029296875,1.3470703125,1.353515625,1.340625,1.32451171875,1.33095703125,1.36318359375,1.37607421875,1.3599609375,1.35673828125,1.37607421875,1.3986328125,1.39541015625,1.3921875,1.3986328125,1.38896484375,1.353515625,1.32451171875,1.33095703125,1.353515625,1.35029296875,1.327734375,1.30517578125,1.30517578125,1.327734375,1.32451171875,1.27294921875,1.33740234375,1.7080078125,2.09150390625,1.9013671875,1.21494140625,0.85078125,1.11826171875,1.43408203125,1.42119140625,1.3470703125,1.39541015625,1.4115234375,1.36318359375,1.36640625,1.41474609375,1.430859375,1.41474609375,1.4115234375,1.42763671875,1.44375,1.45341796875,1.46953125,1.5017578125,1.5275390625,1.546875,1.57265625,1.6048828125,1.6177734375,1.60810546875,1.585546875,1.5533203125,1.52109375,1.4888671875,1.4501953125,1.41474609375,1.38251953125,1.3470703125,1.31484375,1.31162109375,1.32451171875,1.31806640625,1.301953125,1.301953125,1.3083984375,1.3083984375,1.31806640625,1.340625,1.34384765625,1.31806640625,1.30517578125,1.3341796875,1.3599609375,1.3470703125,1.33095703125,1.33740234375,1.3470703125,1.3470703125,1.3470703125,1.3599609375,1.36640625,1.3599609375,1.36640625,1.3921875,1.4115234375,1.4115234375,1.40830078125,1.40830078125,1.38896484375,1.3599609375,1.35029296875,1.35673828125,1.340625,1.31484375,1.31162109375,1.327734375,1.34384765625,1.353515625,1.3212890625,1.26650390625,1.38896484375,1.80146484375,2.08828125,1.7466796875,1.069921875,0.8830078125,1.25361328125,1.49853515625,1.3921875,1.3212890625,1.38896484375,1.40830078125,1.37607421875,1.3857421875,1.40830078125,1.40830078125,1.42119140625,1.44052734375,1.44052734375,1.4373046875,1.45341796875,1.482421875,1.5017578125,1.51142578125,1.54365234375,1.58876953125,1.6048828125,1.59521484375,1.58876953125,1.585546875,1.559765625,1.51142578125,1.46630859375,1.43408203125,1.405078125,1.36962890625,1.340625,1.3212890625,1.31484375,1.31162109375,1.3083984375,1.30517578125,1.3212890625,1.33740234375,1.33095703125,1.31806640625,1.32451171875,1.340625,1.3470703125,1.3470703125,1.33740234375,1.327734375,1.327734375,1.34384765625,1.353515625,1.35673828125,1.353515625,1.35029296875,1.353515625,1.36640625,1.3728515625,1.3728515625,1.38251953125,1.4115234375,1.4244140625,1.42119140625,1.4115234375,1.3986328125,1.3599609375,1.3341796875,1.35029296875,1.3728515625,1.353515625,1.33095703125,1.33095703125,1.33095703125,1.3341796875,1.327734375,1.29228515625,1.340625,1.65,2.0302734375,1.92392578125,1.29228515625,0.8765625,1.1021484375,1.44375,1.44052734375,1.3212890625,1.35029296875,1.40830078125,1.405078125,1.405078125,1.42119140625,1.41474609375,1.40185546875,1.40830078125,1.430859375,1.4501953125,1.4501953125,1.45986328125,1.50498046875,1.546875,1.55654296875,1.5662109375,1.58876953125,1.59521484375,1.58876953125,1.58876953125,1.5791015625,1.53720703125,1.47919921875,1.43408203125,1.3986328125,1.3599609375,1.33740234375,1.33095703125,1.32451171875,1.31484375,1.31484375,1.3083984375,1.29873046875,1.3083984375,1.33740234375,1.340625,1.31162109375,1.3083984375,1.327734375,1.3341796875,1.327734375,1.33740234375,1.353515625,1.340625,1.31162109375,1.31484375,1.353515625,1.36962890625,1.35673828125,1.34384765625,1.35029296875,1.3599609375,1.379296875,1.3986328125,1.40185546875,1.3921875,1.40830078125,1.430859375,1.405078125,1.35029296875,1.33095703125,1.340625,1.34384765625,1.33095703125,1.31806640625,1.31806640625,1.33095703125,1.33740234375,1.301953125,1.327734375,1.62421875,2.0302734375,1.9787109375,1.3470703125,0.8572265625,1.0376953125,1.42763671875,1.47275390625,1.35029296875,1.3728515625,1.42763671875,1.3921875,1.3728515625,1.40185546875,1.4115234375,1.405078125,1.4244140625,1.4501953125,1.456640625,1.45986328125,1.46953125,1.4953125,1.52109375,1.5404296875,1.559765625,1.5919921875,1.6177734375,1.61455078125,1.585546875,1.56943359375,1.56298828125,1.53076171875,1.46953125,1.41474609375,1.379296875,1.3470703125,1.33095703125,1.327734375,1.31806640625,1.29873046875,1.29873046875,1.31484375,1.32451171875,1.31484375,1.30517578125,1.31162109375,1.327734375,1.34384765625,1.3470703125,1.33740234375,1.3341796875,1.340625,1.33740234375,1.32451171875,1.31484375,1.32451171875,1.3470703125,1.36318359375,1.36318359375,1.3599609375,1.36640625,1.3857421875,1.40185546875,1.405078125,1.40830078125,1.405078125,1.3728515625,1.33095703125,1.327734375,1.35029296875,1.35029296875,1.33740234375,1.32451171875,1.31162109375,1.31806640625,1.33740234375,1.301953125,1.2890625,1.546875,2.02705078125,2.12373046875,1.52109375,0.889453125,0.95712890625,1.379296875,1.47919921875,1.34384765625,1.34384765625,1.40830078125,1.3857421875,1.36962890625,1.40830078125,1.41796875,1.39541015625,1.39541015625,1.42119140625,1.44052734375,1.4501953125,1.4630859375,1.47919921875,1.49853515625,1.52431640625,1.559765625,1.59521484375,1.60810546875,1.5984375,1.585546875,1.56943359375,1.5404296875,1.508203125,1.46630859375,1.4115234375,1.35673828125,1.340625,1.34384765625,1.33095703125,1.30517578125,1.2955078125,1.301953125,1.3083984375,1.30517578125,1.29873046875,1.301953125,1.32451171875,1.34384765625,1.3470703125,1.340625,1.34384765625,1.33740234375,1.3212890625,1.3212890625,1.34384765625,1.353515625,1.3470703125,1.34384765625,1.35673828125,1.36640625,1.36640625,1.36640625,1.37607421875,1.3857421875,1.39541015625,1.41474609375,1.43408203125,1.41474609375,1.3599609375,1.33095703125,1.33740234375,1.35029296875,1.353515625,1.353515625,1.34384765625,1.32451171875,1.3212890625,1.31484375,1.276171875,1.3470703125,1.714453125,2.101171875,1.93037109375,1.25361328125,0.8830078125,1.1537109375,1.47275390625,1.43408203125,1.33095703125,1.3728515625,1.40185546875,1.379296875,1.3986328125,1.42119140625,1.405078125,1.405078125,1.4373046875,1.44697265625,1.44052734375,1.456640625,1.48564453125,1.50498046875,1.52431640625,1.55009765625,1.57587890625,1.58876953125,1.59521484375,1.5984375,1.5919921875,1.5662109375,1.533984375,1.49853515625,1.45341796875,1.3986328125,1.35673828125,1.3341796875,1.32451171875,1.31484375,1.301953125,1.2890625,1.29228515625,1.31162109375,1.327734375,1.3212890625,1.31806640625,1.3212890625,1.32451171875,1.3212890625,1.32451171875,1.3341796875,1.340625,1.3341796875,1.33740234375,1.34384765625,1.35029296875,1.34384765625,1.33095703125,1.327734375,1.3470703125,1.36640625,1.36962890625,1.379296875,1.405078125,1.4115234375,1.405078125,1.41796875,1.42119140625,1.379296875,1.327734375,1.31162109375,1.327734375,1.34384765625,1.34384765625,1.340625,1.327734375,1.33095703125,1.33740234375,1.301953125,1.29228515625,1.53076171875,1.98837890625,2.10439453125,1.54365234375,0.915234375,0.9603515625,1.38251953125,1.4953125,1.35673828125,1.340625,1.3986328125,1.36962890625,1.35029296875,1.3986328125,1.42763671875,1.41796875,1.41474609375,1.430859375,1.44697265625,1.4501953125,1.45986328125,1.47919921875,1.51787109375,1.54365234375,1.5533203125,1.57265625,1.6177734375,1.64033203125,1.60810546875,1.55654296875,1.533984375,1.5146484375,1.46953125,1.42119140625,1.3857421875,1.35673828125,1.327734375,1.301953125,1.2955078125,1.3083984375,1.3212890625,1.31162109375,1.301953125,1.30517578125,1.3212890625,1.327734375,1.3212890625,1.3212890625,1.327734375,1.33095703125,1.3341796875,1.33740234375,1.340625,1.34384765625,1.34384765625,1.34384765625,1.35029296875,1.3599609375,1.35673828125,1.353515625,1.36640625,1.3921875,1.40830078125,1.40830078125,1.3986328125,1.379296875,1.3599609375,1.35029296875,1.35029296875,1.33740234375,1.327734375,1.327734375,1.31162109375,1.29873046875,1.33095703125,1.3470703125,1.29873046875,1.38251953125,1.77568359375,2.08505859375,1.74990234375,1.06025390625,0.86044921875,1.22138671875,1.46630859375,1.3857421875,1.34384765625,1.41796875,1.41796875,1.379296875,1.405078125,1.430859375,1.41474609375,1.40830078125,1.43408203125,1.4501953125,1.44697265625,1.45986328125,1.4888671875,1.51787109375,1.54365234375,1.56943359375,1.59521484375,1.60810546875,1.61455078125,1.61455078125,1.60166015625,1.57265625,1.5275390625,1.47919921875,1.44697265625,1.41474609375,1.36962890625,1.3341796875,1.32451171875,1.31484375,1.29228515625,1.28583984375,1.29873046875,1.3083984375,1.30517578125,1.31484375,1.33095703125,1.3341796875,1.327734375,1.33095703125,1.340625,1.34384765625,1.340625,1.33740234375,1.33740234375,1.33740234375,1.34384765625,1.3599609375,1.36962890625,1.3599609375,1.35029296875,1.353515625,1.3728515625,1.3921875,1.405078125,1.41474609375,1.42119140625,1.40830078125,1.3728515625,1.3470703125,1.35029296875,1.35029296875,1.3341796875,1.3212890625,1.32451171875,1.33095703125,1.340625,1.33740234375,1.2890625,1.33095703125,1.66611328125,2.07861328125,1.97548828125,1.31484375,0.8701171875,1.069921875,1.40830078125,1.4244140625,1.3470703125,1.39541015625,1.42763671875,1.38896484375,1.3857421875,1.41474609375,1.40830078125,1.40185546875,1.4244140625,1.44052734375,1.4373046875,1.44375,1.46953125,1.49853515625,1.52109375,1.54365234375,1.57265625,1.60166015625,1.61455078125,1.6048828125,1.58876953125,1.559765625,1.53720703125,1.508203125,1.4501953125,1.3921875,1.36962890625,1.36318359375,1.3341796875,1.301953125,1.301953125,1.31162109375,1.30517578125,1.29873046875,1.30517578125,1.301953125,1.29873046875,1.31806640625,1.340625,1.33740234375,1.3212890625,1.327734375,1.3470703125,1.340625,1.31806640625,1.3212890625,1.3470703125,1.35029296875,1.3341796875,1.340625,1.36318359375,1.3599609375,1.34384765625,1.3470703125,1.36640625,1.38251953125,1.40185546875,1.42763671875,1.4373046875,1.3986328125,1.35029296875,1.33740234375,1.33740234375,1.33095703125,1.327734375,1.340625,1.34384765625,1.33095703125,1.327734375,1.3212890625,1.27939453125,1.3212890625,1.65322265625,2.08505859375,2.0173828125,1.35673828125,0.87333984375,1.06669921875,1.42763671875,1.43408203125,1.31484375,1.353515625,1.40185546875,1.36640625,1.36318359375,1.40185546875,1.405078125,1.3921875,1.4115234375,1.44375,1.4501953125,1.44375,1.456640625,1.482421875,1.508203125,1.5275390625,1.55654296875,1.58876953125,1.60810546875,1.60810546875,1.59521484375,1.57587890625,1.53720703125,1.4888671875,1.44375,1.40830078125,1.3599609375,1.31806640625,1.30517578125,1.31162109375,1.31806640625,1.31484375,1.31484375,1.3212890625,1.31806640625,1.31484375,1.31806640625,1.33095703125,1.340625,1.34384765625,1.3470703125,1.3599609375,1.36318359375,1.3599609375,1.35673828125,1.35673828125,1.353515625,1.35673828125,1.36962890625,1.37607421875,1.3728515625,1.38251953125,1.40185546875,1.40185546875,1.3986328125,1.41796875,1.44375,1.45341796875,1.46630859375,1.47275390625,1.44375,1.405078125,1.40185546875,1.42119140625,1.41474609375,1.3921875,1.3857421875,1.3921875
