1.53548387096774,1.51290322580645,1.44516129032258,1.38709677419355,1.37096774193548,1.36129032258065,1.34838709677419,1.35483870967742,1.37096774193548,1.3741935483871,1.36451612903226,1.36451612903226,1.35806451612903,1.33548387096774,1.32903225806452,1.36451612903226,1.39354838709677,1.38064516129032,1.38709677419355,1.42903225806452,1.43225806451613,1.39354838709677,1.40645161290323,1.45483870967742,1.43225806451613,1.34838709677419,1.31612903225806,1.36451612903226,1.39354838709677,1.36451612903226,1.33548387096774,1.33870967741935,1.34838709677419,1.34516129032258,1.37096774193548,1.45483870967742,1.53548387096774,1.49032258064516,1.25806451612903,0.987096774193548,0.958064516129032,1.20645161290323,1.41935483870968,1.41290322580645,1.36129032258065,1.40645161290323,1.45806451612903,1.41935483870968,1.37741935483871,1.40645161290323,1.48064516129032,1.51290322580645,1.49032258064516,1.48709677419355,1.51935483870968,1.53870967741935,1.55483870967742,1.59032258064516,1.60967741935484,1.57741935483871,1.55483870967742,1.5741935483871,1.58709677419355,1.57096774193548,1.53225806451613,1.49032258064516,1.44838709677419,1.4258064516129,1.40322580645161,1.36451612903226,1.3258064516129,1.31290322580645,1.3258064516129,1.34516129032258,1.35806451612903,1.36774193548387,1.35483870967742,1.33870967741935,1.34193548387097,1.35483870967742,1.3741935483871,1.39032258064516,1.39032258064516,1.36451612903226,1.35483870967742,1.38387096774194,1.42258064516129,1.44193548387097,1.44193548387097,1.40645161290323,1.34838709677419,1.31612903225806,1.32903225806452,1.35161290322581,1.34516129032258,1.33225806451613,1.33225806451613,1.33225806451613,1.33548387096774,1.38064516129032,1.47096774193548,1.53548387096774,1.45806451612903,1.20322580645161,0.948387096774194,0.948387096774194,1.19354838709677,1.39677419354839,1.41290322580645,1.37741935483871,1.40967741935484,1.44516129032258,1.43548387096774,1.4258064516129,1.44193548387097,1.45483870967742,1.45806451612903,1.47741935483871,1.50322580645161,1.51935483870968,1.53870967741935,1.55806451612903,1.5741935483871,1.57741935483871,1.59032258064516,1.59677419354839,1.59354838709677,1.58387096774194,1.57096774193548,1.54193548387097,1.49677419354839,1.45483870967742,1.4258064516129,1.40322580645161,1.37096774193548,1.34516129032258,1.34516129032258,1.36129032258065,1.35161290322581,1.32258064516129,1.31290322580645,1.33548387096774,1.36451612903226,1.37096774193548,1.35806451612903,1.34838709677419,1.35806451612903,1.36451612903226,1.36129032258065,1.38064516129032,1.40645161290323,1.4,1.38709677419355,1.40645161290323,1.42258064516129,1.38709677419355,1.32903225806452,1.31612903225806,1.35161290322581,1.37096774193548,1.34516129032258,1.30645161290323,1.3,1.32903225806452,1.36451612903226,1.40645161290323,1.46129032258065,1.50645161290323,1.40322580645161,1.1,0.851612903225806,0.961290322580645,1.28064516129032,1.4258064516129,1.38064516129032,1.38387096774194,1.44516129032258,1.44193548387097,1.41935483870968,1.45806451612903,1.4741935483871,1.43225806451613,1.43548387096774,1.50645161290323,1.53548387096774,1.5,1.51935483870968,1.60645161290323,1.64193548387097,1.60645161290323,1.58387096774194,1.60645161290323,1.61290322580645,1.59032258064516,1.58387096774194,1.56774193548387,1.50645161290323,1.43870967741935,1.4,1.38064516129032,1.36774193548387,1.36451612903226,1.34838709677419,1.31935483870968,1.32258064516129,1.34516129032258,1.34516129032258,1.33870967741935,1.35483870967742,1.36774193548387,1.35483870967742,1.34838709677419,1.36451612903226,1.36774193548387,1.35483870967742,1.36129032258065,1.39032258064516,1.40645161290323,1.40967741935484,1.41612903225806,1.39354838709677,1.35483870967742,1.34193548387097,1.34838709677419,1.34838709677419,1.33870967741935,1.33870967741935,1.33870967741935,1.31935483870968,1.3,1.33870967741935,1.43548387096774,1.51612903225806,1.48064516129032,1.26129032258065,0.961290322580645,0.851612903225806,1.07096774193548,1.36774193548387,1.43870967741935,1.37096774193548,1.38064516129032,1.45161290322581,1.46129032258065,1.42258064516129,1.41935483870968,1.45161290322581,1.47741935483871,1.4741935483871,1.46129032258065,1.48064516129032,1.54193548387097,1.58709677419355,1.59354838709677,1.6,1.61290322580645,1.60967741935484,1.58709677419355,1.58709677419355,1.60322580645161,1.58709677419355,1.53225806451613,1.48387096774194,1.44838709677419,1.40967741935484,1.3741935483871,1.34838709677419,1.34516129032258,1.34516129032258,1.33548387096774,1.3258064516129,1.34838709677419,1.38064516129032,1.36129032258065,1.31290322580645,1.31935483870968,1.3741935483871,1.4,1.36774193548387,1.33548387096774,1.35161290322581,1.4,1.41935483870968,1.4,1.39032258064516,1.42258064516129,1.4258064516129,1.35806451612903,1.29032258064516,1.30967741935484,1.37096774193548,1.3741935483871,1.3258064516129,1.31612903225806,1.33225806451613,1.31935483870968,1.33548387096774,1.44838709677419,1.5741935483871,1.50322580645161,1.17741935483871,0.838709677419355,0.838709677419355,1.16451612903226,1.41612903225806,1.4,1.33548387096774,1.38709677419355,1.43870967741935,1.42903225806452,1.4258064516129,1.46451612903226,1.49032258064516,1.49032258064516,1.49354838709677,1.50645161290323,1.51935483870968,1.5258064516129,1.55161290322581,1.58064516129032,1.59032258064516,1.59354838709677,1.61935483870968,1.64193548387097,1.63225806451613,1.6,1.57741935483871,1.55483870967742,1.50967741935484,1.4258064516129,1.36774193548387,1.36451612903226,1.3741935483871,1.35161290322581,1.33870967741935,1.35806451612903,1.36129032258065,1.33870967741935,1.34193548387097,1.38387096774194,1.39032258064516,1.34193548387097,1.31612903225806,1.35161290322581,1.38064516129032,1.35806451612903,1.35161290322581,1.39677419354839,1.4258064516129,1.4,1.38387096774194,1.41612903225806,1.41290322580645,1.34516129032258,1.30967741935484,1.33548387096774,1.35161290322581,1.32903225806452,1.32903225806452,1.35806451612903,1.33548387096774,1.29677419354839,1.34516129032258,1.49354838709677,1.56774193548387,1.39677419354839,1.03548387096774,0.812903225806452,0.958064516129032,1.27096774193548,1.40322580645161,1.3741935483871,1.38709677419355,1.44516129032258,1.44193548387097,1.42258064516129,1.45161290322581,1.48387096774194,1.48064516129032,1.47741935483871,1.49354838709677,1.51612903225806,1.53225806451613,1.54193548387097,1.56129032258065,1.60322580645161,1.63225806451613,1.63870967741935,1.63548387096774,1.63870967741935,1.62258064516129,1.5741935483871,1.52258064516129,1.50645161290323,1.49677419354839,1.43225806451613,1.34516129032258,1.31290322580645,1.35161290322581,1.36774193548387,1.33870967741935,1.31290322580645,1.31612903225806,1.3258064516129,1.33870967741935,1.35806451612903,1.36451612903226,1.33548387096774,1.30645161290323,1.32258064516129,1.36774193548387,1.38709677419355,1.37741935483871,1.39677419354839,1.42903225806452,1.41935483870968,1.39032258064516,1.38064516129032,1.35806451612903,1.31290322580645,1.31290322580645,1.33548387096774,1.31612903225806,1.30322580645161,1.34193548387097,1.35483870967742,1.30322580645161,1.32903225806452,1.46774193548387,1.56129032258065,1.42903225806452,1.09677419354839,0.82258064516129,0.893548387096774,1.22903225806452,1.44838709677419,1.40967741935484,1.35806451612903,1.41612903225806,1.46129032258065,1.44193548387097,1.43548387096774,1.45483870967742,1.46129032258065,1.4741935483871,1.48709677419355,1.49032258064516,1.5,1.54516129032258,1.59032258064516,1.61612903225806,1.62258064516129,1.61935483870968,1.61290322580645,1.61290322580645,1.60645161290323,1.58709677419355,1.56774193548387,1.53870967741935,1.49032258064516,1.43548387096774,1.38709677419355,1.35483870967742,1.34516129032258,1.34516129032258,1.33225806451613,1.32258064516129,1.33548387096774,1.34516129032258,1.33870967741935,1.34193548387097,1.34838709677419,1.34838709677419,1.35161290322581,1.35483870967742,1.35483870967742,1.35483870967742,1.36774193548387,1.38709677419355,1.40967741935484,1.41612903225806,1.39354838709677,1.35483870967742,1.33870967741935,1.35161290322581,1.34838709677419,1.3258064516129,1.32258064516129,1.33870967741935,1.34516129032258,1.3258064516129,1.32258064516129,1.38387096774194,1.49032258064516,1.53870967741935,1.40967741935484,1.10645161290323,0.845161290322581,0.896774193548387,1.20967741935484,1.43225806451613,1.41935483870968,1.36451612903226,1.39354838709677,1.42903225806452,1.42903225806452,1.43225806451613,1.45161290322581,1.47741935483871,1.49677419354839,1.49354838709677,1.48709677419355,1.50645161290323,1.55161290322581,1.59032258064516,1.6,1.59677419354839,1.60967741935484,1.64193548387097,1.64838709677419,1.59677419354839,1.54838709677419,1.54838709677419,1.55161290322581,1.50645161290323,1.43548387096774,1.38387096774194,1.36451612903226,1.36774193548387,1.37741935483871,1.3741935483871,1.35483870967742,1.33225806451613,1.33548387096774,1.36129032258065,1.36774193548387,1.34193548387097,1.31935483870968,1.34193548387097,1.37741935483871,1.39354838709677,1.40322580645161,1.40322580645161,1.39354838709677,1.39677419354839,1.40645161290323,1.40967741935484,1.40322580645161,1.38709677419355,1.34516129032258,1.30967741935484,1.31935483870968,1.34838709677419,1.34838709677419,1.32258064516129,1.31290322580645,1.34193548387097,1.4,1.47096774193548,1.50322580645161,1.37741935483871,1.0741935483871,0.832258064516129,0.954838709677419,1.30967741935484,1.47741935483871,1.38709677419355,1.34193548387097,1.42258064516129,1.45806451612903,1.41612903225806,1.41935483870968,1.46451612903226,1.46774193548387,1.44516129032258,1.47096774193548,1.53225806451613,1.57096774193548,1.56129032258065,1.54193548387097,1.55483870967742,1.59354838709677,1.61935483870968,1.61612903225806,1.59677419354839,1.58064516129032,1.58709677419355,1.59354838709677,1.53870967741935,1.42258064516129,1.35161290322581,1.36774193548387,1.40322580645161,1.37741935483871,1.31290322580645,1.30322580645161,1.35161290322581,1.37096774193548,1.33225806451613,1.31612903225806,1.34838709677419,1.36129032258065,1.33870967741935,1.34193548387097,1.3741935483871,1.39354838709677,1.39354838709677,1.39354838709677,1.38709677419355,1.37096774193548,1.38064516129032,1.41612903225806,1.41612903225806,1.35161290322581,1.30645161290323,1.32258064516129,1.33225806451613,1.31935483870968,1.33225806451613,1.35483870967742,1.31612903225806,1.28387096774194,1.33870967741935,1.44838709677419,1.51290322580645,1.44838709677419,1.2,0.9,0.87741935483871,1.17741935483871,1.41935483870968,1.4,1.33870967741935,1.4,1.45483870967742,1.42903225806452,1.40322580645161,1.4258064516129,1.46774193548387,1.48709677419355,1.46774193548387,1.45483870967742,1.50322580645161,1.57096774193548,1.58709677419355,1.57096774193548,1.59354838709677,1.64193548387097,1.63870967741935,1.59032258064516,1.5741935483871,1.59354838709677,1.58064516129032,1.51612903225806,1.45483870967742,1.4258064516129,1.41290322580645,1.39032258064516,1.35483870967742,1.32258064516129,1.33225806451613,1.37096774193548,1.38709677419355,1.36129032258065,1.32903225806452,1.33870967741935,1.36451612903226,1.37096774193548,1.36451612903226,1.36129032258065,1.35806451612903,1.36451612903226,1.39032258064516,1.41935483870968,1.42258064516129,1.41612903225806,1.41935483870968,1.40645161290323,1.34516129032258,1.29677419354839,1.31290322580645,1.33225806451613,1.32258064516129,1.32903225806452,1.35483870967742,1.35483870967742,1.3741935483871,1.47096774193548,1.57096774193548,1.5258064516129,1.29677419354839,0.996774193548387,0.861290322580645,1.0258064516129,1.3,1.4,1.3741935483871,1.40645161290323,1.44838709677419,1.40645161290323,1.3741935483871,1.44193548387097,1.50322580645161,1.4741935483871,1.4258064516129,1.44516129032258,1.49354838709677,1.51612903225806,1.5258064516129,1.55483870967742,1.59677419354839,1.60967741935484,1.59032258064516,1.5741935483871,1.5741935483871,1.5741935483871,1.56129032258065,1.53225806451613,1.48387096774194,1.43548387096774,1.40322580645161,1.38064516129032,1.35161290322581,1.33870967741935,1.33870967741935,1.31612903225806,1.29354838709677,1.31612903225806,1.37096774193548,1.39032258064516,1.36451612903226,1.34838709677419,1.35483870967742,1.36451612903226,1.35806451612903,1.34838709677419,1.35483870967742,1.38387096774194,1.42258064516129,1.43548387096774,1.40967741935484,1.3741935483871,1.35806451612903,1.35806451612903,1.35161290322581,1.34193548387097,1.33548387096774,1.34516129032258,1.35161290322581,1.34193548387097,1.33870967741935,1.39032258064516,1.50967741935484,1.58709677419355,1.46451612903226,1.16129032258065,0.938709677419355,1.01935483870968,1.26774193548387,1.40645161290323,1.40645161290323,1.41935483870968,1.44838709677419,1.41612903225806,1.37096774193548,1.4,1.46451612903226,1.48064516129032,1.45806451612903,1.45806451612903,1.49354838709677,1.53225806451613,1.55161290322581,1.53548387096774,1.50967741935484,1.52258064516129,1.56774193548387,1.60322580645161,1.6,1.56774193548387,1.53548387096774,1.5258064516129,1.50645161290323,1.44193548387097,1.38064516129032,1.37096774193548,1.38387096774194,1.3741935483871,1.35161290322581,1.33870967741935,1.32258064516129,1.31612903225806,1.33870967741935,1.36774193548387,1.37741935483871,1.3741935483871,1.36451612903226,1.36129032258065,1.3741935483871,1.39032258064516,1.39032258064516,1.37741935483871,1.3741935483871,1.4,1.42903225806452,1.42258064516129,1.37741935483871,1.32903225806452,1.31935483870968,1.35806451612903,1.39354838709677,1.35806451612903,1.29677419354839,1.3,1.35483870967742,1.39032258064516,1.45161290322581,1.54838709677419,1.53225806451613,1.29677419354839,1.01935483870968,0.987096774193548,1.2,1.39032258064516,1.42258064516129,1.39677419354839,1.39354838709677,1.39032258064516,1.40322580645161,1.43548387096774,1.41612903225806,1.38064516129032,1.44193548387097,1.54838709677419,1.53870967741935,1.45806451612903,1.45483870967742,1.52903225806452,1.5741935483871,1.56451612903226,1.54516129032258,1.53225806451613,1.54838709677419,1.57741935483871,1.56451612903226,1.51935483870968,1.48709677419355,1.48064516129032,1.45483870967742,1.39354838709677,1.34193548387097,1.32258064516129,1.3258064516129,1.32903225806452,1.34193548387097,1.3741935483871,1.38387096774194,1.35483870967742,1.34193548387097,1.36451612903226,1.36774193548387,1.34193548387097,1.34838709677419,1.40967741935484,1.44516129032258,1.39677419354839,1.34838709677419,1.37096774193548,1.4258064516129,1.4258064516129,1.38387096774194,1.35806451612903,1.35483870967742,1.35806451612903,1.35483870967742,1.3258064516129,1.3,1.30645161290323,1.31290322580645,1.33548387096774,1.43225806451613,1.54193548387097,1.48387096774194,1.23225806451613,0.990322580645161,0.983870967741935,1.2,1.38064516129032,1.3741935483871,1.34193548387097,1.40322580645161,1.45483870967742,1.43548387096774,1.4258064516129,1.44193548387097,1.42903225806452,1.41612903225806,1.46129032258065,1.51290322580645,1.49354838709677,1.4741935483871,1.54193548387097,1.62258064516129,1.59677419354839,1.52903225806452,1.54516129032258,1.59677419354839,1.59032258064516,1.53870967741935,1.49677419354839,1.46774193548387,1.44193548387097,1.4258064516129,1.40645161290323,1.38387096774194,1.36451612903226,1.34193548387097,1.31612903225806,1.31935483870968,1.34838709677419,1.36774193548387,1.39032258064516,1.40967741935484,1.36774193548387,1.32258064516129,1.35483870967742,1.4,1.36451612903226,1.33225806451613,1.37741935483871,1.41612903225806,1.40322580645161,1.40967741935484,1.44838709677419,1.43548387096774,1.33870967741935,1.2741935483871,1.3258064516129,1.39677419354839,1.3741935483871,1.32258064516129,1.33225806451613,1.35483870967742,1.34193548387097,1.36451612903226,1.45806451612903,1.50967741935484,1.40645161290323,1.15806451612903,0.951612903225806,1.00645161290323,1.29032258064516,1.4741935483871,1.41935483870968,1.34193548387097,1.38064516129032,1.4258064516129,1.42903225806452,1.44838709677419,1.46774193548387,1.45806451612903,1.47096774193548,1.5,1.49354838709677,1.47741935483871,1.51935483870968,1.58709677419355,1.59354838709677,1.56451612903226,1.56451612903226,1.58387096774194,1.58387096774194,1.56774193548387,1.55161290322581,1.51612903225806,1.45806451612903,1.42258064516129,1.43548387096774,1.43548387096774,1.39677419354839,1.35483870967742,1.35161290322581,1.36129032258065,1.35806451612903,1.35161290322581,1.35483870967742,1.36451612903226,1.36774193548387,1.37741935483871,1.38064516129032,1.3741935483871,1.3741935483871,1.37741935483871,1.36451612903226,1.36129032258065,1.38387096774194,1.42258064516129,1.44193548387097,1.41290322580645,1.36129032258065,1.33548387096774,1.35483870967742,1.3741935483871,1.36129032258065,1.33548387096774,1.30322580645161,1.29677419354839,1.33225806451613,1.37741935483871,1.40967741935484,1.46774193548387,1.49354838709677,1.35161290322581,1.06774193548387,0.912903225806452,1.06774193548387,1.3258064516129,1.40645161290323,1.37741935483871,1.40645161290323,1.44838709677419,1.41290322580645,1.38064516129032,1.41612903225806,1.46129032258065,1.45806451612903,1.43870967741935,1.45483870967742,1.50967741935484,1.56451612903226,1.56774193548387,1.53870967741935,1.53870967741935,1.56774193548387,1.59032258064516,1.57741935483871,1.56129032258065,1.57096774193548,1.58709677419355,1.55161290322581,1.46774193548387,1.41935483870968,1.41935483870968,1.40322580645161,1.34516129032258,1.32258064516129,1.35806451612903,1.37096774193548,1.32258064516129,1.29354838709677,1.34516129032258,1.40967741935484,1.40322580645161,1.34193548387097,1.31612903225806,1.36451612903226,1.40967741935484,1.38387096774194,1.34516129032258,1.36451612903226,1.41290322580645,1.43548387096774,1.42258064516129,1.38709677419355,1.34838709677419,1.33870967741935,1.35806451612903,1.34838709677419,1.31290322580645,1.32903225806452,1.36774193548387,1.35806451612903,1.3258064516129,1.35483870967742,1.45161290322581,1.52903225806452,1.45161290322581,1.16774193548387,0.874193548387097,0.890322580645161,1.19354838709677,1.42258064516129,1.41612903225806,1.36451612903226,1.39677419354839,1.41935483870968,1.39354838709677,1.41935483870968,1.48064516129032,1.48064516129032,1.43870967741935,1.44516129032258,1.48709677419355,1.50967741935484,1.51935483870968,1.55806451612903,1.58387096774194,1.57741935483871,1.58709677419355,1.61612903225806,1.60645161290323,1.5741935483871,1.5741935483871,1.56451612903226,1.51290322580645,1.46451612903226,1.43225806451613,1.39032258064516,1.34838709677419,1.34193548387097,1.35161290322581,1.33548387096774,1.32258064516129,1.33870967741935,1.35806451612903,1.37096774193548,1.3741935483871,1.36451612903226,1.34516129032258,1.36451612903226,1.39677419354839,1.39032258064516,1.36129032258065,1.37096774193548,1.40322580645161,1.41935483870968,1.40967741935484,1.39677419354839,1.39032258064516,1.37741935483871,1.35806451612903,1.35483870967742,1.35806451612903,1.34193548387097,1.32903225806452,1.33870967741935,1.3258064516129,1.31612903225806,1.37741935483871,1.49677419354839,1.53548387096774,1.36129032258065,1.03225806451613,0.825806451612903,0.970967741935484,1.29677419354839,1.46451612903226,1.4258064516129,1.38064516129032,1.39354838709677,1.41290322580645,1.43870967741935,1.47096774193548,1.48387096774194,1.47096774193548,1.47096774193548,1.49677419354839,1.52903225806452,1.53548387096774,1.53548387096774,1.55806451612903,1.59354838709677,1.61290322580645,1.61612903225806,1.6258064516129,1.65161290322581,1.64516129032258,1.5741935483871,1.50322580645161,1.48709677419355,1.49354838709677,1.46129032258065,1.40967741935484,1.3741935483871,1.35161290322581,1.33870967741935,1.33870967741935,1.35483870967742,1.37741935483871,1.37741935483871,1.33225806451613,1.29677419354839,1.32258064516129,1.37096774193548,1.3741935483871,1.34838709677419,1.35483870967742,1.3741935483871,1.37741935483871,1.3741935483871,1.39677419354839,1.41935483870968,1.40645161290323,1.36451612903226,1.3258064516129,1.31935483870968,1.33225806451613,1.32903225806452,1.31935483870968,1.32258064516129,1.31935483870968,1.29354838709677,1.32258064516129,1.46129032258065,1.57741935483871,1.48709677419355,1.17741935483871,0.87741935483871,0.870967741935484,1.13870967741935,1.36774193548387,1.38709677419355,1.35483870967742,1.39354838709677,1.4258064516129,1.40322580645161,1.40322580645161,1.43548387096774,1.45161290322581,1.45161290322581,1.46774193548387,1.50645161290323,1.54516129032258,1.54838709677419,1.52258064516129,1.52258064516129,1.56451612903226,1.59677419354839,1.59354838709677,1.59032258064516,1.57741935483871,1.54838709677419,1.52903225806452,1.52258064516129,1.48387096774194,1.41290322580645,1.37096774193548,1.3741935483871,1.37096774193548,1.33225806451613,1.31290322580645,1.31935483870968,1.31290322580645,1.30645161290323,1.33548387096774,1.36774193548387,1.36451612903226,1.34193548387097,1.33548387096774,1.35806451612903
1.18064516129032,0.851612903225806,0.829032258064516,1.13870967741935,1.4,1.39677419354839,1.33548387096774,1.38064516129032,1.43225806451613,1.41290322580645,1.40322580645161,1.44838709677419,1.48709677419355,1.4741935483871,1.44838709677419,1.46451612903226,1.50645161290323,1.52903225806452,1.54516129032258,1.57741935483871,1.59677419354839,1.58387096774194,1.58709677419355,1.62258064516129,1.6258064516129,1.56774193548387,1.52258064516129,1.5258064516129,1.51290322580645,1.45161290322581,1.40322580645161,1.39677419354839,1.38387096774194,1.35161290322581,1.34193548387097,1.34838709677419,1.34838709677419,1.34516129032258,1.35806451612903,1.37741935483871,1.3741935483871,1.36129032258065,1.36774193548387,1.39677419354839,1.41935483870968,1.42903225806452,1.42903225806452,1.40967741935484,1.37741935483871,1.35483870967742,1.35806451612903,1.36774193548387,1.34838709677419,1.29354838709677,1.28709677419355,1.34838709677419,1.38064516129032,1.34516129032258,1.34193548387097,1.44838709677419,1.54516129032258,1.46129032258065,1.17741935483871,0.906451612903226,0.903225806451613,1.16451612903226,1.38709677419355,1.39677419354839,1.34193548387097,1.38064516129032,1.45483870967742,1.45806451612903,1.40967741935484,1.38709677419355,1.41290322580645,1.44838709677419,1.47096774193548,1.48064516129032,1.49354838709677,1.52258064516129,1.55161290322581,1.55483870967742,1.56129032258065,1.6,1.6258064516129,1.59032258064516,1.54193548387097,1.53870967741935,1.54193548387097,1.49354838709677,1.43225806451613,1.41612903225806,1.40645161290323,1.36129032258065,1.33548387096774,1.36129032258065,1.37096774193548,1.35483870967742,1.35806451612903,1.36774193548387,1.34193548387097,1.33548387096774,1.38064516129032,1.40967741935484,1.39032258064516,1.37096774193548,1.39032258064516,1.41612903225806,1.43548387096774,1.43870967741935,1.39677419354839,1.33548387096774,1.31935483870968,1.35806451612903,1.38709677419355,1.36451612903226,1.32903225806452,1.3258064516129,1.34193548387097,1.35806451612903,1.4,1.48709677419355,1.53870967741935,1.40967741935484,1.09354838709677,0.880645161290323,1.00967741935484,1.30322580645161,1.42903225806452,1.38064516129032,1.36774193548387,1.40645161290323,1.41935483870968,1.41935483870968,1.45161290322581,1.45806451612903,1.4258064516129,1.43548387096774,1.48064516129032,1.5,1.49032258064516,1.51290322580645,1.55483870967742,1.56774193548387,1.57096774193548,1.59032258064516,1.60322580645161,1.59032258064516,1.57096774193548,1.53870967741935,1.48709677419355,1.44516129032258,1.43870967741935,1.43225806451613,1.39354838709677,1.34516129032258,1.34193548387097,1.37096774193548,1.36774193548387,1.33548387096774,1.3258064516129,1.35483870967742,1.37096774193548,1.34838709677419,1.33225806451613,1.37096774193548,1.41612903225806,1.41612903225806,1.40645161290323,1.42903225806452,1.44193548387097,1.41612903225806,1.38064516129032,1.36129032258065,1.33225806451613,1.31290322580645,1.32258064516129,1.33225806451613,1.31935483870968,1.3,1.31290322580645,1.37741935483871,1.46451612903226,1.51290322580645,1.44516129032258,1.21935483870968,0.945161290322581,0.896774193548387,1.14193548387097,1.38064516129032,1.39354838709677,1.34193548387097,1.39354838709677,1.46129032258065,1.44838709677419,1.41935483870968,1.43225806451613,1.45161290322581,1.44516129032258,1.45483870967742,1.48387096774194,1.49354838709677,1.49677419354839,1.54516129032258,1.6,1.61612903225806,1.60645161290323,1.58709677419355,1.55806451612903,1.55483870967742,1.57096774193548,1.54838709677419,1.48064516129032,1.4258064516129,1.40967741935484,1.39677419354839,1.36451612903226,1.34516129032258,1.35806451612903,1.3741935483871,1.36451612903226,1.34516129032258,1.35161290322581,1.38064516129032,1.38064516129032,1.35806451612903,1.35806451612903,1.39032258064516,1.40645161290323,1.39677419354839,1.41290322580645,1.44193548387097,1.42903225806452,1.39032258064516,1.37096774193548,1.35806451612903,1.32258064516129,1.30967741935484,1.33225806451613,1.34516129032258,1.32903225806452,1.30322580645161,1.31290322580645,1.39032258064516,1.51290322580645,1.54516129032258,1.35806451612903,1.0258064516129,0.851612903225806,1.02903225806452,1.32903225806452,1.4258064516129,1.3741935483871,1.36774193548387,1.4,1.40322580645161,1.41612903225806,1.45806451612903,1.45806451612903,1.42903225806452,1.44516129032258,1.49354838709677,1.5,1.48064516129032,1.50967741935484,1.56451612903226,1.58064516129032,1.58387096774194,1.61612903225806,1.63225806451613,1.58064516129032,1.51935483870968,1.51290322580645,1.51290322580645,1.47096774193548,1.41935483870968,1.40322580645161,1.39677419354839,1.39354838709677,1.38709677419355,1.36774193548387,1.34516129032258,1.34193548387097,1.34193548387097,1.33225806451613,1.33870967741935,1.36774193548387,1.39354838709677,1.40645161290323,1.43225806451613,1.44516129032258,1.4258064516129,1.41290322580645,1.4258064516129,1.4258064516129,1.39032258064516,1.35161290322581,1.33225806451613,1.34193548387097,1.36451612903226,1.36451612903226,1.33225806451613,1.30322580645161,1.30645161290323,1.33870967741935,1.40967741935484,1.49354838709677,1.47741935483871,1.28387096774194,1.00322580645161,0.893548387096774,1.08709677419355,1.35483870967742,1.42903225806452,1.3741935483871,1.38064516129032,1.42258064516129,1.40322580645161,1.38064516129032,1.41290322580645,1.46451612903226,1.48064516129032,1.47096774193548,1.46129032258065,1.48064516129032,1.51935483870968,1.53870967741935,1.55161290322581,1.56774193548387,1.57741935483871,1.58387096774194,1.60322580645161,1.61290322580645,1.57741935483871,1.52258064516129,1.5,1.48709677419355,1.43548387096774,1.36774193548387,1.34193548387097,1.35806451612903,1.37096774193548,1.37096774193548,1.3741935483871,1.38064516129032,1.36774193548387,1.34838709677419,1.34838709677419,1.36129032258065,1.38387096774194,1.4,1.38709677419355,1.38387096774194,1.41290322580645,1.44193548387097,1.42903225806452,1.4,1.38387096774194,1.36774193548387,1.33870967741935,1.31935483870968,1.3258064516129,1.33870967741935,1.33870967741935,1.31935483870968,1.29354838709677,1.31612903225806,1.41612903225806,1.50645161290323,1.46774193548387,1.24516129032258,0.951612903225806,0.854838709677419,1.09677419354839,1.39677419354839,1.43225806451613,1.33225806451613,1.34516129032258,1.41935483870968,1.41290322580645,1.39032258064516,1.41612903225806,1.45161290322581,1.46774193548387,1.48387096774194,1.5,1.5,1.51290322580645,1.55806451612903,1.6,1.59032258064516,1.56774193548387,1.58064516129032,1.60322580645161,1.57741935483871,1.53870967741935,1.53548387096774,1.55161290322581,1.53225806451613,1.46451612903226,1.39032258064516,1.35161290322581,1.34516129032258,1.35483870967742,1.36129032258065,1.36774193548387,1.36129032258065,1.35161290322581,1.35806451612903,1.36774193548387,1.36774193548387,1.37096774193548,1.38387096774194,1.40322580645161,1.41612903225806,1.40322580645161,1.38709677419355,1.40967741935484,1.44193548387097,1.4258064516129,1.3741935483871,1.34516129032258,1.35483870967742,1.36774193548387,1.34838709677419,1.31290322580645,1.3,1.29677419354839,1.29354838709677,1.32903225806452,1.43870967741935,1.5258064516129,1.39677419354839,1.04516129032258,0.790322580645161,0.92258064516129,1.28709677419355,1.46129032258065,1.38709677419355,1.34516129032258,1.41935483870968,1.44838709677419,1.40645161290323,1.39677419354839,1.43548387096774,1.47741935483871,1.51290322580645,1.51290322580645,1.48709677419355,1.49032258064516,1.53548387096774,1.56774193548387,1.5741935483871,1.59354838709677,1.61935483870968,1.61935483870968,1.60967741935484,1.60322580645161,1.58709677419355,1.54193548387097,1.5,1.47741935483871,1.43870967741935,1.3741935483871,1.33870967741935,1.36129032258065,1.38387096774194,1.36774193548387,1.35161290322581,1.36451612903226,1.3741935483871,1.35483870967742,1.34516129032258,1.36774193548387,1.39354838709677,1.39677419354839,1.39354838709677,1.41612903225806,1.43548387096774,1.42903225806452,1.4258064516129,1.43548387096774,1.40967741935484,1.34838709677419,1.3258064516129,1.34193548387097,1.32258064516129,1.27741935483871,1.28709677419355,1.33870967741935,1.34838709677419,1.34516129032258,1.40645161290323,1.48709677419355,1.43225806451613,1.16774193548387,0.861290322580645,0.816129032258065,1.12258064516129,1.42258064516129,1.41935483870968,1.30645161290323,1.33870967741935,1.41612903225806,1.41290322580645,1.41612903225806,1.46451612903226,1.47741935483871,1.46129032258065,1.48064516129032,1.51612903225806,1.50645161290323,1.48709677419355,1.51612903225806,1.57741935483871,1.61612903225806,1.61935483870968,1.61612903225806,1.61290322580645,1.59354838709677,1.56451612903226,1.55483870967742,1.55161290322581,1.50967741935484,1.44193548387097,1.40967741935484,1.39677419354839,1.35806451612903,1.31935483870968,1.34193548387097,1.39354838709677,1.38709677419355,1.34193548387097,1.33225806451613,1.35161290322581,1.35483870967742,1.35483870967742,1.37741935483871,1.40967741935484,1.4258064516129,1.43225806451613,1.43225806451613,1.43225806451613,1.42903225806452,1.4,1.34193548387097,1.3,1.30645161290323,1.32258064516129,1.31290322580645,1.31612903225806,1.3258064516129,1.29677419354839,1.26774193548387,1.34838709677419,1.49677419354839,1.50645161290323,1.22258064516129,0.82258064516129,0.703225806451613,1.00645161290323,1.36774193548387,1.43225806451613,1.33548387096774,1.35806451612903,1.45161290322581,1.45483870967742,1.41290322580645,1.42903225806452,1.45483870967742,1.45161290322581,1.47741935483871,1.53870967741935,1.54838709677419,1.5258064516129,1.56451612903226,1.6258064516129,1.61935483870968,1.59677419354839,1.6258064516129,1.63548387096774,1.59354838709677,1.58064516129032,1.60322580645161,1.59032258064516,1.53548387096774,1.48064516129032,1.43225806451613,1.39354838709677,1.3741935483871,1.36451612903226,1.35161290322581,1.35161290322581,1.3741935483871,1.39032258064516,1.36774193548387,1.34193548387097,1.34838709677419,1.3741935483871,1.39354838709677,1.40322580645161,1.41935483870968,1.44193548387097,1.45161290322581,1.43870967741935,1.42258064516129,1.40645161290323,1.36774193548387,1.31935483870968,1.32258064516129,1.34838709677419,1.33548387096774,1.30322580645161,1.30967741935484,1.32903225806452,1.31612903225806,1.3258064516129,1.42903225806452,1.50322580645161,1.30322580645161,0.880645161290323,0.674193548387097,0.967741935483871,1.39354838709677,1.48387096774194,1.34516129032258,1.34193548387097,1.42258064516129,1.40967741935484,1.38387096774194,1.45483870967742,1.51290322580645,1.48709677419355,1.46774193548387,1.50322580645161,1.52903225806452,1.5258064516129,1.53870967741935,1.56129032258065,1.58064516129032,1.60645161290323,1.63548387096774,1.63225806451613,1.59032258064516,1.57741935483871,1.60645161290323,1.60967741935484,1.53225806451613,1.43548387096774,1.38064516129032,1.35806451612903,1.34193548387097,1.34193548387097,1.35806451612903,1.37096774193548,1.36129032258065,1.34838709677419,1.35161290322581,1.36129032258065,1.3741935483871,1.37741935483871,1.36129032258065,1.35161290322581,1.37096774193548,1.39354838709677,1.4,1.41935483870968,1.45161290322581,1.43225806451613,1.36774193548387,1.33225806451613,1.3258064516129,1.31935483870968,1.31612903225806,1.33225806451613,1.33548387096774,1.31290322580645,1.29354838709677,1.3258064516129,1.43870967741935,1.58064516129032,1.55806451612903,1.20645161290323,0.751612903225806,0.670967741935484,1.05483870967742,1.43225806451613,1.45161290322581,1.33225806451613,1.35806451612903,1.44838709677419,1.44838709677419,1.40967741935484,1.41935483870968,1.44838709677419,1.45483870967742,1.47741935483871,1.5258064516129,1.54838709677419,1.53225806451613,1.53225806451613,1.57741935483871,1.60645161290323,1.58387096774194,1.5741935483871,1.59032258064516,1.59354838709677,1.58064516129032,1.58064516129032,1.56774193548387,1.51935483870968,1.45806451612903,1.40322580645161,1.35806451612903,1.34193548387097,1.34838709677419,1.35161290322581,1.34516129032258,1.34838709677419,1.35806451612903,1.35806451612903,1.36129032258065,1.37741935483871,1.39354838709677,1.4,1.4,1.39677419354839,1.40645161290323,1.4258064516129,1.42258064516129,1.39032258064516,1.35483870967742,1.33870967741935,1.32903225806452,1.3258064516129,1.33225806451613,1.33548387096774,1.32903225806452,1.31290322580645,1.31612903225806,1.39677419354839,1.54838709677419,1.58709677419355,1.32903225806452,0.912903225806452,0.735483870967742,0.970967741935484,1.31290322580645,1.40967741935484,1.33870967741935,1.34838709677419,1.42903225806452,1.45161290322581,1.43225806451613,1.43870967741935,1.44516129032258,1.44193548387097,1.47096774193548,1.51290322580645,1.5258064516129,1.51612903225806,1.52903225806452,1.57741935483871,1.60322580645161,1.58387096774194,1.58387096774194,1.63225806451613,1.64516129032258,1.58064516129032,1.51290322580645,1.50322580645161,1.5,1.46129032258065,1.40967741935484,1.37741935483871,1.37096774193548,1.3741935483871,1.36129032258065,1.33870967741935,1.33870967741935,1.36774193548387,1.38387096774194,1.3741935483871,1.36129032258065,1.37741935483871,1.40645161290323,1.39677419354839,1.35161290322581,1.35161290322581,1.42258064516129,1.46451612903226,1.41290322580645,1.33548387096774,1.31935483870968,1.33870967741935,1.34838709677419,1.34516129032258,1.33870967741935,1.3258064516129,1.30967741935484,1.31935483870968,1.39032258064516,1.51290322580645,1.56774193548387,1.4,1.04516129032258,0.82258064516129,0.974193548387097,1.28709677419355,1.40322580645161,1.35161290322581,1.36129032258065,1.43548387096774,1.45483870967742,1.43225806451613,1.4258064516129,1.43548387096774,1.44516129032258,1.45483870967742,1.46129032258065,1.48387096774194,1.52903225806452,1.56129032258065,1.55161290322581,1.54516129032258,1.58387096774194,1.61612903225806,1.59677419354839,1.55483870967742,1.54516129032258,1.54516129032258,1.5258064516129,1.50645161290323,1.48709677419355,1.42258064516129,1.33225806451613,1.30967741935484,1.37096774193548,1.40645161290323,1.36774193548387,1.32258064516129,1.33225806451613,1.34838709677419,1.35161290322581,1.35806451612903,1.38064516129032,1.39354838709677,1.39354838709677,1.39354838709677,1.40645161290323,1.41935483870968,1.4258064516129,1.4258064516129,1.40322580645161,1.35483870967742,1.31612903225806,1.31290322580645,1.33870967741935,1.36451612903226,1.36129032258065,1.32258064516129,1.30645161290323,1.3741935483871,1.48387096774194,1.51612903225806,1.38709677419355,1.10967741935484,0.880645161290323,0.941935483870968,1.23225806451613,1.42903225806452,1.41290322580645,1.36774193548387,1.39354838709677,1.41935483870968,1.42258064516129,1.43870967741935,1.44193548387097,1.43225806451613,1.44838709677419,1.47741935483871,1.49032258064516,1.50322580645161,1.52903225806452,1.53870967741935,1.54193548387097,1.57096774193548,1.60967741935484,1.61612903225806,1.58709677419355,1.55483870967742,1.52258064516129,1.49677419354839,1.48064516129032,1.47741935483871,1.45161290322581,1.39032258064516,1.33870967741935,1.33225806451613,1.35161290322581,1.36774193548387,1.37741935483871,1.3741935483871,1.36129032258065,1.35483870967742,1.37096774193548,1.40322580645161,1.4258064516129,1.41935483870968,1.40967741935484,1.40967741935484,1.40967741935484,1.4,1.39677419354839,1.37741935483871,1.33225806451613,1.31612903225806,1.35161290322581,1.3741935483871,1.34516129032258,1.33225806451613,1.35161290322581,1.34838709677419,1.35483870967742,1.43870967741935,1.52258064516129,1.4258064516129,1.14838709677419,0.919354838709677,0.951612903225806,1.19677419354839,1.39354838709677,1.41612903225806,1.37096774193548,1.37741935483871,1.41935483870968,1.43870967741935,1.42258064516129,1.40967741935484,1.44193548387097,1.5,1.50967741935484,1.47741935483871,1.47096774193548,1.51612903225806,1.55161290322581,1.54838709677419,1.54516129032258,1.57096774193548,1.58709677419355,1.56774193548387,1.54516129032258,1.53870967741935,1.5258064516129,1.49677419354839,1.44838709677419,1.38387096774194,1.34838709677419,1.36129032258065,1.3741935483871,1.35161290322581,1.33225806451613,1.34838709677419,1.37096774193548,1.36774193548387,1.35806451612903,1.37096774193548,1.38064516129032,1.36774193548387,1.36129032258065,1.38709677419355,1.42258064516129,1.44516129032258,1.43870967741935,1.39677419354839,1.35483870967742,1.35483870967742,1.36774193548387,1.33548387096774,1.28709677419355,1.30645161290323,1.36451612903226,1.35161290322581,1.30967741935484,1.35483870967742,1.47741935483871,1.52903225806452,1.39677419354839,1.12903225806452,0.938709677419355,1.01935483870968,1.26451612903226,1.39677419354839,1.35483870967742,1.33870967741935,1.4,1.44193548387097,1.43870967741935,1.43548387096774,1.42903225806452,1.4258064516129,1.46451612903226,1.51612903225806,1.5,1.45161290322581,1.48064516129032,1.55806451612903,1.58709677419355,1.56129032258065,1.55483870967742,1.57741935483871,1.56451612903226,1.5258064516129,1.51612903225806,1.52903225806452,1.51290322580645,1.45806451612903,1.40967741935484,1.38064516129032,1.37096774193548,1.3741935483871,1.36774193548387,1.34838709677419,1.34193548387097,1.35161290322581,1.35806451612903,1.35483870967742,1.36129032258065,1.37741935483871,1.39354838709677,1.40645161290323,1.40967741935484,1.39677419354839,1.39677419354839,1.43548387096774,1.44516129032258,1.38709677419355,1.33548387096774,1.34838709677419,1.36774193548387,1.35806451612903,1.34838709677419,1.35806451612903,1.32903225806452,1.28064516129032,1.30645161290323,1.42903225806452,1.54516129032258,1.53225806451613,1.32258064516129,1.00322580645161,0.867741935483871,1.06774193548387,1.35161290322581,1.41290322580645,1.34838709677419,1.36451612903226,1.41935483870968,1.41935483870968,1.40967741935484,1.43870967741935,1.45483870967742,1.45483870967742,1.47741935483871,1.51290322580645,1.52258064516129,1.52258064516129,1.53548387096774,1.55483870967742,1.56774193548387,1.59032258064516,1.59677419354839,1.5741935483871,1.56451612903226,1.56451612903226,1.52903225806452,1.48064516129032,1.46774193548387,1.45161290322581,1.4,1.36774193548387,1.37741935483871,1.37741935483871,1.36774193548387,1.36774193548387,1.35483870967742,1.33870967741935,1.36129032258065,1.4,1.38709677419355,1.35806451612903,1.39032258064516,1.45483870967742,1.43870967741935,1.38387096774194,1.39677419354839,1.43870967741935,1.40645161290323,1.35161290322581,1.36774193548387,1.40645161290323,1.37741935483871,1.32903225806452,1.33548387096774,1.35483870967742,1.32903225806452,1.30322580645161,1.32903225806452,1.39354838709677,1.44838709677419,1.4741935483871,1.38387096774194,1.10967741935484,0.848387096774194,0.945161290322581,1.31935483870968,1.50322580645161,1.39032258064516,1.30967741935484,1.39354838709677,1.44193548387097,1.40322580645161,1.40322580645161,1.44838709677419,1.46129032258065,1.46129032258065,1.48709677419355,1.50645161290323,1.5,1.51290322580645,1.55806451612903,1.58709677419355,1.58064516129032,1.58064516129032,1.60645161290323,1.60967741935484,1.57096774193548,1.5258064516129,1.50967741935484,1.5,1.46774193548387,1.42258064516129,1.38709677419355,1.37741935483871,1.36774193548387,1.33225806451613,1.30967741935484,1.33548387096774,1.37741935483871,1.37096774193548,1.34516129032258,1.35806451612903,1.38387096774194,1.36451612903226,1.33225806451613,1.36451612903226,1.41290322580645,1.40645161290323,1.39354838709677,1.43225806451613,1.44516129032258,1.3741935483871,1.30967741935484,1.32258064516129,1.33548387096774,1.29032258064516,1.27741935483871,1.3258064516129,1.35161290322581,1.3258064516129,1.32258064516129,1.39032258064516,1.49354838709677,1.48387096774194,1.23870967741935,0.87741935483871,0.770967741935484,1.05806451612903,1.39677419354839,1.45483870967742,1.34516129032258,1.33870967741935,1.42258064516129,1.43870967741935,1.39354838709677,1.38709677419355,1.43225806451613,1.4741935483871,1.48064516129032,1.47741935483871,1.49354838709677,1.52903225806452,1.55806451612903,1.57096774193548,1.59354838709677,1.6258064516129,1.62903225806452,1.58064516129032,1.53870967741935,1.53548387096774,1.54838709677419,1.53870967741935,1.5,1.46451612903226,1.42258064516129,1.37096774193548,1.35806451612903,1.38709677419355,1.39354838709677,1.35483870967742,1.33870967741935,1.36129032258065,1.37096774193548,1.35483870967742,1.36451612903226,1.39354838709677,1.39354838709677,1.38387096774194,1.41935483870968,1.46451612903226,1.47096774193548,1.45161290322581,1.43870967741935,1.41290322580645,1.37096774193548,1.35806451612903,1.38064516129032,1.39354838709677,1.36774193548387,1.34516129032258,1.35161290322581,1.3741935483871,1.38387096774194,1.39354838709677,1.45483870967742,1.56774193548387,1.56451612903226,1.30967741935484,0.954838709677419,0.867741935483871,1.13225806451613,1.41935483870968,1.48709677419355,1.45806451612903,1.4741935483871,1.48064516129032,1.46451612903226,1.48064516129032,1.51612903225806,1.53225806451613
1.54838709677419,1.5741935483871,1.59032258064516,1.6,1.61290322580645,1.61935483870968,1.59677419354839,1.55161290322581,1.51935483870968,1.5,1.45161290322581,1.37741935483871,1.34193548387097,1.35483870967742,1.36451612903226,1.34838709677419,1.33225806451613,1.33548387096774,1.34516129032258,1.33870967741935,1.3258064516129,1.33548387096774,1.36451612903226,1.36451612903226,1.34193548387097,1.33870967741935,1.37096774193548,1.38387096774194,1.36451612903226,1.38064516129032,1.43870967741935,1.46129032258065,1.41290322580645,1.34838709677419,1.31290322580645,1.3,1.3,1.30967741935484,1.32903225806452,1.34193548387097,1.32258064516129,1.29677419354839,1.34193548387097,1.47096774193548,1.54838709677419,1.45483870967742,1.20322580645161,0.935483870967742,0.87741935483871,1.10322580645161,1.37096774193548,1.43225806451613,1.37096774193548,1.36774193548387,1.40967741935484,1.43548387096774,1.44193548387097,1.44193548387097,1.45161290322581,1.4741935483871,1.48709677419355,1.47741935483871,1.48709677419355,1.51290322580645,1.54516129032258,1.58387096774194,1.6258064516129,1.63548387096774,1.61290322580645,1.59354838709677,1.60645161290323,1.61612903225806,1.57741935483871,1.50645161290323,1.45806451612903,1.44193548387097,1.41290322580645,1.36451612903226,1.34838709677419,1.35806451612903,1.36451612903226,1.3741935483871,1.35806451612903,1.30645161290323,1.29354838709677,1.34516129032258,1.38387096774194,1.36774193548387,1.34838709677419,1.34193548387097,1.36129032258065,1.40645161290323,1.41935483870968,1.37096774193548,1.34838709677419,1.41935483870968,1.49032258064516,1.45483870967742,1.35483870967742,1.3,1.31935483870968,1.34193548387097,1.33225806451613,1.31612903225806,1.31290322580645,1.30967741935484,1.31935483870968,1.38064516129032,1.48709677419355,1.54838709677419,1.44838709677419,1.16774193548387,0.890322580645161,0.880645161290323,1.16129032258065,1.41290322580645,1.41935483870968,1.34838709677419,1.38064516129032,1.44516129032258,1.44193548387097,1.41935483870968,1.44193548387097,1.47741935483871,1.48387096774194,1.4741935483871,1.48064516129032,1.50967741935484,1.54838709677419,1.57741935483871,1.58709677419355,1.60645161290323,1.64193548387097,1.65161290322581,1.61612903225806,1.58064516129032,1.58064516129032,1.5741935483871,1.53548387096774,1.49032258064516,1.45483870967742,1.41935483870968,1.36451612903226,1.32258064516129,1.31290322580645,1.33225806451613,1.34516129032258,1.34516129032258,1.33870967741935,1.34838709677419,1.35806451612903,1.35161290322581,1.34838709677419,1.37741935483871,1.38709677419355,1.35806451612903,1.35483870967742,1.39677419354839,1.40967741935484,1.38387096774194,1.4,1.42903225806452,1.40645161290323,1.36129032258065,1.34193548387097,1.33225806451613,1.31935483870968,1.33225806451613,1.34838709677419,1.3258064516129,1.28387096774194,1.30322580645161,1.40322580645161,1.5,1.51290322580645,1.38064516129032,1.1,0.851612903225806,0.919354838709677,1.23548387096774,1.4258064516129,1.38387096774194,1.35483870967742,1.41612903225806,1.42903225806452,1.40645161290323,1.43548387096774,1.46451612903226,1.44516129032258,1.45161290322581,1.5,1.52903225806452,1.52903225806452,1.54193548387097,1.56774193548387,1.59354838709677,1.61935483870968,1.6258064516129,1.62258064516129,1.60967741935484,1.58709677419355,1.56451612903226,1.55806451612903,1.54193548387097,1.48387096774194,1.41612903225806,1.38387096774194,1.3741935483871,1.34516129032258,1.31290322580645,1.3258064516129,1.35483870967742,1.34838709677419,1.3258064516129,1.32903225806452,1.34193548387097,1.33870967741935,1.34193548387097,1.36129032258065,1.37741935483871,1.38387096774194,1.38387096774194,1.38387096774194,1.38387096774194,1.39032258064516,1.41612903225806,1.43870967741935,1.38709677419355,1.29677419354839,1.3,1.38064516129032,1.38709677419355,1.30967741935484,1.28709677419355,1.32903225806452,1.33548387096774,1.33225806451613,1.41612903225806,1.54516129032258,1.54193548387097,1.30322580645161,0.974193548387097,0.851612903225806,1.03870967741935,1.30967741935484,1.42258064516129,1.40967741935484,1.40645161290323,1.41290322580645,1.40645161290323,1.41290322580645,1.42903225806452,1.44193548387097,1.46451612903226,1.49032258064516,1.50322580645161,1.50645161290323,1.51935483870968,1.55806451612903,1.60322580645161,1.60967741935484,1.58064516129032,1.6,1.65161290322581,1.64193548387097,1.59032258064516,1.55161290322581,1.52258064516129,1.49032258064516,1.47741935483871,1.43870967741935,1.35161290322581,1.31290322580645,1.35806451612903,1.38709677419355,1.35806451612903,1.32258064516129,1.31290322580645,1.32903225806452,1.36451612903226,1.37096774193548,1.33870967741935,1.33548387096774,1.38387096774194,1.40645161290323,1.37741935483871,1.36774193548387,1.39354838709677,1.40645161290323,1.40322580645161,1.40645161290323,1.40967741935484,1.37741935483871,1.34516129032258,1.34516129032258,1.34516129032258,1.31612903225806,1.30645161290323,1.33548387096774,1.34516129032258,1.32903225806452,1.38064516129032,1.51290322580645,1.58064516129032,1.42903225806452,1.09677419354839,0.851612903225806,0.948387096774194,1.25161290322581,1.41612903225806,1.37741935483871,1.35483870967742,1.4,1.41935483870968,1.40967741935484,1.4258064516129,1.45161290322581,1.45161290322581,1.44193548387097,1.45806451612903,1.49032258064516,1.51290322580645,1.52258064516129,1.54516129032258,1.5741935483871,1.59032258064516,1.59677419354839,1.59677419354839,1.58064516129032,1.56129032258065,1.55483870967742,1.54193548387097,1.49677419354839,1.43870967741935,1.40645161290323,1.39354838709677,1.37741935483871,1.35161290322581,1.32903225806452,1.31612903225806,1.32903225806452,1.36129032258065,1.36451612903226,1.34838709677419,1.34838709677419,1.36129032258065,1.36451612903226,1.37096774193548,1.39032258064516,1.38064516129032,1.34838709677419,1.35483870967742,1.41935483870968,1.45483870967742,1.41935483870968,1.3741935483871,1.36774193548387,1.37741935483871,1.36129032258065,1.33225806451613,1.31612903225806,1.32903225806452,1.35161290322581,1.35483870967742,1.33548387096774,1.35806451612903,1.45161290322581,1.53548387096774,1.46774193548387,1.2258064516129,0.990322580645161,0.97741935483871,1.18387096774194,1.37741935483871,1.41935483870968,1.39677419354839,1.4,1.42258064516129,1.43225806451613,1.43225806451613,1.43548387096774,1.46129032258065,1.49032258064516,1.48064516129032,1.45806451612903,1.48064516129032,1.53548387096774,1.56774193548387,1.5741935483871,1.58064516129032,1.59677419354839,1.60967741935484,1.59677419354839,1.5741935483871,1.54838709677419,1.51290322580645,1.48387096774194,1.46774193548387,1.42903225806452,1.38387096774194,1.37741935483871,1.38709677419355,1.35806451612903,1.31290322580645,1.31290322580645,1.34516129032258,1.36774193548387,1.35806451612903,1.33870967741935,1.33870967741935,1.35806451612903,1.37741935483871,1.38387096774194,1.39032258064516,1.39677419354839,1.39032258064516,1.38709677419355,1.41612903225806,1.45483870967742,1.43225806451613,1.35161290322581,1.31612903225806,1.34516129032258,1.36129032258065,1.33548387096774,1.32903225806452,1.33870967741935,1.32903225806452,1.33548387096774,1.40322580645161,1.47741935483871,1.46774193548387,1.34838709677419,1.13548387096774,0.951612903225806,0.996774193548387,1.24516129032258,1.4258064516129,1.41935483870968,1.39032258064516,1.41290322580645,1.40645161290323,1.38709677419355,1.41612903225806,1.45161290322581,1.44838709677419,1.45806451612903,1.49032258064516,1.50322580645161,1.48709677419355,1.50645161290323,1.56451612903226,1.59677419354839,1.59032258064516,1.58064516129032,1.58387096774194,1.59354838709677,1.6,1.57096774193548,1.5,1.44838709677419,1.45483870967742,1.44838709677419,1.39032258064516,1.33225806451613,1.32258064516129,1.33548387096774,1.3258064516129,1.31612903225806,1.34516129032258,1.38387096774194,1.38387096774194,1.35483870967742,1.34516129032258,1.35806451612903,1.36774193548387,1.35806451612903,1.34838709677419,1.35806451612903,1.4,1.42903225806452,1.43225806451613,1.42903225806452,1.40967741935484,1.35483870967742,1.30967741935484,1.32903225806452,1.36451612903226,1.34516129032258,1.30967741935484,1.32258064516129,1.33870967741935,1.33225806451613,1.35483870967742,1.44193548387097,1.50645161290323,1.44516129032258,1.24193548387097,0.996774193548387,0.916129032258065,1.1,1.35806451612903,1.44838709677419,1.40322580645161,1.38709677419355,1.41290322580645,1.43548387096774,1.45806451612903,1.46129032258065,1.43225806451613,1.43225806451613,1.47741935483871,1.5,1.49032258064516,1.50645161290323,1.54516129032258,1.5741935483871,1.60967741935484,1.64516129032258,1.6258064516129,1.5741935483871,1.56774193548387,1.59032258064516,1.58064516129032,1.53225806451613,1.48064516129032,1.43225806451613,1.4,1.39677419354839,1.3741935483871,1.32258064516129,1.31612903225806,1.35483870967742,1.36774193548387,1.34193548387097,1.33548387096774,1.35806451612903,1.36451612903226,1.34838709677419,1.33548387096774,1.36451612903226,1.40322580645161,1.40967741935484,1.38387096774194,1.38387096774194,1.41612903225806,1.44193548387097,1.43225806451613,1.38064516129032,1.33870967741935,1.34516129032258,1.36129032258065,1.34516129032258,1.33225806451613,1.36129032258065,1.37741935483871,1.33225806451613,1.29677419354839,1.35161290322581,1.45161290322581,1.50322580645161,1.39677419354839,1.10967741935484,0.858064516129032,0.941935483870968,1.26774193548387,1.43225806451613,1.36774193548387,1.34838709677419,1.42903225806452,1.45483870967742,1.4258064516129,1.43225806451613,1.46129032258065,1.47741935483871,1.49677419354839,1.49677419354839,1.47096774193548,1.48064516129032,1.54193548387097,1.58387096774194,1.58387096774194,1.6,1.6258064516129,1.62258064516129,1.61290322580645,1.61612903225806,1.58709677419355,1.51290322580645,1.47096774193548,1.4741935483871,1.44838709677419,1.38387096774194,1.33548387096774,1.34193548387097,1.3741935483871,1.37096774193548,1.32258064516129,1.30645161290323,1.34516129032258,1.37096774193548,1.34193548387097,1.31935483870968,1.34838709677419,1.38709677419355,1.37741935483871,1.34516129032258,1.35483870967742,1.40322580645161,1.4258064516129,1.40322580645161,1.38709677419355,1.39354838709677,1.39032258064516,1.36451612903226,1.33548387096774,1.32903225806452,1.33225806451613,1.33225806451613,1.31612903225806,1.30967741935484,1.31935483870968,1.35161290322581,1.41612903225806,1.5,1.50645161290323,1.33870967741935,1.0258064516129,0.819354838709677,0.948387096774194,1.2741935483871,1.44516129032258,1.4,1.36451612903226,1.41612903225806,1.44516129032258,1.41935483870968,1.41290322580645,1.43548387096774,1.46129032258065,1.48709677419355,1.50322580645161,1.50322580645161,1.50645161290323,1.53870967741935,1.59354838709677,1.62258064516129,1.6258064516129,1.63225806451613,1.64516129032258,1.6258064516129,1.5741935483871,1.53548387096774,1.53870967741935,1.52903225806452,1.47096774193548,1.39677419354839,1.37741935483871,1.40967741935484,1.40322580645161,1.3258064516129,1.2741935483871,1.31612903225806,1.36774193548387,1.35483870967742,1.33548387096774,1.35161290322581,1.36129032258065,1.36129032258065,1.37741935483871,1.38387096774194,1.36774193548387,1.3741935483871,1.4,1.41290322580645,1.41290322580645,1.41290322580645,1.39677419354839,1.36774193548387,1.34516129032258,1.33225806451613,1.31612903225806,1.31612903225806,1.34193548387097,1.34838709677419,1.3258064516129,1.31935483870968,1.37741935483871,1.46451612903226,1.49354838709677,1.37096774193548,1.07096774193548,0.819354838709677,0.919354838709677,1.27741935483871,1.46129032258065,1.37741935483871,1.33225806451613,1.44193548387097,1.49032258064516,1.41612903225806,1.38709677419355,1.45483870967742,1.49677419354839,1.46774193548387,1.45806451612903,1.50322580645161,1.53870967741935,1.54193548387097,1.56451612903226,1.61290322580645,1.62903225806452,1.61935483870968,1.61290322580645,1.60645161290323,1.6,1.59677419354839,1.57096774193548,1.50967741935484,1.45806451612903,1.42903225806452,1.39032258064516,1.34838709677419,1.34516129032258,1.35483870967742,1.34193548387097,1.31935483870968,1.33548387096774,1.38064516129032,1.39677419354839,1.34838709677419,1.3,1.3258064516129,1.37741935483871,1.37741935483871,1.35161290322581,1.38064516129032,1.42903225806452,1.43870967741935,1.41612903225806,1.39677419354839,1.39032258064516,1.38064516129032,1.33870967741935,1.29032258064516,1.29032258064516,1.33225806451613,1.34193548387097,1.31612903225806,1.31290322580645,1.34193548387097,1.38387096774194,1.46129032258065,1.5258064516129,1.4,1.05161290322581,0.780645161290323,0.893548387096774,1.24516129032258,1.44193548387097,1.39677419354839,1.35483870967742,1.42258064516129,1.45806451612903,1.40967741935484,1.40322580645161,1.46774193548387,1.48387096774194,1.44193548387097,1.45483870967742,1.5258064516129,1.55806451612903,1.54838709677419,1.54516129032258,1.5741935483871,1.62903225806452,1.64193548387097,1.60645161290323,1.60322580645161,1.64193548387097,1.63870967741935,1.57096774193548,1.50967741935484,1.45161290322581,1.4,1.37741935483871,1.36774193548387,1.34193548387097,1.33225806451613,1.34838709677419,1.35161290322581,1.35806451612903,1.3741935483871,1.36451612903226,1.3258064516129,1.31290322580645,1.34193548387097,1.36451612903226,1.38064516129032,1.40322580645161,1.40967741935484,1.39677419354839,1.39032258064516,1.40645161290323,1.41612903225806,1.39032258064516,1.34838709677419,1.32903225806452,1.34193548387097,1.35806451612903,1.35483870967742,1.3258064516129,1.30322580645161,1.30322580645161,1.31935483870968,1.37096774193548,1.49032258064516,1.56774193548387,1.40645161290323,1.0258064516129,0.77741935483871,0.916129032258065,1.24193548387097,1.39677419354839,1.36451612903226,1.37741935483871,1.45483870967742,1.46129032258065,1.4258064516129,1.44516129032258,1.4741935483871,1.45161290322581,1.44516129032258,1.49032258064516,1.52903225806452,1.5258064516129,1.52258064516129,1.55806451612903,1.61290322580645,1.63870967741935,1.6258064516129,1.60967741935484,1.61290322580645,1.60645161290323,1.57096774193548,1.53870967741935,1.53548387096774,1.51935483870968,1.44516129032258,1.35806451612903,1.33225806451613,1.35161290322581,1.35483870967742,1.33548387096774,1.33870967741935,1.36129032258065,1.37096774193548,1.36451612903226,1.34838709677419,1.33225806451613,1.33548387096774,1.35806451612903,1.38064516129032,1.39032258064516,1.39677419354839,1.41290322580645,1.43225806451613,1.43870967741935,1.42903225806452,1.39032258064516,1.33225806451613,1.30322580645161,1.32258064516129,1.35161290322581,1.34838709677419,1.32903225806452,1.33225806451613,1.33548387096774,1.32903225806452,1.36451612903226,1.46774193548387,1.5258064516129,1.38709677419355,1.07096774193548,0.835483870967742,0.925806451612903,1.2258064516129,1.40322580645161,1.39032258064516,1.38064516129032,1.43225806451613,1.43548387096774,1.39677419354839,1.41290322580645,1.46774193548387,1.49354838709677,1.4741935483871,1.45806451612903,1.48387096774194,1.5258064516129,1.55806451612903,1.5741935483871,1.58387096774194,1.59677419354839,1.62258064516129,1.62903225806452,1.60322580645161,1.57741935483871,1.58709677419355,1.58709677419355,1.53225806451613,1.45161290322581,1.40322580645161,1.39032258064516,1.36129032258065,1.33225806451613,1.34516129032258,1.36451612903226,1.34516129032258,1.3258064516129,1.34193548387097,1.36451612903226,1.35161290322581,1.32903225806452,1.33548387096774,1.35806451612903,1.38064516129032,1.39677419354839,1.40322580645161,1.40322580645161,1.42258064516129,1.43870967741935,1.40322580645161,1.33225806451613,1.31612903225806,1.36129032258065,1.38387096774194,1.34838709677419,1.30322580645161,1.30645161290323,1.33225806451613,1.3258064516129,1.31935483870968,1.4,1.51935483870968,1.50645161290323,1.26451612903226,0.929032258064516,0.809677419354839,1.03225806451613,1.34516129032258,1.44516129032258,1.38709677419355,1.38709677419355,1.43548387096774,1.42903225806452,1.39677419354839,1.41290322580645,1.45483870967742,1.4741935483871,1.48709677419355,1.51612903225806,1.5258064516129,1.51290322580645,1.53225806451613,1.59677419354839,1.6258064516129,1.6,1.61290322580645,1.66129032258065,1.65806451612903,1.59354838709677,1.55806451612903,1.54838709677419,1.49677419354839,1.42258064516129,1.38064516129032,1.36774193548387,1.36129032258065,1.35806451612903,1.34838709677419,1.33225806451613,1.31612903225806,1.31935483870968,1.33870967741935,1.35161290322581,1.33870967741935,1.31935483870968,1.34838709677419,1.39354838709677,1.39354838709677,1.37741935483871,1.38064516129032,1.38709677419355,1.38064516129032,1.38064516129032,1.38064516129032,1.37096774193548,1.35483870967742,1.33548387096774,1.31290322580645,1.30322580645161,1.3258064516129,1.34193548387097,1.31935483870968,1.28709677419355,1.31612903225806,1.42903225806452,1.50967741935484,1.46129032258065,1.2741935483871,1.00322580645161,0.845161290322581,1,1.31935483870968,1.45483870967742,1.39354838709677,1.37096774193548,1.41290322580645,1.41935483870968,1.42258064516129,1.46774193548387,1.48387096774194,1.46129032258065,1.46451612903226,1.50322580645161,1.53225806451613,1.53548387096774,1.55806451612903,1.59354838709677,1.60645161290323,1.60322580645161,1.61612903225806,1.63548387096774,1.6258064516129,1.60322580645161,1.57741935483871,1.53870967741935,1.49354838709677,1.46774193548387,1.44838709677419,1.40645161290323,1.35161290322581,1.33225806451613,1.35161290322581,1.36451612903226,1.34838709677419,1.32903225806452,1.33225806451613,1.35161290322581,1.37096774193548,1.36774193548387,1.34838709677419,1.35161290322581,1.38709677419355,1.41612903225806,1.40967741935484,1.38709677419355,1.38387096774194,1.40645161290323,1.42903225806452,1.41290322580645,1.36451612903226,1.33870967741935,1.34838709677419,1.33870967741935,1.30967741935484,1.31290322580645,1.32903225806452,1.31935483870968,1.3258064516129,1.40322580645161,1.49354838709677,1.50967741935484,1.40322580645161,1.16129032258065,0.919354838709677,0.925806451612903,1.19032258064516,1.40967741935484,1.42903225806452,1.39032258064516,1.39032258064516,1.38709677419355,1.4,1.46451612903226,1.50645161290323,1.48709677419355,1.46129032258065,1.4741935483871,1.51290322580645,1.54193548387097,1.53548387096774,1.53225806451613,1.58064516129032,1.62903225806452,1.6258064516129,1.61290322580645,1.63225806451613,1.63548387096774,1.60645161290323,1.56774193548387,1.50967741935484,1.43225806451613,1.39354838709677,1.38709677419355,1.37096774193548,1.33548387096774,1.31290322580645,1.31290322580645,1.3258064516129,1.33870967741935,1.32903225806452,1.30322580645161,1.31290322580645,1.34193548387097,1.34838709677419,1.33870967741935,1.36129032258065,1.39032258064516,1.4,1.38387096774194,1.36451612903226,1.3741935483871,1.40967741935484,1.41290322580645,1.36774193548387,1.32903225806452,1.33225806451613,1.33870967741935,1.33225806451613,1.33870967741935,1.33225806451613,1.30645161290323,1.3,1.33225806451613,1.40322580645161,1.5,1.51612903225806,1.31935483870968,0.993548387096774,0.858064516129032,1.05483870967742,1.32903225806452,1.41612903225806,1.38064516129032,1.37096774193548,1.39354838709677,1.40967741935484,1.42903225806452,1.43870967741935,1.44516129032258,1.47741935483871,1.50645161290323,1.49354838709677,1.49677419354839,1.53870967741935,1.56129032258065,1.55806451612903,1.60322580645161,1.66451612903226,1.66129032258065,1.60322580645161,1.57096774193548,1.5741935483871,1.57096774193548,1.53870967741935,1.49677419354839,1.4741935483871,1.45161290322581,1.4,1.34516129032258,1.32903225806452,1.34516129032258,1.35806451612903,1.36129032258065,1.35806451612903,1.35483870967742,1.36774193548387,1.38709677419355,1.38064516129032,1.35483870967742,1.34838709677419,1.37096774193548,1.4,1.40645161290323,1.40322580645161,1.40322580645161,1.41935483870968,1.4258064516129,1.39032258064516,1.33870967741935,1.3258064516129,1.35483870967742,1.37096774193548,1.34838709677419,1.32258064516129,1.31935483870968,1.30967741935484,1.30645161290323,1.36451612903226,1.46129032258065,1.49677419354839,1.38387096774194,1.12903225806452,0.896774193548387,0.919354838709677,1.19677419354839,1.41935483870968,1.42258064516129,1.36451612903226,1.3741935483871,1.39032258064516,1.38709677419355,1.4,1.4258064516129,1.44838709677419,1.46129032258065,1.45806451612903,1.45806451612903,1.50645161290323,1.55161290322581,1.53548387096774,1.52258064516129,1.58387096774194,1.64516129032258,1.60645161290323,1.55483870967742,1.56774193548387,1.58064516129032,1.54516129032258,1.51612903225806,1.48709677419355,1.41935483870968,1.35161290322581,1.33548387096774,1.34516129032258,1.34516129032258,1.33225806451613,1.30967741935484,1.30967741935484,1.35161290322581,1.39032258064516,1.36774193548387,1.31290322580645,1.30967741935484,1.34838709677419,1.3741935483871,1.38387096774194,1.39032258064516
1.46129032258065,1.42258064516129,1.4258064516129,1.54516129032258,1.68709677419355,1.64838709677419,1.34193548387097,0.987096774193548,0.92258064516129,1.2,1.46774193548387,1.48709677419355,1.42903225806452,1.45161290322581,1.47741935483871,1.45806451612903,1.48387096774194,1.52903225806452,1.50645161290323,1.46129032258065,1.48064516129032,1.53870967741935,1.56129032258065,1.54838709677419,1.53870967741935,1.54838709677419,1.58064516129032,1.60967741935484,1.5741935483871,1.51612903225806,1.53225806451613,1.57741935483871,1.53548387096774,1.45483870967742,1.4258064516129,1.41290322580645,1.38387096774194,1.35806451612903,1.33225806451613,1.3,1.29677419354839,1.33225806451613,1.35483870967742,1.33225806451613,1.28709677419355,1.29354838709677,1.34193548387097,1.35483870967742,1.31290322580645,1.31935483870968,1.37096774193548,1.37096774193548,1.33225806451613,1.33870967741935,1.37096774193548,1.3741935483871,1.35161290322581,1.31612903225806,1.28387096774194,1.28387096774194,1.29354838709677,1.26774193548387,1.24193548387097,1.25806451612903,1.28709677419355,1.29677419354839,1.35161290322581,1.48064516129032,1.54516129032258,1.35806451612903,0.987096774193548,0.770967741935484,0.906451612903226,1.19354838709677,1.31290322580645,1.29032258064516,1.30967741935484,1.37096774193548,1.39032258064516,1.38064516129032,1.40645161290323,1.43225806451613,1.42258064516129,1.40322580645161,1.41290322580645,1.44193548387097,1.46774193548387,1.5,1.55161290322581,1.60322580645161,1.60967741935484,1.58709677419355,1.5741935483871,1.57741935483871,1.56451612903226,1.54193548387097,1.52258064516129,1.49032258064516,1.44516129032258,1.42258064516129,1.41290322580645,1.37741935483871,1.34516129032258,1.36129032258065,1.38064516129032,1.36774193548387,1.36451612903226,1.37741935483871,1.36129032258065,1.34193548387097,1.38709677419355,1.43870967741935,1.41935483870968,1.38064516129032,1.38709677419355,1.4258064516129,1.45806451612903,1.46451612903226,1.4258064516129,1.3741935483871,1.36451612903226,1.3741935483871,1.36451612903226,1.34193548387097,1.33548387096774,1.34193548387097,1.36129032258065,1.3741935483871,1.39032258064516,1.45161290322581,1.55806451612903,1.57741935483871,1.36451612903226,0.990322580645161,0.819354838709677,1.06129032258065,1.41935483870968,1.5,1.39677419354839,1.39677419354839,1.46451612903226,1.45161290322581,1.42258064516129,1.45483870967742,1.48709677419355,1.49032258064516,1.51612903225806,1.54516129032258,1.54838709677419,1.55806451612903,1.58387096774194,1.59032258064516,1.58709677419355,1.61290322580645,1.65161290322581,1.63870967741935,1.57096774193548,1.52903225806452,1.55161290322581,1.55161290322581,1.48387096774194,1.41935483870968,1.41935483870968,1.41290322580645,1.35161290322581,1.31935483870968,1.35483870967742,1.36774193548387,1.34516129032258,1.36129032258065,1.38387096774194,1.35483870967742,1.33548387096774,1.38387096774194,1.41935483870968,1.39677419354839,1.36451612903226,1.36774193548387,1.39032258064516,1.42903225806452,1.45161290322581,1.41612903225806,1.35806451612903,1.3258064516129,1.30967741935484,1.3258064516129,1.35806451612903,1.34838709677419,1.30322580645161,1.31290322580645,1.36451612903226,1.39677419354839,1.44516129032258,1.51612903225806,1.44193548387097,1.11290322580645,0.809677419354839,0.890322580645161,1.24838709677419,1.44193548387097,1.37096774193548,1.31612903225806,1.36774193548387,1.4,1.39354838709677,1.39677419354839,1.39354838709677,1.40645161290323,1.45806451612903,1.47741935483871,1.45161290322581,1.4741935483871,1.55161290322581,1.56774193548387,1.51612903225806,1.51935483870968,1.59677419354839,1.62258064516129,1.55806451612903,1.50645161290323,1.53548387096774,1.57741935483871,1.53870967741935,1.43548387096774,1.38064516129032,1.41935483870968,1.43225806451613,1.35806451612903,1.30322580645161,1.33870967741935,1.38064516129032,1.35483870967742,1.34516129032258,1.38064516129032,1.40322580645161,1.38709677419355,1.39032258064516,1.42258064516129,1.4258064516129,1.38064516129032,1.36451612903226,1.40322580645161,1.43870967741935,1.43870967741935,1.40322580645161,1.35806451612903,1.33225806451613,1.34516129032258,1.37096774193548,1.37096774193548,1.35161290322581,1.3258064516129,1.30322580645161,1.31935483870968,1.41612903225806,1.54516129032258,1.52903225806452,1.26129032258065,0.9,0.809677419354839,1.07741935483871,1.36451612903226,1.4,1.34193548387097,1.37741935483871,1.43870967741935,1.45483870967742,1.45483870967742,1.44516129032258,1.4258064516129,1.44516129032258,1.49354838709677,1.49677419354839,1.47096774193548,1.50322580645161,1.58064516129032,1.62258064516129,1.60645161290323,1.57741935483871,1.58064516129032,1.59677419354839,1.59354838709677,1.55806451612903,1.53225806451613,1.54516129032258,1.54193548387097,1.48064516129032,1.39032258064516,1.34193548387097,1.34838709677419,1.3741935483871,1.36774193548387,1.33225806451613,1.3258064516129,1.37096774193548,1.41935483870968,1.4,1.35161290322581,1.34838709677419,1.36774193548387,1.36451612903226,1.36774193548387,1.41290322580645,1.44193548387097,1.4258064516129,1.39354838709677,1.35806451612903,1.32903225806452,1.33225806451613,1.34193548387097,1.30322580645161,1.26774193548387,1.30645161290323,1.36129032258065,1.33548387096774,1.29032258064516,1.36774193548387,1.52258064516129,1.53548387096774,1.24193548387097,0.829032258064516,0.725806451612903,1.05161290322581,1.38709677419355,1.40967741935484,1.30967741935484,1.33225806451613,1.40645161290323,1.42258064516129,1.41935483870968,1.43870967741935,1.45483870967742,1.46129032258065,1.46774193548387,1.48709677419355,1.50967741935484,1.51935483870968,1.53870967741935,1.57096774193548,1.60322580645161,1.62258064516129,1.61935483870968,1.59354838709677,1.5741935483871,1.58387096774194,1.59032258064516,1.54516129032258,1.48064516129032,1.45483870967742,1.43870967741935,1.39032258064516,1.34838709677419,1.35806451612903,1.37096774193548,1.34516129032258,1.3258064516129,1.34838709677419,1.38387096774194,1.39354838709677,1.38709677419355,1.38387096774194,1.40322580645161,1.41612903225806,1.39677419354839,1.39354838709677,1.43225806451613,1.46451612903226,1.42258064516129,1.35806451612903,1.33870967741935,1.34516129032258,1.32903225806452,1.31612903225806,1.3258064516129,1.33548387096774,1.32258064516129,1.30645161290323,1.35806451612903,1.48387096774194,1.58709677419355,1.50322580645161,1.19032258064516,0.845161290322581,0.77741935483871,1.05806451612903,1.36129032258065,1.40967741935484,1.34516129032258,1.3741935483871,1.43548387096774,1.42258064516129,1.40322580645161,1.43870967741935,1.48387096774194,1.50645161290323,1.51290322580645,1.48387096774194,1.44838709677419,1.48709677419355,1.58064516129032,1.61290322580645,1.57741935483871,1.56451612903226,1.6,1.63870967741935,1.62903225806452,1.5741935483871,1.51935483870968,1.5,1.48064516129032,1.4258064516129,1.39032258064516,1.38064516129032,1.37096774193548,1.35806451612903,1.36451612903226,1.36129032258065,1.34516129032258,1.35483870967742,1.38064516129032,1.38387096774194,1.38387096774194,1.40322580645161,1.41612903225806,1.40645161290323,1.40645161290323,1.43548387096774,1.43870967741935,1.38387096774194,1.32258064516129,1.31935483870968,1.36129032258065,1.37741935483871,1.35483870967742,1.34193548387097,1.33870967741935,1.31935483870968,1.31935483870968,1.37741935483871,1.48387096774194,1.56129032258065,1.51290322580645,1.26774193548387,0.932258064516129,0.806451612903226,1.03225806451613,1.34516129032258,1.43548387096774,1.36774193548387,1.34516129032258,1.39677419354839,1.43225806451613,1.43225806451613,1.43225806451613,1.43548387096774,1.44838709677419,1.46451612903226,1.50322580645161,1.52903225806452,1.50967741935484,1.51290322580645,1.58387096774194,1.62258064516129,1.57096774193548,1.53548387096774,1.5741935483871,1.58709677419355,1.54516129032258,1.53225806451613,1.54838709677419,1.50645161290323,1.41935483870968,1.38064516129032,1.39032258064516,1.3741935483871,1.33548387096774,1.3258064516129,1.34193548387097,1.33870967741935,1.3258064516129,1.34193548387097,1.36774193548387,1.37096774193548,1.36774193548387,1.38709677419355,1.40322580645161,1.39677419354839,1.38709677419355,1.41935483870968,1.44516129032258,1.39354838709677,1.30645161290323,1.28709677419355,1.3258064516129,1.33225806451613,1.30967741935484,1.31612903225806,1.32903225806452,1.30322580645161,1.30322580645161,1.4,1.51612903225806,1.48064516129032,1.2258064516129,0.919354838709677,0.854838709677419,1.11612903225806,1.39354838709677,1.42903225806452,1.36774193548387,1.40967741935484,1.46451612903226,1.4258064516129,1.4,1.43870967741935,1.47096774193548,1.48387096774194,1.5,1.50967741935484,1.51290322580645,1.51935483870968,1.53548387096774,1.58064516129032,1.63870967741935,1.64516129032258,1.58387096774194,1.54193548387097,1.55806451612903,1.57741935483871,1.56129032258065,1.51935483870968,1.4741935483871,1.43870967741935,1.40645161290323,1.3741935483871,1.36129032258065,1.37741935483871,1.37741935483871,1.35483870967742,1.35806451612903,1.38064516129032,1.36774193548387,1.34838709677419,1.3741935483871,1.40967741935484,1.4,1.38709677419355,1.40645161290323,1.43870967741935,1.44516129032258,1.4258064516129,1.39354838709677,1.35483870967742,1.33870967741935,1.34516129032258,1.34516129032258,1.34193548387097,1.35161290322581,1.35161290322581,1.33548387096774,1.30645161290323,1.32258064516129,1.43870967741935,1.55806451612903,1.44516129032258,1.09677419354839,0.838709677419355,0.941935483870968,1.24838709677419,1.41935483870968,1.39677419354839,1.35806451612903,1.38387096774194,1.40967741935484,1.40645161290323,1.41290322580645,1.44193548387097,1.46129032258065,1.45161290322581,1.46129032258065,1.50967741935484,1.54838709677419,1.55806451612903,1.56129032258065,1.57096774193548,1.57741935483871,1.58064516129032,1.57741935483871,1.55806451612903,1.54516129032258,1.55483870967742,1.53870967741935,1.48387096774194,1.43548387096774,1.40645161290323,1.39354838709677,1.4,1.40645161290323,1.3741935483871,1.3258064516129,1.33870967741935,1.39354838709677,1.39354838709677,1.34838709677419,1.34193548387097,1.3741935483871,1.40645161290323,1.40967741935484,1.39677419354839,1.39032258064516,1.41290322580645,1.42903225806452,1.40645161290323,1.36129032258065,1.34193548387097,1.33548387096774,1.3258064516129,1.3258064516129,1.34838709677419,1.35483870967742,1.31612903225806,1.28709677419355,1.32903225806452,1.43225806451613,1.5258064516129,1.49354838709677,1.23548387096774,0.893548387096774,0.829032258064516,1.11290322580645,1.38387096774194,1.40645161290323,1.36451612903226,1.38709677419355,1.38387096774194,1.3741935483871,1.43225806451613,1.47096774193548,1.43870967741935,1.4258064516129,1.46774193548387,1.47741935483871,1.46451612903226,1.50967741935484,1.5741935483871,1.56774193548387,1.5258064516129,1.53548387096774,1.59677419354839,1.62258064516129,1.57741935483871,1.51612903225806,1.48709677419355,1.48709677419355,1.4741935483871,1.44838709677419,1.41290322580645,1.37741935483871,1.35483870967742,1.36451612903226,1.38709677419355,1.38064516129032,1.34838709677419,1.33870967741935,1.36774193548387,1.39032258064516,1.38709677419355,1.38064516129032,1.39354838709677,1.40967741935484,1.4,1.37741935483871,1.39032258064516,1.42258064516129,1.43548387096774,1.41290322580645,1.36129032258065,1.32258064516129,1.32258064516129,1.33870967741935,1.33225806451613,1.31612903225806,1.30967741935484,1.30322580645161,1.30645161290323,1.38064516129032,1.49354838709677,1.49677419354839,1.25806451612903,0.909677419354839,0.787096774193548,1.02258064516129,1.31935483870968,1.40322580645161,1.35483870967742,1.36774193548387,1.40967741935484,1.40645161290323,1.4,1.41290322580645,1.42258064516129,1.41612903225806,1.44193548387097,1.49032258064516,1.50645161290323,1.50322580645161,1.53548387096774,1.59354838709677,1.60645161290323,1.58709677419355,1.58709677419355,1.58709677419355,1.56451612903226,1.54516129032258,1.53548387096774,1.51935483870968,1.49354838709677,1.46129032258065,1.41290322580645,1.38709677419355,1.39354838709677,1.41290322580645,1.41290322580645,1.4,1.4,1.41290322580645,1.42258064516129,1.41290322580645,1.39677419354839,1.41290322580645,1.45483870967742,1.46774193548387,1.44838709677419,1.44838709677419,1.4741935483871,1.47741935483871,1.46129032258065,1.44193548387097,1.40645161290323,1.35806451612903,1.35483870967742,1.39677419354839,1.40322580645161,1.35806451612903,1.31290322580645,1.30322580645161,1.33225806451613,1.4,1.48709677419355,1.52903225806452,1.41290322580645,1.09677419354839,0.803225806451613,0.874193548387097,1.25806451612903,1.49032258064516,1.40967741935484,1.31290322580645,1.36774193548387,1.4258064516129,1.40967741935484,1.40645161290323,1.45161290322581,1.48387096774194,1.47096774193548,1.44516129032258,1.47096774193548,1.53548387096774,1.55806451612903,1.54516129032258,1.5741935483871,1.61612903225806,1.59677419354839,1.57096774193548,1.59032258064516,1.58064516129032,1.53870967741935,1.53870967741935,1.54193548387097,1.46774193548387,1.38709677419355,1.38709677419355,1.39032258064516,1.34193548387097,1.30967741935484,1.33870967741935,1.3741935483871,1.37096774193548,1.34838709677419,1.33225806451613,1.34193548387097,1.36129032258065,1.36451612903226,1.35161290322581,1.35483870967742,1.37741935483871,1.39677419354839,1.40967741935484,1.41612903225806,1.39354838709677,1.34193548387097,1.31612903225806,1.33548387096774,1.34193548387097,1.30967741935484,1.27741935483871,1.29032258064516,1.3258064516129,1.31935483870968,1.29032258064516,1.34193548387097,1.49354838709677,1.56774193548387,1.34193548387097,0.893548387096774,0.661290322580645,0.919354838709677,1.34516129032258,1.46774193548387,1.35483870967742,1.33548387096774,1.41935483870968,1.43548387096774,1.40322580645161,1.4258064516129,1.46451612903226,1.45806451612903,1.45161290322581,1.48064516129032,1.50645161290323,1.51612903225806,1.55161290322581,1.60322580645161,1.63548387096774,1.63548387096774,1.61935483870968,1.59354838709677,1.58387096774194,1.59354838709677,1.59354838709677,1.55161290322581,1.49677419354839,1.45806451612903,1.4258064516129,1.40322580645161,1.39354838709677,1.36451612903226,1.31935483870968,1.3258064516129,1.36774193548387,1.38387096774194,1.38064516129032,1.39354838709677,1.3741935483871,1.3258064516129,1.33870967741935,1.40645161290323,1.41935483870968,1.3741935483871,1.38387096774194,1.46129032258065,1.48387096774194,1.40645161290323,1.32903225806452,1.3258064516129,1.34516129032258,1.33225806451613,1.31612903225806,1.3258064516129,1.33870967741935,1.33225806451613,1.31935483870968,1.34193548387097,1.45483870967742,1.57741935483871,1.47096774193548,1.05806451612903,0.696774193548387,0.8,1.21935483870968,1.44516129032258,1.37741935483871,1.32258064516129,1.39032258064516,1.43870967741935,1.43225806451613,1.42903225806452,1.43225806451613,1.43870967741935,1.46129032258065,1.48709677419355,1.51290322580645,1.54193548387097,1.54838709677419,1.55483870967742,1.60322580645161,1.65161290322581,1.64193548387097,1.59354838709677,1.58064516129032,1.6,1.60322580645161,1.58709677419355,1.53870967741935,1.46774193548387,1.40967741935484,1.39677419354839,1.40967741935484,1.39677419354839,1.35806451612903,1.33870967741935,1.35483870967742,1.36129032258065,1.33548387096774,1.33225806451613,1.36129032258065,1.38387096774194,1.4,1.4258064516129,1.42258064516129,1.39032258064516,1.38387096774194,1.40645161290323,1.41935483870968,1.41612903225806,1.40645161290323,1.3741935483871,1.33548387096774,1.31612903225806,1.31935483870968,1.32258064516129,1.3258064516129,1.32903225806452,1.31612903225806,1.3258064516129,1.40967741935484,1.53225806451613,1.5258064516129,1.26451612903226,0.883870967741936,0.735483870967742,0.974193548387097,1.3,1.39032258064516,1.33225806451613,1.35483870967742,1.4258064516129,1.4258064516129,1.4,1.42903225806452,1.45483870967742,1.43870967741935,1.42903225806452,1.48387096774194,1.54838709677419,1.56129032258065,1.55161290322581,1.57096774193548,1.60322580645161,1.60645161290323,1.59354838709677,1.59677419354839,1.61935483870968,1.6258064516129,1.60967741935484,1.58064516129032,1.54838709677419,1.51612903225806,1.45806451612903,1.3741935483871,1.3258064516129,1.35161290322581,1.38709677419355,1.38387096774194,1.36774193548387,1.36129032258065,1.36129032258065,1.36129032258065,1.37096774193548,1.36451612903226,1.34516129032258,1.36129032258065,1.40645161290323,1.4258064516129,1.40967741935484,1.39354838709677,1.39354838709677,1.41290322580645,1.43225806451613,1.41935483870968,1.37741935483871,1.34516129032258,1.31935483870968,1.30645161290323,1.31935483870968,1.32903225806452,1.31290322580645,1.29354838709677,1.32258064516129,1.39354838709677,1.48064516129032,1.54193548387097,1.44838709677419,1.11612903225806,0.787096774193548,0.838709677419355,1.19354838709677,1.40645161290323,1.34838709677419,1.29677419354839,1.37096774193548,1.43225806451613,1.42903225806452,1.4258064516129,1.44838709677419,1.46774193548387,1.44838709677419,1.41290322580645,1.44516129032258,1.54193548387097,1.59677419354839,1.58064516129032,1.58064516129032,1.61290322580645,1.63225806451613,1.61935483870968,1.59677419354839,1.58064516129032,1.58064516129032,1.56129032258065,1.49354838709677,1.43870967741935,1.44516129032258,1.43870967741935,1.37741935483871,1.3258064516129,1.32258064516129,1.3258064516129,1.31935483870968,1.33870967741935,1.36451612903226,1.3741935483871,1.36451612903226,1.33548387096774,1.31935483870968,1.34516129032258,1.38387096774194,1.38387096774194,1.38064516129032,1.41612903225806,1.45161290322581,1.43548387096774,1.39032258064516,1.35806451612903,1.35161290322581,1.35806451612903,1.34193548387097,1.31290322580645,1.31612903225806,1.36129032258065,1.37096774193548,1.3258064516129,1.31612903225806,1.40645161290323,1.53225806451613,1.59354838709677,1.46129032258065,1.10645161290323,0.787096774193548,0.838709677419355,1.16774193548387,1.39032258064516,1.38709677419355,1.36129032258065,1.38709677419355,1.40645161290323,1.41612903225806,1.43225806451613,1.43548387096774,1.44838709677419,1.49354838709677,1.51612903225806,1.49354838709677,1.49032258064516,1.52903225806452,1.56774193548387,1.59032258064516,1.61290322580645,1.6258064516129,1.62258064516129,1.61935483870968,1.61290322580645,1.5741935483871,1.52258064516129,1.49354838709677,1.48709677419355,1.47096774193548,1.41612903225806,1.35483870967742,1.32903225806452,1.34516129032258,1.36451612903226,1.36129032258065,1.35161290322581,1.34516129032258,1.34516129032258,1.35806451612903,1.36451612903226,1.35806451612903,1.37096774193548,1.41612903225806,1.43225806451613,1.4,1.3741935483871,1.39677419354839,1.42258064516129,1.41935483870968,1.40322580645161,1.38064516129032,1.34838709677419,1.31935483870968,1.3258064516129,1.35806451612903,1.36129032258065,1.32258064516129,1.29354838709677,1.34193548387097,1.44516129032258,1.53870967741935,1.56129032258065,1.42903225806452,1.11935483870968,0.861290322580645,0.954838709677419,1.26129032258065,1.40645161290323,1.36129032258065,1.35483870967742,1.40322580645161,1.4,1.39032258064516,1.44193548387097,1.47096774193548,1.45161290322581,1.45806451612903,1.50645161290323,1.51935483870968,1.49354838709677,1.5,1.55161290322581,1.6,1.62258064516129,1.6258064516129,1.60967741935484,1.57741935483871,1.55483870967742,1.54516129032258,1.52258064516129,1.47096774193548,1.41935483870968,1.39354838709677,1.38709677419355,1.37096774193548,1.35161290322581,1.35483870967742,1.36129032258065,1.34516129032258,1.33548387096774,1.34838709677419,1.36451612903226,1.35161290322581,1.3258064516129,1.33870967741935,1.39354838709677,1.4258064516129,1.39032258064516,1.35806451612903,1.38709677419355,1.4258064516129,1.41290322580645,1.36774193548387,1.33870967741935,1.34516129032258,1.36129032258065,1.35483870967742,1.31612903225806,1.3,1.33225806451613,1.34838709677419,1.30967741935484,1.30645161290323,1.40967741935484,1.54516129032258,1.56451612903226,1.37741935483871,1.03870967741935,0.825806451612903,0.980645161290323,1.31290322580645,1.44193548387097,1.36774193548387,1.33870967741935,1.3741935483871,1.38064516129032,1.39032258064516,1.42903225806452,1.42903225806452,1.41290322580645,1.45806451612903,1.5,1.48064516129032,1.46774193548387,1.51290322580645,1.5741935483871,1.60322580645161,1.60322580645161,1.6,1.6,1.58709677419355,1.56129032258065,1.54193548387097,1.5258064516129,1.48064516129032,1.4258064516129,1.39677419354839,1.4,1.40322580645161,1.38387096774194,1.35483870967742,1.34193548387097,1.35161290322581,1.35806451612903,1.34193548387097,1.3258064516129,1.33870967741935,1.37741935483871,1.39354838709677,1.37741935483871,1.35483870967742,1.34193548387097,1.34516129032258,1.36451612903226,1.39032258064516,1.40645161290323,1.41612903225806,1.4258064516129,1.43225806451613,1.40967741935484,1.36451612903226,1.33548387096774
1.5258064516129,1.54838709677419,1.55161290322581,1.55161290322581,1.58709677419355,1.62903225806452,1.62903225806452,1.59354838709677,1.55483870967742,1.53548387096774,1.53548387096774,1.50967741935484,1.43548387096774,1.35806451612903,1.33548387096774,1.34193548387097,1.33548387096774,1.32258064516129,1.3258064516129,1.34838709677419,1.36774193548387,1.35483870967742,1.30967741935484,1.29354838709677,1.33225806451613,1.38064516129032,1.36774193548387,1.33548387096774,1.35483870967742,1.41290322580645,1.43225806451613,1.4,1.38387096774194,1.41612903225806,1.44193548387097,1.39677419354839,1.32903225806452,1.31935483870968,1.36451612903226,1.3741935483871,1.33225806451613,1.30645161290323,1.33548387096774,1.35161290322581,1.34838709677419,1.39677419354839,1.5,1.52258064516129,1.32903225806452,0.996774193548387,0.835483870967742,1.0258064516129,1.32258064516129,1.40967741935484,1.35161290322581,1.37096774193548,1.44838709677419,1.45161290322581,1.41612903225806,1.42258064516129,1.46774193548387,1.49677419354839,1.5,1.49032258064516,1.49354838709677,1.51290322580645,1.54516129032258,1.59354838709677,1.63870967741935,1.63225806451613,1.59354838709677,1.59677419354839,1.63548387096774,1.63225806451613,1.57096774193548,1.51612903225806,1.49032258064516,1.46774193548387,1.43225806451613,1.39677419354839,1.35806451612903,1.32903225806452,1.3258064516129,1.34193548387097,1.34193548387097,1.3258064516129,1.3258064516129,1.34193548387097,1.34838709677419,1.34838709677419,1.35806451612903,1.35483870967742,1.35483870967742,1.39354838709677,1.41935483870968,1.3741935483871,1.32258064516129,1.36451612903226,1.44193548387097,1.43548387096774,1.37096774193548,1.33548387096774,1.33870967741935,1.33225806451613,1.32258064516129,1.32903225806452,1.33225806451613,1.30645161290323,1.28064516129032,1.29677419354839,1.37741935483871,1.48064516129032,1.53225806451613,1.40967741935484,1.08064516129032,0.8,0.887096774193548,1.2258064516129,1.41935483870968,1.38064516129032,1.36451612903226,1.42903225806452,1.45161290322581,1.41290322580645,1.41290322580645,1.46451612903226,1.48387096774194,1.45161290322581,1.44516129032258,1.5,1.54193548387097,1.54838709677419,1.56451612903226,1.6,1.61612903225806,1.62258064516129,1.65161290322581,1.65483870967742,1.6,1.53548387096774,1.53225806451613,1.54516129032258,1.5,1.41290322580645,1.35483870967742,1.35806451612903,1.38387096774194,1.37096774193548,1.30967741935484,1.27096774193548,1.32258064516129,1.38709677419355,1.3741935483871,1.32258064516129,1.33225806451613,1.38387096774194,1.3741935483871,1.33870967741935,1.35806451612903,1.39032258064516,1.37741935483871,1.37741935483871,1.41612903225806,1.44193548387097,1.41935483870968,1.38387096774194,1.34838709677419,1.3258064516129,1.33548387096774,1.36129032258065,1.35161290322581,1.30967741935484,1.29677419354839,1.32903225806452,1.3741935483871,1.43225806451613,1.51290322580645,1.53548387096774,1.34193548387097,0.980645161290323,0.796774193548387,0.993548387096774,1.31612903225806,1.4258064516129,1.3741935483871,1.36451612903226,1.41935483870968,1.47096774193548,1.47741935483871,1.44193548387097,1.41612903225806,1.45161290322581,1.49677419354839,1.48387096774194,1.47096774193548,1.52258064516129,1.58387096774194,1.6,1.60645161290323,1.62258064516129,1.62903225806452,1.62258064516129,1.61612903225806,1.6,1.56451612903226,1.52258064516129,1.49032258064516,1.46774193548387,1.44516129032258,1.40645161290323,1.35806451612903,1.33225806451613,1.33870967741935,1.35483870967742,1.34838709677419,1.33548387096774,1.34516129032258,1.36774193548387,1.35806451612903,1.34193548387097,1.36129032258065,1.39354838709677,1.39354838709677,1.36451612903226,1.35483870967742,1.38064516129032,1.41290322580645,1.42903225806452,1.42903225806452,1.39677419354839,1.33548387096774,1.29354838709677,1.3,1.31290322580645,1.32258064516129,1.35161290322581,1.3741935483871,1.34838709677419,1.30645161290323,1.34838709677419,1.4741935483871,1.54838709677419,1.40645161290323,1.08709677419355,0.880645161290323,1.00645161290323,1.3,1.44193548387097,1.40322580645161,1.36451612903226,1.38064516129032,1.41290322580645,1.43870967741935,1.45161290322581,1.43870967741935,1.45483870967742,1.50322580645161,1.5258064516129,1.49677419354839,1.4741935483871,1.49677419354839,1.55161290322581,1.60322580645161,1.61290322580645,1.58387096774194,1.56774193548387,1.59354838709677,1.6,1.54838709677419,1.49354838709677,1.48064516129032,1.46451612903226,1.41612903225806,1.38064516129032,1.36774193548387,1.34838709677419,1.3258064516129,1.3258064516129,1.35483870967742,1.36774193548387,1.34193548387097,1.31612903225806,1.34193548387097,1.38064516129032,1.36451612903226,1.32903225806452,1.35483870967742,1.40967741935484,1.41290322580645,1.37741935483871,1.39354838709677,1.44516129032258,1.44516129032258,1.36129032258065,1.3,1.3258064516129,1.37096774193548,1.36129032258065,1.32903225806452,1.34193548387097,1.35161290322581,1.3258064516129,1.33225806451613,1.41935483870968,1.49677419354839,1.47096774193548,1.33225806451613,1.10967741935484,0.929032258064516,0.990322580645161,1.2741935483871,1.46129032258065,1.42903225806452,1.37741935483871,1.41612903225806,1.45483870967742,1.43870967741935,1.42258064516129,1.43870967741935,1.46451612903226,1.47741935483871,1.45483870967742,1.45161290322581,1.51612903225806,1.59677419354839,1.60645161290323,1.55806451612903,1.53870967741935,1.56451612903226,1.59677419354839,1.59677419354839,1.5741935483871,1.54838709677419,1.54193548387097,1.53225806451613,1.48064516129032,1.4,1.35483870967742,1.35483870967742,1.35483870967742,1.33225806451613,1.3258064516129,1.34838709677419,1.36129032258065,1.35806451612903,1.34838709677419,1.34193548387097,1.36129032258065,1.39032258064516,1.38709677419355,1.37096774193548,1.40645161290323,1.45161290322581,1.41290322580645,1.34516129032258,1.38387096774194,1.45483870967742,1.41612903225806,1.3258064516129,1.33225806451613,1.37741935483871,1.36129032258065,1.31935483870968,1.31290322580645,1.31935483870968,1.30967741935484,1.33225806451613,1.40322580645161,1.46451612903226,1.45483870967742,1.32258064516129,1.09032258064516,0.935483870967742,1.04193548387097,1.29354838709677,1.41935483870968,1.38064516129032,1.36774193548387,1.42903225806452,1.46129032258065,1.43548387096774,1.41935483870968,1.44193548387097,1.47741935483871,1.4741935483871,1.43225806451613,1.42258064516129,1.49354838709677,1.57096774193548,1.58064516129032,1.54516129032258,1.53548387096774,1.56774193548387,1.59032258064516,1.58064516129032,1.55161290322581,1.52903225806452,1.5,1.46129032258065,1.44516129032258,1.43548387096774,1.38709677419355,1.33225806451613,1.33870967741935,1.37741935483871,1.36129032258065,1.31290322580645,1.31612903225806,1.36129032258065,1.3741935483871,1.35806451612903,1.36129032258065,1.3741935483871,1.3741935483871,1.38064516129032,1.4,1.40645161290323,1.39677419354839,1.39677419354839,1.40967741935484,1.40322580645161,1.36129032258065,1.33225806451613,1.33225806451613,1.34193548387097,1.34516129032258,1.35483870967742,1.36451612903226,1.33870967741935,1.3,1.30322580645161,1.37741935483871,1.46129032258065,1.45161290322581,1.29354838709677,1.06129032258065,0.948387096774194,1.08709677419355,1.33870967741935,1.46129032258065,1.41935483870968,1.37096774193548,1.39032258064516,1.41290322580645,1.41290322580645,1.43225806451613,1.48064516129032,1.50322580645161,1.48387096774194,1.47096774193548,1.5,1.53870967741935,1.55483870967742,1.56774193548387,1.59354838709677,1.6,1.58387096774194,1.59032258064516,1.61612903225806,1.6,1.55161290322581,1.50967741935484,1.49032258064516,1.4741935483871,1.43225806451613,1.36451612903226,1.3258064516129,1.36129032258065,1.40967741935484,1.38387096774194,1.31290322580645,1.30322580645161,1.36129032258065,1.4,1.3741935483871,1.33225806451613,1.34193548387097,1.4,1.4258064516129,1.39032258064516,1.36451612903226,1.39032258064516,1.44193548387097,1.45483870967742,1.42903225806452,1.3741935483871,1.32903225806452,1.32258064516129,1.35483870967742,1.36774193548387,1.35161290322581,1.33225806451613,1.31935483870968,1.30967741935484,1.33548387096774,1.40322580645161,1.47741935483871,1.49354838709677,1.33870967741935,1.0258064516129,0.838709677419355,1.0258064516129,1.35483870967742,1.44838709677419,1.36129032258065,1.36451612903226,1.44193548387097,1.44838709677419,1.42903225806452,1.44516129032258,1.46129032258065,1.45483870967742,1.45806451612903,1.49354838709677,1.5258064516129,1.53225806451613,1.52903225806452,1.57096774193548,1.62903225806452,1.63225806451613,1.58064516129032,1.56451612903226,1.59354838709677,1.6,1.56129032258065,1.52903225806452,1.50967741935484,1.46774193548387,1.40967741935484,1.38064516129032,1.38064516129032,1.35806451612903,1.31935483870968,1.30967741935484,1.34516129032258,1.38387096774194,1.38387096774194,1.35483870967742,1.33870967741935,1.34838709677419,1.36451612903226,1.36774193548387,1.36129032258065,1.36451612903226,1.39032258064516,1.40967741935484,1.41935483870968,1.41935483870968,1.40322580645161,1.36774193548387,1.34193548387097,1.33870967741935,1.31935483870968,1.29354838709677,1.3,1.3258064516129,1.3258064516129,1.31290322580645,1.33225806451613,1.40645161290323,1.49354838709677,1.5,1.32258064516129,1.00645161290323,0.812903225806452,0.970967741935484,1.29677419354839,1.43548387096774,1.38387096774194,1.36774193548387,1.42258064516129,1.43548387096774,1.4,1.41612903225806,1.47741935483871,1.49032258064516,1.44516129032258,1.43225806451613,1.48709677419355,1.54516129032258,1.57096774193548,1.58064516129032,1.58709677419355,1.58064516129032,1.58709677419355,1.61290322580645,1.6258064516129,1.58709677419355,1.53225806451613,1.51290322580645,1.50967741935484,1.46774193548387,1.40322580645161,1.37096774193548,1.37096774193548,1.36129032258065,1.34193548387097,1.35161290322581,1.37741935483871,1.36774193548387,1.3258064516129,1.31290322580645,1.34193548387097,1.35483870967742,1.34516129032258,1.36129032258065,1.4,1.39677419354839,1.36774193548387,1.37741935483871,1.41612903225806,1.41935483870968,1.38709677419355,1.37096774193548,1.35483870967742,1.32258064516129,1.30645161290323,1.33548387096774,1.36774193548387,1.34516129032258,1.29354838709677,1.29032258064516,1.36451612903226,1.4741935483871,1.54838709677419,1.47096774193548,1.18709677419355,0.896774193548387,0.896774193548387,1.16774193548387,1.38387096774194,1.39677419354839,1.35806451612903,1.38387096774194,1.41935483870968,1.42903225806452,1.43225806451613,1.42903225806452,1.43548387096774,1.47096774193548,1.51290322580645,1.50967741935484,1.48387096774194,1.50322580645161,1.56451612903226,1.59032258064516,1.58387096774194,1.59677419354839,1.60645161290323,1.58709677419355,1.57741935483871,1.58709677419355,1.56129032258065,1.5,1.44838709677419,1.41935483870968,1.4,1.40645161290323,1.39354838709677,1.33225806451613,1.29032258064516,1.33870967741935,1.40322580645161,1.38064516129032,1.31935483870968,1.32903225806452,1.38064516129032,1.4,1.38064516129032,1.37741935483871,1.4,1.41290322580645,1.40645161290323,1.40322580645161,1.42258064516129,1.43870967741935,1.41612903225806,1.37096774193548,1.33870967741935,1.3258064516129,1.33225806451613,1.35483870967742,1.35806451612903,1.33225806451613,1.32903225806452,1.38387096774194,1.46774193548387,1.53225806451613,1.52258064516129,1.35483870967742,1.06451612903226,0.919354838709677,1.09354838709677,1.36129032258065,1.43548387096774,1.38064516129032,1.39032258064516,1.4258064516129,1.41290322580645,1.41612903225806,1.46451612903226,1.47741935483871,1.42903225806452,1.41612903225806,1.47096774193548,1.51612903225806,1.50967741935484,1.50967741935484,1.55161290322581,1.59354838709677,1.58064516129032,1.55483870967742,1.56451612903226,1.58709677419355,1.58064516129032,1.54193548387097,1.48064516129032,1.43548387096774,1.42903225806452,1.41935483870968,1.36451612903226,1.32903225806452,1.34516129032258,1.36774193548387,1.35806451612903,1.35161290322581,1.35483870967742,1.35483870967742,1.34193548387097,1.32903225806452,1.33548387096774,1.35806451612903,1.3741935483871,1.3741935483871,1.38387096774194,1.41290322580645,1.4258064516129,1.40967741935484,1.4,1.39677419354839,1.36451612903226,1.3258064516129,1.31612903225806,1.33548387096774,1.34516129032258,1.34193548387097,1.33225806451613,1.32258064516129,1.32903225806452,1.39032258064516,1.48709677419355,1.51935483870968,1.39032258064516,1.1258064516129,0.916129032258065,0.97741935483871,1.24516129032258,1.42903225806452,1.4,1.34193548387097,1.38064516129032,1.43548387096774,1.4258064516129,1.40967741935484,1.43225806451613,1.45806451612903,1.46774193548387,1.48064516129032,1.5,1.50322580645161,1.50645161290323,1.52903225806452,1.55806451612903,1.58064516129032,1.59354838709677,1.58709677419355,1.55806451612903,1.55806451612903,1.57096774193548,1.51290322580645,1.42258064516129,1.41612903225806,1.44838709677419,1.39354838709677,1.30645161290323,1.31935483870968,1.37096774193548,1.36451612903226,1.34193548387097,1.35483870967742,1.36451612903226,1.35161290322581,1.34838709677419,1.36129032258065,1.38387096774194,1.38709677419355,1.36451612903226,1.36129032258065,1.39677419354839,1.4258064516129,1.42258064516129,1.41612903225806,1.42258064516129,1.39354838709677,1.33225806451613,1.29677419354839,1.31612903225806,1.35161290322581,1.35483870967742,1.32903225806452,1.31935483870968,1.34516129032258,1.40967741935484,1.47741935483871,1.49354838709677,1.38709677419355,1.14516129032258,0.912903225806452,0.958064516129032,1.25161290322581,1.44516129032258,1.41290322580645,1.36451612903226,1.41612903225806,1.44516129032258,1.41935483870968,1.41612903225806,1.43548387096774,1.45161290322581,1.46774193548387,1.48709677419355,1.49032258064516,1.49677419354839,1.54193548387097,1.6,1.60645161290323,1.57096774193548,1.56129032258065,1.59677419354839,1.59677419354839,1.55161290322581,1.52258064516129,1.54516129032258,1.54193548387097,1.4741935483871,1.39677419354839,1.3741935483871,1.38387096774194,1.38387096774194,1.34838709677419,1.31612903225806,1.33870967741935,1.39354838709677,1.41290322580645,1.3741935483871,1.35806451612903,1.37741935483871,1.37741935483871,1.34838709677419,1.35806451612903,1.41290322580645,1.43548387096774,1.41935483870968,1.42903225806452,1.44516129032258,1.40645161290323,1.34838709677419,1.34516129032258,1.36774193548387,1.35483870967742,1.32903225806452,1.32903225806452,1.34838709677419,1.34193548387097,1.3258064516129,1.36774193548387,1.46774193548387,1.5,1.32903225806452,1.01935483870968,0.858064516129032,1.0258064516129,1.31290322580645,1.43225806451613,1.40645161290323,1.40322580645161,1.4258064516129,1.41935483870968,1.41290322580645,1.42258064516129,1.43548387096774,1.45806451612903,1.49354838709677,1.51290322580645,1.5258064516129,1.54838709677419,1.55161290322581,1.53548387096774,1.54193548387097,1.58709677419355,1.6258064516129,1.61612903225806,1.58064516129032,1.54838709677419,1.5258064516129,1.50322580645161,1.4741935483871,1.43870967741935,1.40645161290323,1.36451612903226,1.33225806451613,1.32258064516129,1.33548387096774,1.34838709677419,1.34516129032258,1.34516129032258,1.37096774193548,1.39354838709677,1.37741935483871,1.35483870967742,1.36774193548387,1.39032258064516,1.38709677419355,1.38064516129032,1.39677419354839,1.42903225806452,1.43548387096774,1.39677419354839,1.36129032258065,1.36129032258065,1.36774193548387,1.34838709677419,1.33225806451613,1.34516129032258,1.36129032258065,1.33870967741935,1.3,1.3,1.36129032258065,1.45161290322581,1.46451612903226,1.29032258064516,1.00645161290323,0.887096774193548,1.06774193548387,1.3258064516129,1.4,1.34516129032258,1.35161290322581,1.41935483870968,1.44193548387097,1.42258064516129,1.42903225806452,1.46451612903226,1.48064516129032,1.48064516129032,1.48064516129032,1.49354838709677,1.50645161290323,1.53870967741935,1.57741935483871,1.6,1.60322580645161,1.60645161290323,1.6,1.57741935483871,1.55483870967742,1.53870967741935,1.51935483870968,1.48387096774194,1.43548387096774,1.4,1.38064516129032,1.36774193548387,1.36451612903226,1.37096774193548,1.36129032258065,1.34193548387097,1.33870967741935,1.34838709677419,1.35161290322581,1.34516129032258,1.35806451612903,1.38064516129032,1.39032258064516,1.38064516129032,1.38387096774194,1.40645161290323,1.43225806451613,1.44193548387097,1.4258064516129,1.37096774193548,1.31612903225806,1.31935483870968,1.36451612903226,1.38064516129032,1.33548387096774,1.30645161290323,1.33870967741935,1.34838709677419,1.30967741935484,1.32903225806452,1.44516129032258,1.49677419354839,1.33225806451613,1.0258064516129,0.848387096774194,1.00322580645161,1.32903225806452,1.47741935483871,1.40645161290323,1.36451612903226,1.40967741935484,1.41290322580645,1.39354838709677,1.43870967741935,1.49032258064516,1.48709677419355,1.4741935483871,1.49354838709677,1.5258064516129,1.54516129032258,1.54838709677419,1.55483870967742,1.5741935483871,1.6,1.60645161290323,1.59354838709677,1.57741935483871,1.56774193548387,1.55483870967742,1.53225806451613,1.50645161290323,1.46774193548387,1.42258064516129,1.38064516129032,1.36451612903226,1.36451612903226,1.36451612903226,1.35483870967742,1.34193548387097,1.33870967741935,1.34838709677419,1.35483870967742,1.35806451612903,1.36129032258065,1.3741935483871,1.38387096774194,1.39032258064516,1.39354838709677,1.39677419354839,1.40322580645161,1.40967741935484,1.40322580645161,1.39032258064516,1.37096774193548,1.34838709677419,1.31612903225806,1.30645161290323,1.3258064516129,1.34516129032258,1.33870967741935,1.31290322580645,1.30967741935484,1.35161290322581,1.43870967741935,1.49032258064516,1.36451612903226,1.03548387096774,0.783870967741935,0.912903225806452,1.2741935483871,1.46129032258065,1.40645161290323,1.36774193548387,1.41290322580645,1.43548387096774,1.41612903225806,1.40967741935484,1.42258064516129,1.45483870967742,1.49354838709677,1.50967741935484,1.49677419354839,1.50322580645161,1.54516129032258,1.59032258064516,1.61290322580645,1.6258064516129,1.63225806451613,1.6258064516129,1.60967741935484,1.59354838709677,1.57741935483871,1.55806451612903,1.53548387096774,1.49354838709677,1.43548387096774,1.38709677419355,1.36774193548387,1.36451612903226,1.3741935483871,1.38709677419355,1.38064516129032,1.35483870967742,1.33548387096774,1.33548387096774,1.35806451612903,1.38709677419355,1.39032258064516,1.3741935483871,1.3741935483871,1.39677419354839,1.40322580645161,1.4,1.41612903225806,1.44516129032258,1.43225806451613,1.37096774193548,1.30967741935484,1.3,1.33870967741935,1.38064516129032,1.36774193548387,1.31290322580645,1.29354838709677,1.3258064516129,1.35806451612903,1.40645161290323,1.48064516129032,1.42258064516129,1.11935483870968,0.809677419354839,0.861290322580645,1.21612903225806,1.45483870967742,1.40967741935484,1.34193548387097,1.40322580645161,1.45161290322581,1.41935483870968,1.41612903225806,1.46129032258065,1.48387096774194,1.49677419354839,1.52903225806452,1.53225806451613,1.5,1.51935483870968,1.58709677419355,1.61290322580645,1.6,1.61612903225806,1.64516129032258,1.62258064516129,1.58064516129032,1.56774193548387,1.57096774193548,1.53870967741935,1.49677419354839,1.46774193548387,1.41290322580645,1.34193548387097,1.31612903225806,1.32903225806452,1.32258064516129,1.31290322580645,1.33870967741935,1.36451612903226,1.35483870967742,1.35161290322581,1.36451612903226,1.34838709677419,1.31935483870968,1.33548387096774,1.38387096774194,1.39354838709677,1.37741935483871,1.39354838709677,1.42258064516129,1.41612903225806,1.3741935483871,1.33870967741935,1.31935483870968,1.31290322580645,1.30967741935484,1.30645161290323,1.30967741935484,1.31612903225806,1.30967741935484,1.32903225806452,1.42258064516129,1.50967741935484,1.40967741935484,1.1,0.816129032258065,0.848387096774194,1.14838709677419,1.38064516129032,1.39032258064516,1.35483870967742,1.39032258064516,1.41612903225806,1.40322580645161,1.41935483870968,1.45806451612903,1.4741935483871,1.46129032258065,1.46451612903226,1.49032258064516,1.51290322580645,1.51935483870968,1.54516129032258,1.59032258064516,1.61612903225806,1.61612903225806,1.60967741935484,1.61612903225806,1.63225806451613,1.60967741935484,1.53548387096774,1.47741935483871,1.47741935483871,1.4741935483871,1.40645161290323,1.3258064516129,1.30967741935484,1.36129032258065,1.39677419354839,1.36129032258065,1.31290322580645,1.32258064516129,1.35483870967742,1.35483870967742,1.34838709677419,1.36129032258065,1.3741935483871,1.38387096774194,1.40322580645161,1.40967741935484,1.41290322580645,1.44193548387097,1.46451612903226,1.4258064516129,1.35806451612903,1.33870967741935,1.35483870967742,1.35161290322581,1.34193548387097,1.34838709677419
