1.13870967741935,1.11935483870968,1.10645161290323,1.11935483870968,1.11290322580645,1.13548387096774,1.13548387096774,1.14838709677419,1.13870967741935,1.16129032258065,1.1741935483871,1.16774193548387,1.17096774193548,1.20967741935484,1.18387096774194,1.19354838709677,1.31612903225806,1.61612903225806,2.03225806451613,2.30322580645161,2.48387096774194,2.61612903225806,2.68064516129032,2.59354838709677,2.43870967741935,2.39677419354839,2.39677419354839,2.21935483870968,2.09354838709677,2.01612903225806,1.87096774193548,1.75806451612903,1.66774193548387,1.56774193548387,1.46129032258065,1.27096774193548,1.07741935483871,0.987096774193548,0.974193548387097,0.932258064516129,0.941935483870968,0.9,0.9,0.870967741935484,0.864516129032258,0.854838709677419,0.838709677419355,0.809677419354839,0.816129032258065,0.835483870967742,0.851612903225806,0.867741935483871,0.880645161290323,0.945161290322581,1,1.03870967741935,1.09677419354839,1.13225806451613,1.18709677419355,1.20645161290323,1.23548387096774,1.25806451612903,1.2741935483871,1.25806451612903,1.23870967741935,1.24516129032258,1.24838709677419,1.2258064516129,1.23548387096774,1.26129032258065,1.25161290322581,1.26774193548387,1.27096774193548,1.28709677419355,1.31290322580645,1.34193548387097,1.29354838709677,1.23548387096774,1.21935483870968,1.2258064516129,1.22258064516129,1.20645161290323,1.21935483870968,1.23225806451613,1.22903225806452,1.23225806451613,1.25483870967742,1.22258064516129,1.23870967741935,1.24193548387097,1.25483870967742,1.24838709677419,1.30322580645161,1.43225806451613,1.73870967741935,2.1258064516129,2.39677419354839,2.57741935483871,2.69032258064516,2.75806451612903,2.65483870967742,2.5,2.5,2.41935483870968,2.3,2.19032258064516,2.0741935483871,1.93548387096774,1.80645161290323,1.7258064516129,1.64516129032258,1.51935483870968,1.30967741935484,1.11290322580645,1.04516129032258,1.01935483870968,0.987096774193548,0.974193548387097,0.935483870967742,0.912903225806452,0.938709677419355,0.883870967741936,0.874193548387097,0.82258064516129,0.848387096774194,0.841935483870968,0.835483870967742,0.870967741935484,0.867741935483871,0.925806451612903,0.987096774193548,1.01935483870968,1.10967741935484,1.15806451612903,1.20645161290323,1.25161290322581,1.25806451612903,1.29032258064516,1.29677419354839,1.3258064516129,1.33225806451613,1.30967741935484,1.3,1.30645161290323,1.30645161290323,1.29032258064516,1.29354838709677,1.28709677419355,1.29677419354839,1.31290322580645,1.33548387096774,1.34193548387097,1.37096774193548,1.34838709677419,1.27096774193548,1.24516129032258,1.2741935483871,1.26774193548387,1.24193548387097,1.24193548387097,1.26774193548387,1.26129032258065,1.26129032258065,1.28709677419355,1.2741935483871,1.28387096774194,1.28387096774194,1.31612903225806,1.3,1.33548387096774,1.46774193548387,1.78064516129032,2.18709677419355,2.45483870967742,2.65161290322581,2.74838709677419,2.79354838709677,2.70322580645161,2.56129032258065,2.56129032258065,2.52258064516129,2.36774193548387,2.2741935483871,2.15483870967742,1.99354838709677,1.85806451612903,1.75806451612903,1.64193548387097,1.51612903225806,1.29354838709677,1.08387096774194,0.996774193548387,0.980645161290323,0.938709677419355,0.932258064516129,0.906451612903226,0.887096774193548,0.864516129032258,0.841935483870968,0.812903225806452,0.793548387096774,0.774193548387097,0.796774193548387,0.783870967741935,0.783870967741935,0.793548387096774,0.845161290322581,0.890322580645161,0.941935483870968,0.990322580645161,1.05483870967742,1.13548387096774,1.17096774193548,1.22903225806452,1.24193548387097,1.24838709677419,1.27741935483871,1.28064516129032,1.27741935483871,1.2741935483871,1.26774193548387,1.26451612903226,1.25483870967742,1.26129032258065,1.25483870967742,1.27741935483871,1.2741935483871,1.30967741935484,1.31935483870968,1.33225806451613,1.36129032258065,1.28064516129032,1.21612903225806,1.23548387096774,1.2258064516129,1.23225806451613,1.2258064516129,1.22258064516129,1.24838709677419,1.24838709677419,1.24516129032258,1.26129032258065,1.26129032258065,1.27741935483871,1.29032258064516,1.2741935483871,1.28709677419355,1.38387096774194,1.64516129032258,2.09677419354839,2.35806451612903,2.57096774193548,2.66451612903226,2.79677419354839,2.74193548387097,2.58387096774194,2.50967741935484,2.50645161290323,2.38064516129032,2.28064516129032,2.14516129032258,2.02258064516129,1.83548387096774,1.73870967741935,1.67096774193548,1.55806451612903,1.33548387096774,1.17096774193548,1.02903225806452,0.987096774193548,0.983870967741935,0.958064516129032,0.964516129032258,0.932258064516129,0.925806451612903,0.887096774193548,0.870967741935484,0.867741935483871,0.835483870967742,0.858064516129032,0.835483870967742,0.867741935483871,0.874193548387097,0.948387096774194,0.974193548387097,1.00967741935484,1.07741935483871,1.14516129032258,1.19354838709677,1.22258064516129,1.25806451612903,1.26451612903226,1.31290322580645,1.29032258064516,1.31935483870968,1.31290322580645,1.29032258064516,1.30322580645161,1.28387096774194,1.28064516129032,1.2741935483871,1.28387096774194,1.26451612903226,1.29354838709677,1.30967741935484,1.30967741935484,1.32903225806452,1.33870967741935,1.23548387096774,1.21935483870968,1.21935483870968,1.23870967741935,1.22258064516129,1.21612903225806,1.25806451612903,1.22903225806452,1.23225806451613,1.26774193548387,1.25161290322581,1.26774193548387,1.28709677419355,1.28064516129032,1.27741935483871,1.31935483870968,1.43870967741935,1.73548387096774,2.15483870967742,2.37096774193548,2.60645161290323,2.68709677419355,2.73548387096774,2.64516129032258,2.50322580645161,2.4741935483871,2.39032258064516,2.25161290322581,2.13548387096774,2.01612903225806,1.89032258064516,1.73870967741935,1.71290322580645,1.63225806451613,1.49677419354839,1.28387096774194,1.10645161290323,1.01935483870968,1.00322580645161,0.990322580645161,0.941935483870968,0.967741935483871,0.92258064516129,0.906451612903226,0.9,0.864516129032258,0.838709677419355,0.838709677419355,0.832258064516129,0.832258064516129,0.864516129032258,0.9,0.945161290322581,0.980645161290323,1.03548387096774,1.08709677419355,1.13225806451613,1.21290322580645,1.20967741935484,1.26129032258065,1.28387096774194,1.28709677419355,1.28064516129032,1.3,1.30967741935484,1.2741935483871,1.29677419354839,1.28064516129032,1.26451612903226,1.28709677419355,1.26451612903226,1.28064516129032,1.30967741935484,1.31612903225806,1.31612903225806,1.32903225806452,1.28064516129032,1.21935483870968,1.22258064516129,1.23870967741935,1.21935483870968,1.21612903225806,1.20322580645161,1.21612903225806,1.21612903225806,1.23870967741935,1.23548387096774,1.2258064516129,1.25161290322581,1.24193548387097,1.28064516129032,1.26774193548387,1.37741935483871,1.56451612903226,1.94516129032258,2.25806451612903,2.52258064516129,2.64838709677419,2.73225806451613,2.77096774193548,2.62903225806452,2.50645161290323,2.54193548387097,2.40645161290323,2.30322580645161,2.18064516129032,2.04516129032258,1.91290322580645,1.77741935483871,1.69354838709677,1.59677419354839,1.41612903225806,1.2258064516129,1.05806451612903,0.993548387096774,0.980645161290323,0.967741935483871,0.92258064516129,0.912903225806452,0.880645161290323,0.858064516129032,0.848387096774194,0.819354838709677,0.803225806451613,0.774193548387097,0.809677419354839,0.803225806451613,0.819354838709677,0.861290322580645,0.887096774193548,0.948387096774194,1.00645161290323,1.07096774193548,1.11612903225806,1.16451612903226,1.22903225806452,1.26774193548387,1.27741935483871,1.29677419354839,1.28387096774194,1.27741935483871,1.29032258064516,1.27096774193548,1.28064516129032,1.2741935483871,1.2741935483871,1.2741935483871,1.29354838709677,1.30645161290323,1.31290322580645,1.31290322580645,1.34193548387097,1.34838709677419,1.26451612903226,1.20967741935484,1.22258064516129,1.21290322580645,1.20645161290323,1.22258064516129,1.21290322580645,1.21935483870968,1.21612903225806,1.22903225806452,1.22258064516129,1.25483870967742,1.24193548387097,1.26774193548387,1.26451612903226,1.28387096774194,1.38387096774194,1.64193548387097,2.05806451612903,2.35483870967742,2.57741935483871,2.70322580645161,2.79032258064516,2.74516129032258,2.63225806451613,2.54193548387097,2.56451612903226,2.43225806451613,2.35806451612903,2.21935483870968,2.08064516129032,1.91612903225806,1.8,1.69677419354839,1.5741935483871,1.38709677419355,1.1741935483871,1.02903225806452,1.00322580645161,0.980645161290323,0.958064516129032,0.925806451612903,0.9,0.870967741935484,0.861290322580645,0.835483870967742,0.82258064516129,0.825806451612903,0.806451612903226,0.812903225806452,0.841935483870968,0.838709677419355,0.883870967741936,0.92258064516129,0.980645161290323,1.06129032258065,1.09677419354839,1.14838709677419,1.21290322580645,1.22903225806452,1.27096774193548,1.3,1.31935483870968,1.32258064516129,1.29677419354839,1.3,1.30645161290323,1.30645161290323,1.28387096774194,1.27741935483871,1.29354838709677,1.30645161290323,1.31290322580645,1.31290322580645,1.31935483870968,1.34838709677419,1.35161290322581,1.29677419354839,1.25483870967742,1.22903225806452,1.25161290322581,1.24193548387097,1.23548387096774,1.21935483870968,1.23548387096774,1.24193548387097,1.25161290322581,1.25806451612903,1.25483870967742,1.26129032258065,1.28387096774194,1.26129032258065,1.29032258064516,1.39354838709677,1.62903225806452,2.0258064516129,2.34193548387097,2.55806451612903,2.67096774193548,2.76129032258065,2.72903225806452,2.57741935483871,2.48387096774194,2.48064516129032,2.33225806451613,2.23870967741935,2.09677419354839,2.00967741935484,1.85161290322581,1.72903225806452,1.64838709677419,1.55483870967742,1.38387096774194,1.18064516129032,1.06451612903226,1.02903225806452,1.00322580645161,0.980645161290323,0.990322580645161,0.954838709677419,0.938709677419355,0.925806451612903,0.9,0.880645161290323,0.874193548387097,0.874193548387097,0.845161290322581,0.858064516129032,0.896774193548387,0.925806451612903,0.970967741935484,1.00967741935484,1.08709677419355,1.12258064516129,1.15161290322581,1.2,1.24838709677419,1.26129032258065,1.26774193548387,1.27741935483871,1.27741935483871,1.26774193548387,1.28709677419355,1.26774193548387,1.28064516129032,1.23870967741935,1.2258064516129,1.23225806451613,1.25483870967742,1.26774193548387,1.26774193548387,1.26451612903226,1.3,1.32903225806452,1.24516129032258,1.21290322580645,1.19032258064516,1.21935483870968,1.20967741935484,1.20645161290323,1.21935483870968,1.22903225806452,1.22903225806452,1.2258064516129,1.24193548387097,1.23548387096774,1.25483870967742,1.28064516129032,1.25161290322581,1.25806451612903,1.37096774193548,1.58064516129032,1.99677419354839,2.30645161290323,2.54838709677419,2.6258064516129,2.71612903225806,2.68387096774194,2.55806451612903,2.45161290322581,2.45161290322581,2.29354838709677,2.18064516129032,2.08709677419355,1.96451612903226,1.81290322580645,1.73548387096774,1.66129032258065,1.53870967741935,1.35806451612903,1.13870967741935,1.05161290322581,1.00322580645161,0.970967741935484,0.967741935483871,0.948387096774194,0.912903225806452,0.893548387096774,0.864516129032258,0.845161290322581,0.816129032258065,0.806451612903226,0.82258064516129,0.803225806451613,0.819354838709677,0.848387096774194,0.880645161290323,0.909677419354839,0.961290322580645,1.03225806451613,1.06774193548387,1.14838709677419,1.17741935483871,1.23870967741935,1.23870967741935,1.25161290322581,1.3,1.29677419354839,1.28709677419355,1.28709677419355,1.28064516129032,1.2741935483871,1.26774193548387,1.27741935483871,1.26129032258065,1.29677419354839,1.29677419354839,1.31290322580645,1.34516129032258,1.35483870967742,1.3741935483871,1.31612903225806,1.25483870967742,1.25806451612903,1.25161290322581,1.25483870967742,1.25483870967742,1.25806451612903,1.26774193548387,1.25483870967742,1.2741935483871,1.28387096774194,1.27741935483871,1.29354838709677,1.31612903225806,1.30645161290323,1.3258064516129,1.40322580645161,1.65161290322581,2.06451612903226,2.35483870967742,2.59354838709677,2.73225806451613,2.82903225806452,2.78387096774194,2.65161290322581,2.54838709677419,2.5741935483871,2.44838709677419,2.35161290322581,2.18387096774194,2.06451612903226,1.93870967741935,1.80645161290323,1.69354838709677,1.58709677419355,1.39032258064516,1.18387096774194,1.04838709677419,1.00322580645161,1.00322580645161,0.980645161290323,0.919354838709677,0.919354838709677,0.896774193548387,0.883870967741936,0.867741935483871,0.835483870967742,0.832258064516129,0.829032258064516,0.816129032258065,0.841935483870968,0.845161290322581,0.87741935483871,0.932258064516129,0.97741935483871,1.0258064516129,1.08064516129032,1.13870967741935,1.19354838709677,1.21935483870968,1.26129032258065,1.29032258064516,1.29032258064516,1.29354838709677,1.29354838709677,1.29354838709677,1.25806451612903,1.26451612903226,1.2741935483871,1.26451612903226,1.27096774193548,1.28709677419355,1.30322580645161,1.30322580645161,1.30645161290323,1.32903225806452,1.33225806451613,1.28064516129032,1.25483870967742,1.23870967741935,1.24838709677419,1.21290322580645,1.23225806451613,1.2258064516129,1.27096774193548,1.24193548387097,1.23548387096774,1.24193548387097,1.25806451612903,1.2741935483871,1.26774193548387,1.23548387096774,1.29032258064516,1.36129032258065,1.63870967741935,2.03870967741935,2.34193548387097,2.56451612903226,2.6741935483871,2.76774193548387,2.73870967741935,2.61612903225806,2.48709677419355,2.51935483870968,2.37741935483871,2.28709677419355,2.14838709677419,2.05161290322581,1.85483870967742,1.74193548387097,1.65161290322581,1.53870967741935,1.34516129032258,1.15483870967742,1.03548387096774,0.990322580645161,0.97741935483871,0.945161290322581,0.919354838709677,0.906451612903226,0.893548387096774,0.854838709677419,0.864516129032258,0.819354838709677,0.832258064516129,0.845161290322581,0.816129032258065,0.838709677419355,0.851612903225806,0.893548387096774,0.932258064516129,0.97741935483871,1.04516129032258,1.11290322580645,1.15483870967742,1.19354838709677,1.2258064516129,1.2258064516129,1.26129032258065,1.28064516129032,1.28064516129032,1.29032258064516,1.2741935483871,1.25161290322581,1.24516129032258,1.24193548387097,1.23225806451613,1.24838709677419,1.26774193548387,1.27096774193548,1.29354838709677,1.28064516129032,1.33225806451613,1.32903225806452,1.21935483870968,1.21290322580645,1.2,1.21290322580645,1.2,1.21290322580645,1.21612903225806,1.21935483870968,1.22903225806452,1.22258064516129,1.2258064516129,1.22903225806452,1.22258064516129,1.2258064516129,1.24838709677419,1.30322580645161,1.4258064516129,1.69677419354839,2.15161290322581,2.39677419354839,2.56774193548387,2.65161290322581,2.70645161290323,2.63225806451613,2.46129032258065,2.4741935483871,2.37096774193548,2.23225806451613,2.15161290322581,2.00645161290323,1.88064516129032,1.7741935483871,1.71935483870968,1.61935483870968,1.47741935483871,1.28387096774194,1.12903225806452,1.02258064516129,1.02903225806452,1.00645161290323,0.990322580645161,0.970967741935484,0.932258064516129,0.92258064516129,0.890322580645161,0.870967741935484,0.838709677419355,0.851612903225806,0.829032258064516,0.858064516129032,0.870967741935484,0.916129032258065,0.951612903225806,0.964516129032258,1.06451612903226,1.09032258064516,1.12903225806452,1.19677419354839,1.24193548387097,1.26451612903226,1.29354838709677,1.29032258064516,1.29032258064516,1.30645161290323,1.30645161290323,1.28387096774194,1.28064516129032,1.28064516129032,1.2741935483871,1.26774193548387,1.3,1.30322580645161,1.30967741935484,1.33870967741935,1.34516129032258,1.37096774193548,1.27741935483871,1.23548387096774,1.25483870967742,1.23870967741935,1.23870967741935,1.24838709677419,1.22903225806452,1.28064516129032,1.24838709677419,1.26129032258065,1.27741935483871,1.26129032258065,1.28064516129032,1.28709677419355,1.28387096774194,1.30967741935484,1.44193548387097,1.72258064516129,2.11612903225806,2.40645161290323,2.58709677419355,2.72258064516129,2.7741935483871,2.72258064516129,2.56451612903226,2.50645161290323,2.50322580645161,2.34838709677419,2.23548387096774,2.11612903225806,1.98387096774194,1.85483870967742,1.75483870967742,1.65483870967742,1.54516129032258,1.33548387096774,1.14516129032258,1.06129032258065,1.00967741935484,0.983870967741935,0.964516129032258,0.945161290322581,0.916129032258065,0.903225806451613,0.87741935483871,0.854838709677419,0.841935483870968,0.832258064516129,0.825806451612903,0.829032258064516,0.829032258064516,0.854838709677419,0.906451612903226,0.941935483870968,0.993548387096774,1.06129032258065,1.11935483870968,1.17741935483871,1.2258064516129,1.26129032258065,1.29677419354839,1.30645161290323,1.34516129032258,1.33548387096774,1.32903225806452,1.33870967741935,1.32258064516129,1.31290322580645,1.31290322580645,1.30322580645161,1.30967741935484,1.3258064516129,1.34193548387097,1.34193548387097,1.36774193548387,1.38064516129032,1.35806451612903,1.28064516129032,1.23548387096774,1.24838709677419,1.25483870967742,1.24193548387097,1.23225806451613,1.25483870967742,1.24193548387097,1.23870967741935,1.26451612903226,1.26774193548387,1.26774193548387,1.29354838709677,1.28387096774194,1.28387096774194,1.36774193548387,1.5741935483871,1.95161290322581,2.29032258064516,2.53225806451613,2.66774193548387,2.75161290322581,2.8258064516129,2.64193548387097,2.52903225806452,2.54193548387097,2.44838709677419,2.34193548387097,2.18387096774194,2.06129032258065,1.91935483870968,1.8,1.70967741935484,1.60645161290323,1.41290322580645,1.20322580645161,1.04838709677419,1.00645161290323,0.964516129032258,0.938709677419355,0.916129032258065,0.9,0.893548387096774,0.835483870967742,0.829032258064516,0.783870967741935,0.780645161290323,0.758064516129032,0.764516129032258,0.790322580645161,0.787096774193548,0.832258064516129,0.87741935483871,0.932258064516129,0.961290322580645,1.04193548387097,1.09677419354839,1.15161290322581,1.17741935483871,1.23225806451613,1.23548387096774,1.24193548387097,1.25806451612903,1.24838709677419,1.25161290322581,1.26129032258065,1.23870967741935,1.21612903225806,1.23870967741935,1.21935483870968,1.22903225806452,1.22903225806452,1.28387096774194,1.25161290322581,1.2741935483871,1.28709677419355,1.26774193548387,1.17741935483871,1.16451612903226,1.1741935483871,1.19354838709677,1.19677419354839,1.17096774193548,1.20322580645161,1.20645161290323,1.2,1.20967741935484,1.21290322580645,1.21612903225806,1.22903225806452,1.23870967741935,1.23870967741935,1.34193548387097,1.54838709677419,1.90967741935484,2.25806451612903,2.51290322580645,2.61612903225806,2.71612903225806,2.75161290322581,2.58387096774194,2.48709677419355,2.51935483870968,2.35806451612903,2.26129032258065,2.12903225806452,2.01290322580645,1.86129032258065,1.77096774193548,1.69032258064516,1.54516129032258,1.44193548387097,1.20645161290323,1.07096774193548,1.01935483870968,0.967741935483871,0.961290322580645,0.961290322580645,0.916129032258065,0.909677419354839,0.9,0.864516129032258,0.858064516129032,0.848387096774194,0.838709677419355,0.82258064516129,0.870967741935484,0.883870967741936,0.912903225806452,0.941935483870968,1.00322580645161,1.04193548387097,1.09032258064516,1.13548387096774,1.17741935483871,1.22903225806452,1.26451612903226,1.29032258064516,1.3,1.30645161290323,1.30322580645161,1.28709677419355,1.27096774193548,1.28064516129032,1.27096774193548,1.2741935483871,1.25806451612903,1.3,1.30322580645161,1.30967741935484,1.31935483870968,1.33548387096774,1.34838709677419,1.2741935483871,1.23870967741935,1.24838709677419,1.25806451612903,1.24838709677419,1.24516129032258,1.26774193548387,1.26774193548387,1.25806451612903,1.28387096774194,1.27741935483871,1.28387096774194,1.29677419354839,1.30645161290323,1.29677419354839,1.31290322580645,1.42903225806452,1.65161290322581,2.06774193548387,2.35483870967742,2.58387096774194,2.67741935483871,2.79354838709677,2.74838709677419,2.61612903225806,2.53548387096774,2.5,2.4,2.29677419354839,2.15806451612903,2.04516129032258,1.91290322580645,1.8,1.70967741935484,1.60322580645161,1.43225806451613,1.22903225806452,1.08387096774194,1.09677419354839,1.06774193548387,1.02258064516129,1.0258064516129,1.00967741935484,0.97741935483871,0.929032258064516,0.932258064516129,0.925806451612903,0.906451612903226,0.893548387096774,0.9,0.909677419354839,0.938709677419355,0.958064516129032,1.00645161290323,1.07096774193548,1.13225806451613,1.18064516129032,1.2258064516129,1.25161290322581,1.30322580645161,1.32258064516129,1.3741935483871,1.36774193548387,1.39032258064516,1.38387096774194,1.36129032258065,1.35806451612903,1.34516129032258,1.34193548387097,1.34193548387097,1.36129032258065,1.3741935483871,1.36774193548387,1.38387096774194,1.38387096774194,1.40322580645161,1.42258064516129,1.34193548387097,1.3,1.29677419354839,1.28064516129032,1.27096774193548,1.26774193548387,1.24838709677419,1.27741935483871,1.24838709677419,1.26129032258065,1.24838709677419,1.2258064516129,1.20967741935484,1.23870967741935,1.20645161290323,1.23225806451613,1.33870967741935,1.60645161290323,1.98387096774194,2.26774193548387,2.5
1.09677419354839,1.12258064516129,1.16774193548387,1.19677419354839,1.19677419354839,1.20322580645161,1.20645161290323,1.20645161290323,1.1741935483871,1.18064516129032,1.19032258064516,1.18387096774194,1.19032258064516,1.20645161290323,1.2258064516129,1.22903225806452,1.23225806451613,1.25483870967742,1.26129032258065,1.21290322580645,1.18709677419355,1.17096774193548,1.18387096774194,1.14838709677419,1.17096774193548,1.16451612903226,1.21290322580645,1.18387096774194,1.18064516129032,1.18709677419355,1.20322580645161,1.21935483870968,1.21935483870968,1.18387096774194,1.24193548387097,1.31290322580645,1.59354838709677,1.99677419354839,2.3,2.52258064516129,2.63548387096774,2.72903225806452,2.7,2.58064516129032,2.45483870967742,2.48387096774194,2.34516129032258,2.25483870967742,2.11935483870968,2.02258064516129,1.8258064516129,1.71290322580645,1.62903225806452,1.51290322580645,1.32258064516129,1.13225806451613,1.01612903225806,0.970967741935484,0.961290322580645,0.929032258064516,0.903225806451613,0.893548387096774,0.880645161290323,0.841935483870968,0.851612903225806,0.806451612903226,0.82258064516129,0.835483870967742,0.806451612903226,0.832258064516129,0.845161290322581,0.887096774193548,0.929032258064516,0.974193548387097,1.04193548387097,1.10967741935484,1.15483870967742,1.19354838709677,1.2258064516129,1.2258064516129,1.26129032258065,1.28387096774194,1.28387096774194,1.29354838709677,1.27741935483871,1.25806451612903,1.25161290322581,1.25161290322581,1.23870967741935,1.25806451612903,1.27741935483871,1.28064516129032,1.30322580645161,1.29032258064516,1.34193548387097,1.33870967741935,1.23225806451613,1.22258064516129,1.21290322580645,1.2258064516129,1.21290322580645,1.2258064516129,1.22903225806452,1.23548387096774,1.24193548387097,1.23548387096774,1.24193548387097,1.24516129032258,1.23870967741935,1.24193548387097,1.26451612903226,1.31935483870968,1.44516129032258,1.71290322580645,2.17096774193548,2.41290322580645,2.58709677419355,2.67096774193548,2.7258064516129,2.64838709677419,2.48064516129032,2.49354838709677,2.39032258064516,2.25161290322581,2.16774193548387,2.02258064516129,1.89677419354839,1.79354838709677,1.73870967741935,1.63870967741935,1.49677419354839,1.30322580645161,1.14516129032258,1.03870967741935,1.04516129032258,1.02258064516129,1.00645161290323,0.987096774193548,0.948387096774194,0.938709677419355,0.906451612903226,0.887096774193548,0.854838709677419,0.867741935483871,0.845161290322581,0.874193548387097,0.883870967741936,0.932258064516129,0.967741935483871,0.97741935483871,1.07741935483871,1.10645161290323,1.14193548387097,1.20967741935484,1.25483870967742,1.2741935483871,1.30645161290323,1.3,1.3,1.31612903225806,1.31612903225806,1.29354838709677,1.29032258064516,1.29032258064516,1.28064516129032,1.2741935483871,1.30645161290323,1.30967741935484,1.31612903225806,1.34516129032258,1.35161290322581,1.37741935483871,1.28387096774194,1.23870967741935,1.26129032258065,1.24193548387097,1.24193548387097,1.24838709677419,1.23225806451613,1.28064516129032,1.24838709677419,1.26129032258065,1.27741935483871,1.26129032258065,1.28064516129032,1.28387096774194,1.28387096774194,1.30645161290323,1.43870967741935,1.71935483870968,2.10967741935484,2.4,2.58064516129032,2.71612903225806,2.76774193548387,2.71612903225806,2.55483870967742,2.5,2.49677419354839,2.34193548387097,2.2258064516129,2.10645161290323,1.9741935483871,1.84516129032258,1.74516129032258,1.64838709677419,1.53548387096774,1.3258064516129,1.13225806451613,1.04838709677419,0.996774193548387,0.967741935483871,0.951612903225806,0.932258064516129,0.903225806451613,0.887096774193548,0.861290322580645,0.841935483870968,0.825806451612903,0.816129032258065,0.809677419354839,0.809677419354839,0.809677419354839,0.838709677419355,0.890322580645161,0.92258064516129,0.97741935483871,1.04193548387097,1.1,1.15806451612903,1.20322580645161,1.24193548387097,1.2741935483871,1.28709677419355,1.3258064516129,1.31290322580645,1.30645161290323,1.31612903225806,1.3,1.29032258064516,1.29354838709677,1.28387096774194,1.28709677419355,1.30322580645161,1.32258064516129,1.31935483870968,1.34516129032258,1.36129032258065,1.33548387096774,1.26129032258065,1.21612903225806,1.22903225806452,1.23225806451613,1.21935483870968,1.20967741935484,1.23225806451613,1.22258064516129,1.21935483870968,1.24516129032258,1.24838709677419,1.24838709677419,1.2741935483871,1.26451612903226,1.26774193548387,1.34838709677419,1.55483870967742,1.93225806451613,2.2741935483871,2.51612903225806,2.65161290322581,2.73548387096774,2.80967741935484,2.6258064516129,2.51290322580645,2.5258064516129,2.43548387096774,2.32903225806452,2.17096774193548,2.05161290322581,1.90967741935484,1.79032258064516,1.7,1.59677419354839,1.40322580645161,1.19354838709677,1.03870967741935,1,0.958064516129032,0.932258064516129,0.912903225806452,0.896774193548387,0.887096774193548,0.832258064516129,0.825806451612903,0.780645161290323,0.780645161290323,0.758064516129032,0.767741935483871,0.790322580645161,0.787096774193548,0.835483870967742,0.880645161290323,0.935483870967742,0.964516129032258,1.04838709677419,1.10322580645161,1.15806451612903,1.18387096774194,1.24193548387097,1.24516129032258,1.25161290322581,1.26774193548387,1.26129032258065,1.26451612903226,1.2741935483871,1.25161290322581,1.23225806451613,1.25483870967742,1.23548387096774,1.24838709677419,1.24838709677419,1.30322580645161,1.27096774193548,1.29354838709677,1.30967741935484,1.29032258064516,1.2,1.18709677419355,1.19677419354839,1.21935483870968,1.22258064516129,1.19677419354839,1.22903225806452,1.23548387096774,1.22903225806452,1.23548387096774,1.24193548387097,1.24516129032258,1.26129032258065,1.27096774193548,1.27096774193548,1.37096774193548,1.58064516129032,1.94193548387097,2.29032258064516,2.54838709677419,2.65161290322581,2.74838709677419,2.78387096774194,2.61935483870968,2.52258064516129,2.55483870967742,2.39354838709677,2.29677419354839,2.16451612903226,2.04838709677419,1.89677419354839,1.80645161290323,1.7258064516129,1.58064516129032,1.47741935483871,1.24193548387097,1.10645161290323,1.05483870967742,1.00322580645161,0.996774193548387,0.993548387096774,0.948387096774194,0.941935483870968,0.935483870967742,0.9,0.890322580645161,0.880645161290323,0.867741935483871,0.851612903225806,0.903225806451613,0.912903225806452,0.941935483870968,0.970967741935484,1.02903225806452,1.06774193548387,1.11612903225806,1.16129032258065,1.20322580645161,1.25161290322581,1.28709677419355,1.30967741935484,1.32258064516129,1.3258064516129,1.32258064516129,1.30322580645161,1.28387096774194,1.29354838709677,1.28387096774194,1.28709677419355,1.26774193548387,1.30967741935484,1.30967741935484,1.31290322580645,1.32258064516129,1.33548387096774,1.34838709677419,1.2741935483871,1.23870967741935,1.24193548387097,1.25161290322581,1.24193548387097,1.23548387096774,1.25806451612903,1.25483870967742,1.24516129032258,1.26774193548387,1.25806451612903,1.26129032258065,1.27096774193548,1.28064516129032,1.26774193548387,1.28387096774194,1.39677419354839,1.62258064516129,2.03225806451613,2.31612903225806,2.54516129032258,2.63548387096774,2.74838709677419,2.70322580645161,2.56774193548387,2.48387096774194,2.44838709677419,2.34516129032258,2.24193548387097,2.1,1.98387096774194,1.84838709677419,1.73548387096774,1.64516129032258,1.53548387096774,1.36129032258065,1.15806451612903,1.00967741935484,1.02258064516129,0.990322580645161,0.941935483870968,0.945161290322581,0.925806451612903,0.893548387096774,0.845161290322581,0.845161290322581,0.838709677419355,0.819354838709677,0.806451612903226,0.809677419354839,0.819354838709677,0.845161290322581,0.864516129032258,0.912903225806452,0.974193548387097,1.03548387096774,1.08709677419355,1.13225806451613,1.15483870967742,1.20967741935484,1.22903225806452,1.28064516129032,1.27741935483871,1.29677419354839,1.29354838709677,1.27096774193548,1.27096774193548,1.26129032258065,1.25806451612903,1.26129032258065,1.28064516129032,1.29677419354839,1.29354838709677,1.31290322580645,1.31612903225806,1.33870967741935,1.36129032258065,1.28709677419355,1.24838709677419,1.25161290322581,1.23870967741935,1.23548387096774,1.23870967741935,1.2258064516129,1.26129032258065,1.23870967741935,1.25806451612903,1.25161290322581,1.23548387096774,1.22903225806452,1.26774193548387,1.24516129032258,1.28064516129032,1.39677419354839,1.67096774193548,2.06451612903226,2.35806451612903,2.60322580645161,2.71612903225806,2.80967741935484,2.76129032258065,2.62903225806452,2.53870967741935,2.55806451612903,2.40967741935484,2.30967741935484,2.18387096774194,2.06451612903226,1.90322580645161,1.78709677419355,1.66774193548387,1.53870967741935,1.35806451612903,1.16451612903226,1.03870967741935,0.980645161290323,0.964516129032258,0.961290322580645,0.929032258064516,0.906451612903226,0.890322580645161,0.851612903225806,0.829032258064516,0.806451612903226,0.806451612903226,0.787096774193548,0.764516129032258,0.809677419354839,0.819354838709677,0.851612903225806,0.896774193548387,0.951612903225806,1.0258064516129,1.07096774193548,1.13870967741935,1.19032258064516,1.20322580645161,1.26129032258065,1.28064516129032,1.29354838709677,1.30322580645161,1.27741935483871,1.27741935483871,1.28064516129032,1.26129032258065,1.25161290322581,1.24516129032258,1.24838709677419,1.25483870967742,1.28064516129032,1.2741935483871,1.29354838709677,1.2741935483871,1.32903225806452,1.33548387096774,1.24838709677419,1.21612903225806,1.25161290322581,1.22903225806452,1.23548387096774,1.24838709677419,1.23548387096774,1.26129032258065,1.23548387096774,1.25806451612903,1.2741935483871,1.27096774193548,1.29677419354839,1.30322580645161,1.28064516129032,1.35483870967742,1.52258064516129,1.86129032258065,2.22258064516129,2.51935483870968,2.61935483870968,2.74193548387097,2.79032258064516,2.63548387096774,2.51935483870968,2.53225806451613,2.41290322580645,2.31935483870968,2.19677419354839,2.07741935483871,1.93870967741935,1.79677419354839,1.70967741935484,1.60967741935484,1.47096774193548,1.2258064516129,1.07741935483871,1.0258064516129,0.967741935483871,0.974193548387097,0.945161290322581,0.92258064516129,0.890322580645161,0.880645161290323,0.870967741935484,0.845161290322581,0.848387096774194,0.841935483870968,0.841935483870968,0.832258064516129,0.861290322580645,0.867741935483871,0.925806451612903,0.980645161290323,1.02903225806452,1.06451612903226,1.13548387096774,1.18064516129032,1.23548387096774,1.26129032258065,1.29354838709677,1.28387096774194,1.29677419354839,1.28709677419355,1.29354838709677,1.28064516129032,1.26774193548387,1.28709677419355,1.2741935483871,1.26774193548387,1.25483870967742,1.27096774193548,1.30322580645161,1.30967741935484,1.30645161290323,1.36774193548387,1.32258064516129,1.24193548387097,1.24193548387097,1.24193548387097,1.24516129032258,1.21935483870968,1.23548387096774,1.23870967741935,1.25161290322581,1.25806451612903,1.24838709677419,1.24516129032258,1.25483870967742,1.29677419354839,1.27741935483871,1.3,1.38387096774194,1.58387096774194,1.91612903225806,2.25483870967742,2.52258064516129,2.62258064516129,2.7258064516129,2.76129032258065,2.6,2.49677419354839,2.5,2.36129032258065,2.27096774193548,2.13548387096774,2.01612903225806,1.86774193548387,1.77096774193548,1.69354838709677,1.6,1.44516129032258,1.25806451612903,1.08709677419355,1.02258064516129,1.03548387096774,0.983870967741935,0.967741935483871,0.941935483870968,0.925806451612903,0.880645161290323,0.880645161290323,0.829032258064516,0.816129032258065,0.8,0.803225806451613,0.812903225806452,0.825806451612903,0.864516129032258,0.909677419354839,0.970967741935484,1.01612903225806,1.06774193548387,1.15161290322581,1.18387096774194,1.23225806451613,1.25483870967742,1.28387096774194,1.27741935483871,1.30967741935484,1.26774193548387,1.30322580645161,1.29354838709677,1.27741935483871,1.26451612903226,1.25161290322581,1.24838709677419,1.29032258064516,1.2741935483871,1.27741935483871,1.31935483870968,1.32903225806452,1.34516129032258,1.26129032258065,1.23548387096774,1.24516129032258,1.24838709677419,1.22903225806452,1.24193548387097,1.22903225806452,1.23870967741935,1.23548387096774,1.23870967741935,1.25483870967742,1.24838709677419,1.26774193548387,1.2741935483871,1.27741935483871,1.29032258064516,1.38709677419355,1.68387096774194,2.08064516129032,2.3741935483871,2.59032258064516,2.70322580645161,2.79032258064516,2.72258064516129,2.58709677419355,2.52903225806452,2.50967741935484,2.4,2.26774193548387,2.15483870967742,2.0258064516129,1.8741935483871,1.76774193548387,1.66129032258065,1.55161290322581,1.33870967741935,1.15806451612903,1.00645161290323,1.00645161290323,0.97741935483871,0.945161290322581,0.919354838709677,0.887096774193548,0.890322580645161,0.838709677419355,0.841935483870968,0.793548387096774,0.8,0.796774193548387,0.793548387096774,0.803225806451613,0.838709677419355,0.864516129032258,0.912903225806452,0.954838709677419,1.0258064516129,1.07741935483871,1.14193548387097,1.17741935483871,1.22903225806452,1.26129032258065,1.26451612903226,1.27741935483871,1.29032258064516,1.28709677419355,1.28387096774194,1.26451612903226,1.28064516129032,1.2741935483871,1.26451612903226,1.28064516129032,1.29354838709677,1.30967741935484,1.31290322580645,1.31290322580645,1.34193548387097,1.35483870967742,1.25806451612903,1.21935483870968,1.2258064516129,1.23870967741935,1.2258064516129,1.20645161290323,1.23225806451613,1.20967741935484,1.24193548387097,1.24838709677419,1.24193548387097,1.25483870967742,1.25161290322581,1.28064516129032,1.27096774193548,1.31290322580645,1.48387096774194,1.78387096774194,2.16451612903226,2.44193548387097,2.63870967741935,2.73870967741935,2.8258064516129,2.71935483870968,2.58709677419355,2.56451612903226,2.53548387096774,2.40322580645161,2.29677419354839,2.15161290322581,2.0258064516129,1.84516129032258,1.78064516129032,1.66774193548387,1.54838709677419,1.30645161290323,1.11935483870968,1.02258064516129,1.00322580645161,0.974193548387097,0.941935483870968,0.938709677419355,0.912903225806452,0.887096774193548,0.880645161290323,0.845161290322581,0.832258064516129,0.812903225806452,0.829032258064516,0.835483870967742,0.829032258064516,0.861290322580645,0.9,0.958064516129032,0.996774193548387,1.07096774193548,1.10645161290323,1.16129032258065,1.19677419354839,1.23870967741935,1.24838709677419,1.25161290322581,1.2741935483871,1.26451612903226,1.27741935483871,1.26774193548387,1.26451612903226,1.26129032258065,1.26129032258065,1.22258064516129,1.26129032258065,1.25483870967742,1.27096774193548,1.30322580645161,1.30645161290323,1.31935483870968,1.31290322580645,1.19677419354839,1.21612903225806,1.20967741935484,1.19354838709677,1.20322580645161,1.20645161290323,1.22258064516129,1.22258064516129,1.22258064516129,1.21290322580645,1.24838709677419,1.22903225806452,1.24516129032258,1.24838709677419,1.23548387096774,1.35483870967742,1.52903225806452,1.88709677419355,2.21935483870968,2.50322580645161,2.62258064516129,2.71290322580645,2.76129032258065,2.62903225806452,2.49032258064516,2.50967741935484,2.4,2.27096774193548,2.13870967741935,2.01935483870968,1.87741935483871,1.76129032258065,1.68387096774194,1.57096774193548,1.44516129032258,1.23548387096774,1.06451612903226,1.00967741935484,1.00322580645161,0.990322580645161,0.964516129032258,0.945161290322581,0.932258064516129,0.887096774193548,0.903225806451613,0.864516129032258,0.870967741935484,0.870967741935484,0.861290322580645,0.861290322580645,0.87741935483871,0.909677419354839,0.970967741935484,1,1.07096774193548,1.10967741935484,1.15806451612903,1.20322580645161,1.24193548387097,1.2741935483871,1.29677419354839,1.29677419354839,1.30645161290323,1.30967741935484,1.30967741935484,1.30322580645161,1.26129032258065,1.27096774193548,1.27096774193548,1.2741935483871,1.2741935483871,1.31290322580645,1.29032258064516,1.31612903225806,1.32903225806452,1.35483870967742,1.32258064516129,1.2258064516129,1.24516129032258,1.24516129032258,1.25161290322581,1.25161290322581,1.25161290322581,1.24838709677419,1.25161290322581,1.25483870967742,1.27096774193548,1.27096774193548,1.23548387096774,1.27741935483871,1.27741935483871,1.25806451612903,1.37741935483871,1.54516129032258,1.91290322580645,2.29032258064516,2.50322580645161,2.63870967741935,2.70322580645161,2.75161290322581,2.60322580645161,2.47741935483871,2.49677419354839,2.38064516129032,2.27096774193548,2.09354838709677,1.99677419354839,1.84838709677419,1.75806451612903,1.65161290322581,1.55161290322581,1.40322580645161,1.20322580645161,1.03870967741935,0.980645161290323,0.964516129032258,0.948387096774194,0.92258064516129,0.909677419354839,0.87741935483871,0.854838709677419,0.845161290322581,0.806451612903226,0.82258064516129,0.806451612903226,0.809677419354839,0.803225806451613,0.838709677419355,0.864516129032258,0.929032258064516,0.974193548387097,1.01935483870968,1.09032258064516,1.14838709677419,1.19354838709677,1.25806451612903,1.27096774193548,1.30322580645161,1.30322580645161,1.32258064516129,1.29354838709677,1.30322580645161,1.29677419354839,1.28387096774194,1.26451612903226,1.26451612903226,1.26451612903226,1.26774193548387,1.29677419354839,1.30645161290323,1.31290322580645,1.34193548387097,1.36129032258065,1.25483870967742,1.23870967741935,1.23548387096774,1.23548387096774,1.23225806451613,1.23548387096774,1.24838709677419,1.23870967741935,1.25483870967742,1.25806451612903,1.25483870967742,1.24193548387097,1.28064516129032,1.28387096774194,1.28064516129032,1.29354838709677,1.45806451612903,1.78709677419355,2.15161290322581,2.43870967741935,2.61935483870968,2.73225806451613,2.79032258064516,2.69032258064516,2.56451612903226,2.58064516129032,2.51290322580645,2.38709677419355,2.26451612903226,2.15161290322581,2,1.8741935483871,1.79032258064516,1.68709677419355,1.55806451612903,1.30322580645161,1.10967741935484,1.01612903225806,0.983870967741935,0.967741935483871,0.961290322580645,0.909677419354839,0.896774193548387,0.890322580645161,0.854838709677419,0.838709677419355,0.806451612903226,0.816129032258065,0.806451612903226,0.790322580645161,0.82258064516129,0.835483870967742,0.87741935483871,0.929032258064516,0.990322580645161,1.03548387096774,1.12258064516129,1.17096774193548,1.20967741935484,1.26774193548387,1.29354838709677,1.30645161290323,1.31290322580645,1.30967741935484,1.29677419354839,1.3,1.3,1.30645161290323,1.26774193548387,1.28064516129032,1.25806451612903,1.3,1.28709677419355,1.33548387096774,1.33548387096774,1.36129032258065,1.3258064516129,1.25483870967742,1.22903225806452,1.23548387096774,1.23225806451613,1.21290322580645,1.24838709677419,1.25806451612903,1.22258064516129,1.25161290322581,1.23870967741935,1.23870967741935,1.24838709677419,1.26129032258065,1.25161290322581,1.26129032258065,1.33548387096774,1.54193548387097,1.86451612903226,2.23225806451613,2.5,2.6258064516129,2.70967741935484,2.80322580645161,2.63548387096774,2.48709677419355,2.51935483870968,2.40322580645161,2.29032258064516,2.14838709677419,2.01612903225806,1.8741935483871,1.7741935483871,1.70967741935484,1.59032258064516,1.48064516129032,1.24516129032258,1.08064516129032,1.00645161290323,0.980645161290323,0.954838709677419,0.938709677419355,0.916129032258065,0.92258064516129,0.887096774193548,0.874193548387097,0.835483870967742,0.841935483870968,0.845161290322581,0.825806451612903,0.816129032258065,0.819354838709677,0.874193548387097,0.9,0.941935483870968,1.00322580645161,1.05806451612903,1.13548387096774,1.16451612903226,1.20322580645161,1.24516129032258,1.26451612903226,1.26774193548387,1.26451612903226,1.25483870967742,1.26774193548387,1.26129032258065,1.23225806451613,1.24516129032258,1.23870967741935,1.24193548387097,1.23870967741935,1.25806451612903,1.27096774193548,1.28064516129032,1.28709677419355,1.29354838709677,1.24193548387097,1.20322580645161,1.20645161290323,1.19354838709677,1.20645161290323,1.2,1.21612903225806,1.21935483870968,1.21290322580645,1.24193548387097,1.26129032258065,1.23225806451613,1.24838709677419,1.25806451612903,1.28387096774194,1.29354838709677,1.40967741935484,1.63548387096774,2.05806451612903,2.32258064516129,2.51612903225806,2.66129032258065,2.72258064516129,2.68387096774194,2.54193548387097,2.44193548387097,2.4258064516129,2.26129032258065,2.15161290322581,2.03225806451613,1.93870967741935,1.79677419354839,1.70967741935484,1.64516129032258,1.54516129032258,1.35483870967742,1.1741935483871,1.05161290322581,1.03548387096774,1.0258064516129,0.987096774193548,0.987096774193548,0.954838709677419,0.951612903225806,0.92258064516129,0.919354838709677,0.916129032258065,0.890322580645161,0.893548387096774,0.925806451612903,0.92258064516129,0.954838709677419,1,1.03225806451613,1.08064516129032,1.15806451612903,1.21290322580645,1.27741935483871,1.33225806451613,1.34838709677419,1.41290322580645,1.41612903225806,1.42903225806452,1.40967741935484,1.42258064516129,1.42903225806452,1.4258064516129,1.44838709677419,1.44193548387097,1.43548387096774,1.47096774193548,1.49677419354839,1.50967741935484,1.52258064516129,1.53548387096774,1.58387096774194,1.61290322580645,1.51935483870968,1.5,1.52903225806452
2.68709677419355,2.53548387096774,2.42258064516129,2.43870967741935,2.31612903225806,2.21612903225806,2.09032258064516,1.92903225806452,1.82258064516129,1.70645161290323,1.63225806451613,1.53225806451613,1.37741935483871,1.15806451612903,1,0.948387096774194,0.935483870967742,0.912903225806452,0.916129032258065,0.87741935483871,0.851612903225806,0.819354838709677,0.8,0.787096774193548,0.783870967741935,0.783870967741935,0.774193548387097,0.758064516129032,0.793548387096774,0.816129032258065,0.864516129032258,0.9,0.948387096774194,1.03870967741935,1.09032258064516,1.14838709677419,1.19354838709677,1.20322580645161,1.26451612903226,1.26451612903226,1.24838709677419,1.28709677419355,1.28064516129032,1.25483870967742,1.26774193548387,1.26774193548387,1.24193548387097,1.24838709677419,1.24193548387097,1.29032258064516,1.25483870967742,1.31290322580645,1.30967741935484,1.34516129032258,1.37096774193548,1.25161290322581,1.25161290322581,1.25483870967742,1.24838709677419,1.25483870967742,1.2258064516129,1.24838709677419,1.26129032258065,1.25483870967742,1.26129032258065,1.24516129032258,1.25161290322581,1.2741935483871,1.28709677419355,1.29032258064516,1.29032258064516,1.44193548387097,1.7741935483871,2.17741935483871,2.44193548387097,2.63225806451613,2.73870967741935,2.83548387096774,2.73548387096774,2.57096774193548,2.57741935483871,2.54193548387097,2.40645161290323,2.31290322580645,2.16451612903226,2.00645161290323,1.87096774193548,1.80645161290323,1.65483870967742,1.55161290322581,1.32903225806452,1.13870967741935,1.01290322580645,1,1,0.958064516129032,0.929032258064516,0.935483870967742,0.890322580645161,0.861290322580645,0.845161290322581,0.848387096774194,0.838709677419355,0.806451612903226,0.825806451612903,0.835483870967742,0.864516129032258,0.9,0.945161290322581,1.00967741935484,1.07096774193548,1.10967741935484,1.18709677419355,1.21612903225806,1.22903225806452,1.29677419354839,1.31612903225806,1.29354838709677,1.30322580645161,1.30322580645161,1.28064516129032,1.27741935483871,1.29032258064516,1.25161290322581,1.3,1.26774193548387,1.29032258064516,1.30322580645161,1.29677419354839,1.31290322580645,1.35161290322581,1.34838709677419,1.26129032258065,1.23548387096774,1.24838709677419,1.23870967741935,1.23225806451613,1.22258064516129,1.2258064516129,1.24193548387097,1.2258064516129,1.23548387096774,1.25483870967742,1.24516129032258,1.26451612903226,1.25483870967742,1.26774193548387,1.30322580645161,1.43225806451613,1.75483870967742,2.14516129032258,2.4258064516129,2.58709677419355,2.68387096774194,2.74838709677419,2.63548387096774,2.49677419354839,2.48709677419355,2.41935483870968,2.27741935483871,2.14516129032258,2.05806451612903,1.91612903225806,1.7741935483871,1.70322580645161,1.62258064516129,1.50645161290323,1.29677419354839,1.11290322580645,1.04838709677419,1.03870967741935,0.990322580645161,0.983870967741935,0.967741935483871,0.941935483870968,0.935483870967742,0.9,0.896774193548387,0.87741935483871,0.87741935483871,0.867741935483871,0.87741935483871,0.887096774193548,0.925806451612903,0.954838709677419,0.990322580645161,1.03225806451613,1.10322580645161,1.13225806451613,1.18387096774194,1.2258064516129,1.28064516129032,1.28064516129032,1.28709677419355,1.32903225806452,1.3,1.29032258064516,1.28387096774194,1.29354838709677,1.29354838709677,1.27741935483871,1.28064516129032,1.28064516129032,1.30322580645161,1.28387096774194,1.32903225806452,1.31612903225806,1.33225806451613,1.34193548387097,1.26451612903226,1.24838709677419,1.21935483870968,1.23870967741935,1.2258064516129,1.23870967741935,1.25483870967742,1.24516129032258,1.25161290322581,1.26451612903226,1.26451612903226,1.26129032258065,1.2741935483871,1.29354838709677,1.29032258064516,1.30645161290323,1.43870967741935,1.69677419354839,2.11290322580645,2.39677419354839,2.59677419354839,2.68064516129032,2.80967741935484,2.71612903225806,2.53548387096774,2.50322580645161,2.44193548387097,2.30967741935484,2.18064516129032,2.05161290322581,1.93870967741935,1.78709677419355,1.69677419354839,1.61612903225806,1.49677419354839,1.30645161290323,1.10967741935484,0.990322580645161,0.974193548387097,0.964516129032258,0.945161290322581,0.92258064516129,0.916129032258065,0.903225806451613,0.851612903225806,0.841935483870968,0.816129032258065,0.8,0.8,0.812903225806452,0.82258064516129,0.858064516129032,0.880645161290323,0.912903225806452,0.993548387096774,1.05161290322581,1.09032258064516,1.15483870967742,1.21290322580645,1.24193548387097,1.28064516129032,1.3,1.28709677419355,1.29354838709677,1.30967741935484,1.2741935483871,1.27741935483871,1.27741935483871,1.24838709677419,1.24193548387097,1.24516129032258,1.2741935483871,1.26774193548387,1.30645161290323,1.2741935483871,1.3258064516129,1.31612903225806,1.24193548387097,1.20967741935484,1.22258064516129,1.2,1.24838709677419,1.23225806451613,1.24838709677419,1.23870967741935,1.26451612903226,1.25161290322581,1.25483870967742,1.26129032258065,1.25806451612903,1.2741935483871,1.27741935483871,1.33548387096774,1.41935483870968,1.73548387096774,2.12258064516129,2.41612903225806,2.6258064516129,2.75161290322581,2.81612903225806,2.73548387096774,2.60322580645161,2.58387096774194,2.54193548387097,2.4,2.28709677419355,2.15483870967742,2.02258064516129,1.8741935483871,1.79677419354839,1.68064516129032,1.56129032258065,1.33548387096774,1.14193548387097,1.04838709677419,0.993548387096774,0.967741935483871,0.954838709677419,0.919354838709677,0.9,0.880645161290323,0.841935483870968,0.829032258064516,0.806451612903226,0.790322580645161,0.774193548387097,0.770967741935484,0.8,0.829032258064516,0.861290322580645,0.906451612903226,0.961290322580645,1.04838709677419,1.09032258064516,1.14516129032258,1.19032258064516,1.21612903225806,1.29677419354839,1.2741935483871,1.28387096774194,1.29677419354839,1.29677419354839,1.28709677419355,1.29677419354839,1.28387096774194,1.28064516129032,1.28709677419355,1.27741935483871,1.29032258064516,1.28387096774194,1.29677419354839,1.30645161290323,1.31612903225806,1.34516129032258,1.34193548387097,1.26129032258065,1.21290322580645,1.2258064516129,1.22258064516129,1.23225806451613,1.2258064516129,1.21290322580645,1.2258064516129,1.2258064516129,1.2258064516129,1.24516129032258,1.27096774193548,1.27096774193548,1.27096774193548,1.28387096774194,1.34516129032258,1.48387096774194,1.8,2.18387096774194,2.43870967741935,2.63548387096774,2.7258064516129,2.77741935483871,2.6741935483871,2.5,2.52258064516129,2.45483870967742,2.29032258064516,2.19677419354839,2.06129032258065,1.9258064516129,1.80645161290323,1.7258064516129,1.62258064516129,1.49354838709677,1.30967741935484,1.11612903225806,1.01290322580645,0.983870967741935,0.970967741935484,0.951612903225806,0.948387096774194,0.916129032258065,0.925806451612903,0.887096774193548,0.870967741935484,0.851612903225806,0.819354838709677,0.838709677419355,0.832258064516129,0.845161290322581,0.874193548387097,0.916129032258065,0.967741935483871,1.01612903225806,1.0741935483871,1.13870967741935,1.2,1.23225806451613,1.24838709677419,1.27741935483871,1.26774193548387,1.30645161290323,1.30322580645161,1.30645161290323,1.30967741935484,1.26451612903226,1.3,1.27741935483871,1.28064516129032,1.28064516129032,1.29354838709677,1.31935483870968,1.32903225806452,1.33225806451613,1.36774193548387,1.33548387096774,1.26451612903226,1.24516129032258,1.24516129032258,1.23548387096774,1.2258064516129,1.21935483870968,1.24516129032258,1.23225806451613,1.25483870967742,1.25161290322581,1.2258064516129,1.25483870967742,1.29354838709677,1.29032258064516,1.27741935483871,1.30967741935484,1.41935483870968,1.71612903225806,2.13225806451613,2.39032258064516,2.59032258064516,2.70322580645161,2.76451612903226,2.6741935483871,2.51935483870968,2.49354838709677,2.4258064516129,2.28064516129032,2.14838709677419,2.05806451612903,1.92903225806452,1.79677419354839,1.72903225806452,1.63548387096774,1.51290322580645,1.3,1.12258064516129,1.0258064516129,0.961290322580645,0.987096774193548,0.951612903225806,0.92258064516129,0.903225806451613,0.893548387096774,0.867741935483871,0.858064516129032,0.829032258064516,0.82258064516129,0.816129032258065,0.82258064516129,0.861290322580645,0.861290322580645,0.9,0.948387096774194,1.01935483870968,1.06451612903226,1.12258064516129,1.17741935483871,1.21612903225806,1.2741935483871,1.28064516129032,1.30645161290323,1.29677419354839,1.30322580645161,1.28387096774194,1.31290322580645,1.29032258064516,1.29677419354839,1.29032258064516,1.26774193548387,1.26774193548387,1.27741935483871,1.3,1.30967741935484,1.31935483870968,1.29677419354839,1.36774193548387,1.33548387096774,1.25806451612903,1.25483870967742,1.25806451612903,1.23225806451613,1.24838709677419,1.25483870967742,1.23870967741935,1.25806451612903,1.21935483870968,1.24516129032258,1.24193548387097,1.25806451612903,1.26129032258065,1.26774193548387,1.26451612903226,1.32903225806452,1.46774193548387,1.83225806451613,2.20322580645161,2.45806451612903,2.65161290322581,2.75806451612903,2.81935483870968,2.7,2.56451612903226,2.5741935483871,2.4741935483871,2.4,2.25161290322581,2.11612903225806,1.9741935483871,1.83225806451613,1.77741935483871,1.64838709677419,1.50645161290323,1.28709677419355,1.10967741935484,1.00645161290323,0.983870967741935,0.964516129032258,0.92258064516129,0.912903225806452,0.890322580645161,0.870967741935484,0.848387096774194,0.812903225806452,0.803225806451613,0.780645161290323,0.770967741935484,0.77741935483871,0.790322580645161,0.825806451612903,0.858064516129032,0.874193548387097,0.958064516129032,1.00645161290323,1.07741935483871,1.11935483870968,1.17741935483871,1.23548387096774,1.23870967741935,1.26774193548387,1.26129032258065,1.27741935483871,1.27741935483871,1.28387096774194,1.28064516129032,1.26774193548387,1.25161290322581,1.24838709677419,1.23548387096774,1.26451612903226,1.29032258064516,1.29032258064516,1.29677419354839,1.32903225806452,1.34838709677419,1.35161290322581,1.24838709677419,1.21612903225806,1.24516129032258,1.23548387096774,1.24193548387097,1.24516129032258,1.23225806451613,1.26129032258065,1.26774193548387,1.24516129032258,1.24193548387097,1.24838709677419,1.28387096774194,1.28064516129032,1.24516129032258,1.34193548387097,1.50322580645161,1.84838709677419,2.2,2.4741935483871,2.65806451612903,2.74838709677419,2.80967741935484,2.68387096774194,2.54516129032258,2.57741935483871,2.49032258064516,2.39032258064516,2.24193548387097,2.10645161290323,1.95483870967742,1.80967741935484,1.74193548387097,1.61935483870968,1.49032258064516,1.28387096774194,1.10967741935484,1.04838709677419,1.00322580645161,1,0.97741935483871,0.958064516129032,0.903225806451613,0.896774193548387,0.909677419354839,0.874193548387097,0.867741935483871,0.82258064516129,0.835483870967742,0.861290322580645,0.861290322580645,0.903225806451613,0.912903225806452,0.980645161290323,1.03225806451613,1.07096774193548,1.12258064516129,1.16129032258065,1.20645161290323,1.23548387096774,1.24838709677419,1.26129032258065,1.27741935483871,1.30322580645161,1.27741935483871,1.26774193548387,1.27096774193548,1.25806451612903,1.25806451612903,1.24193548387097,1.25483870967742,1.28064516129032,1.24838709677419,1.28709677419355,1.29354838709677,1.30967741935484,1.31612903225806,1.33870967741935,1.24838709677419,1.23548387096774,1.24516129032258,1.24193548387097,1.21290322580645,1.24838709677419,1.23225806451613,1.21290322580645,1.2258064516129,1.24516129032258,1.25161290322581,1.23870967741935,1.25161290322581,1.27741935483871,1.28387096774194,1.30967741935484,1.48064516129032,1.75806451612903,2.15806451612903,2.43225806451613,2.62258064516129,2.72258064516129,2.75483870967742,2.66129032258065,2.51935483870968,2.49677419354839,2.41935483870968,2.29354838709677,2.16774193548387,2.04838709677419,1.9,1.76774193548387,1.7,1.58709677419355,1.51290322580645,1.28387096774194,1.10967741935484,1.03225806451613,1.00967741935484,0.996774193548387,0.974193548387097,0.980645161290323,0.941935483870968,0.919354838709677,0.912903225806452,0.883870967741936,0.851612903225806,0.848387096774194,0.841935483870968,0.864516129032258,0.858064516129032,0.87741935483871,0.932258064516129,0.964516129032258,1.05161290322581,1.06774193548387,1.13870967741935,1.16774193548387,1.20645161290323,1.23225806451613,1.26774193548387,1.28709677419355,1.29032258064516,1.29354838709677,1.29677419354839,1.28064516129032,1.27741935483871,1.28064516129032,1.28709677419355,1.27741935483871,1.26451612903226,1.28709677419355,1.29354838709677,1.31935483870968,1.31612903225806,1.31935483870968,1.34516129032258,1.27096774193548,1.23548387096774,1.24193548387097,1.23870967741935,1.23548387096774,1.24516129032258,1.24193548387097,1.23870967741935,1.23548387096774,1.24516129032258,1.24838709677419,1.25806451612903,1.27741935483871,1.27096774193548,1.2741935483871,1.27741935483871,1.39354838709677,1.58387096774194,1.98387096774194,2.30322580645161,2.54516129032258,2.66451612903226,2.78709677419355,2.76451612903226,2.64516129032258,2.51290322580645,2.54516129032258,2.41935483870968,2.32903225806452,2.18387096774194,2.06129032258065,1.90322580645161,1.8,1.70967741935484,1.6,1.44838709677419,1.21612903225806,1.06451612903226,1.04193548387097,1.04838709677419,0.993548387096774,0.990322580645161,0.958064516129032,0.925806451612903,0.903225806451613,0.890322580645161,0.848387096774194,0.82258064516129,0.825806451612903,0.82258064516129,0.809677419354839,0.835483870967742,0.864516129032258,0.909677419354839,0.938709677419355,1.02258064516129,1.07096774193548,1.1,1.14516129032258,1.20322580645161,1.21935483870968,1.26774193548387,1.24838709677419,1.25483870967742,1.26129032258065,1.24193548387097,1.27096774193548,1.2741935483871,1.25161290322581,1.23548387096774,1.24193548387097,1.24193548387097,1.29032258064516,1.26129032258065,1.28387096774194,1.30645161290323,1.31290322580645,1.30967741935484,1.22903225806452,1.21290322580645,1.18387096774194,1.18387096774194,1.18709677419355,1.2,1.19032258064516,1.20967741935484,1.20967741935484,1.21935483870968,1.22258064516129,1.20967741935484,1.21612903225806,1.24516129032258,1.21612903225806,1.23548387096774,1.35483870967742,1.64516129032258,2.0741935483871,2.35483870967742,2.55161290322581,2.69677419354839,2.77096774193548,2.70967741935484,2.58709677419355,2.5258064516129,2.50967741935484,2.39032258064516,2.29032258064516,2.16774193548387,2.01935483870968,1.87741935483871,1.75806451612903,1.65806451612903,1.55806451612903,1.33870967741935,1.12903225806452,1.01935483870968,0.987096774193548,0.964516129032258,0.948387096774194,0.925806451612903,0.9,0.880645161290323,0.867741935483871,0.832258064516129,0.829032258064516,0.806451612903226,0.793548387096774,0.819354838709677,0.816129032258065,0.854838709677419,0.861290322580645,0.954838709677419,1.01290322580645,1.04838709677419,1.1,1.15806451612903,1.21290322580645,1.27096774193548,1.27741935483871,1.30967741935484,1.30322580645161,1.31290322580645,1.3,1.29677419354839,1.3,1.29354838709677,1.25806451612903,1.25161290322581,1.26774193548387,1.26774193548387,1.27741935483871,1.29354838709677,1.30645161290323,1.32903225806452,1.31935483870968,1.3741935483871,1.33548387096774,1.25806451612903,1.24193548387097,1.25483870967742,1.24193548387097,1.24516129032258,1.25483870967742,1.26129032258065,1.28709677419355,1.2741935483871,1.25483870967742,1.26774193548387,1.2741935483871,1.27741935483871,1.28709677419355,1.2741935483871,1.34838709677419,1.49354838709677,1.82258064516129,2.22903225806452,2.43548387096774,2.63870967741935,2.72903225806452,2.78709677419355,2.66451612903226,2.53870967741935,2.53870967741935,2.43870967741935,2.30645161290323,2.19032258064516,2.0741935483871,1.93225806451613,1.79677419354839,1.71612903225806,1.65161290322581,1.51290322580645,1.29032258064516,1.1258064516129,1.03870967741935,1.03225806451613,0.980645161290323,0.980645161290323,0.974193548387097,0.961290322580645,0.935483870967742,0.890322580645161,0.912903225806452,0.887096774193548,0.880645161290323,0.867741935483871,0.861290322580645,0.880645161290323,0.903225806451613,0.948387096774194,0.97741935483871,1.02903225806452,1.11290322580645,1.13548387096774,1.2,1.22258064516129,1.25161290322581,1.29032258064516,1.31290322580645,1.30322580645161,1.30645161290323,1.29354838709677,1.30322580645161,1.29032258064516,1.26774193548387,1.28387096774194,1.28064516129032,1.26451612903226,1.29354838709677,1.30967741935484,1.30967741935484,1.33225806451613,1.33870967741935,1.36129032258065,1.36129032258065,1.2741935483871,1.26129032258065,1.25806451612903,1.2741935483871,1.23225806451613,1.25806451612903,1.24838709677419,1.25806451612903,1.25483870967742,1.26451612903226,1.25483870967742,1.26774193548387,1.25806451612903,1.3,1.28387096774194,1.30967741935484,1.43225806451613,1.73548387096774,2.11935483870968,2.39354838709677,2.61612903225806,2.73870967741935,2.8,2.70322580645161,2.5741935483871,2.52903225806452,2.48387096774194,2.34516129032258,2.23870967741935,2.10967741935484,1.9741935483871,1.85483870967742,1.75483870967742,1.65161290322581,1.56451612903226,1.33548387096774,1.15483870967742,1.03548387096774,1.01935483870968,1.00967741935484,0.990322580645161,0.954838709677419,0.948387096774194,0.925806451612903,0.887096774193548,0.861290322580645,0.829032258064516,0.841935483870968,0.841935483870968,0.825806451612903,0.841935483870968,0.841935483870968,0.9,0.961290322580645,0.990322580645161,1.05806451612903,1.13870967741935,1.16451612903226,1.2258064516129,1.25161290322581,1.25483870967742,1.28387096774194,1.28709677419355,1.28064516129032,1.2741935483871,1.25161290322581,1.26774193548387,1.23548387096774,1.24193548387097,1.24516129032258,1.23548387096774,1.20967741935484,1.20967741935484,1.22258064516129,1.24838709677419,1.24193548387097,1.25483870967742,1.29032258064516,1.26129032258065,1.16451612903226,1.16774193548387,1.19677419354839,1.17741935483871,1.18064516129032,1.19677419354839,1.2,1.20322580645161,1.18709677419355,1.18387096774194,1.2,1.18709677419355,1.2258064516129,1.20967741935484,1.18387096774194,1.3,1.46451612903226,1.80645161290323,2.17741935483871,2.46129032258065,2.60322580645161,2.69677419354839,2.75806451612903,2.62903225806452,2.50967741935484,2.5258064516129,2.44516129032258,2.33548387096774,2.22258064516129,2.08709677419355,1.94516129032258,1.78064516129032,1.75161290322581,1.58709677419355,1.43548387096774,1.21612903225806,1.03225806451613,0.948387096774194,0.912903225806452,0.903225806451613,0.883870967741936,0.867741935483871,0.851612903225806,0.816129032258065,0.803225806451613,0.77741935483871,0.767741935483871,0.754838709677419,0.748387096774194,0.741935483870968,0.764516129032258,0.8,0.832258064516129,0.890322580645161,0.948387096774194,1.03548387096774,1.06129032258065,1.13548387096774,1.18387096774194,1.21612903225806,1.25161290322581,1.27096774193548,1.24838709677419,1.2741935483871,1.25161290322581,1.24193548387097,1.24193548387097,1.24516129032258,1.26129032258065,1.25483870967742,1.25161290322581,1.24193548387097,1.27096774193548,1.28709677419355,1.3,1.30322580645161,1.34193548387097,1.37096774193548,1.31935483870968,1.28064516129032,1.22903225806452,1.26774193548387,1.25483870967742,1.26774193548387,1.2741935483871,1.27096774193548,1.30967741935484,1.27741935483871,1.29677419354839,1.29032258064516,1.31935483870968,1.34838709677419,1.32258064516129,1.33548387096774,1.43225806451613,1.65161290322581,2.02903225806452,2.35806451612903,2.61612903225806,2.74193548387097,2.84516129032258,2.88064516129032,2.70645161290323,2.62258064516129,2.63870967741935,2.50967741935484,2.43870967741935,2.3,2.17096774193548,2.00645161290323,1.89677419354839,1.80967741935484,1.73548387096774,1.54838709677419,1.35806451612903,1.20967741935484,1.16774193548387,1.14516129032258,1.13548387096774,1.10322580645161,1.0741935483871,1.09354838709677,1.05161290322581,1.03225806451613,0.996774193548387,1.00322580645161,0.993548387096774,0.990322580645161,0.990322580645161,1.00322580645161,1.04193548387097,1.04516129032258,1.11935483870968,1.15161290322581,1.20322580645161,1.25161290322581,1.29677419354839,1.35161290322581,1.34193548387097,1.38709677419355,1.40645161290323,1.40322580645161,1.39354838709677,1.37096774193548,1.35483870967742,1.33548387096774,1.31935483870968,1.30322580645161,1.29354838709677,1.28709677419355,1.2741935483871,1.29677419354839,1.29354838709677,1.30322580645161,1.31612903225806,1.30322580645161,1.24193548387097,1.18387096774194,1.17096774193548,1.13225806451613,1.12903225806452,1.11935483870968,1.10967741935484,1.0741935483871,1.06451612903226,1.05161290322581,1.0258064516129,0.993548387096774,0.951612903225806,0.980645161290323,0.935483870967742,0.925806451612903,0.974193548387097,1.14516129032258,1.50322580645161,1.81290322580645,2.01612903225806,2.12258064516129,2.18064516129032,2.15483870967742,1.98709677419355,1.83548387096774,1.79032258064516,1.64193548387097
0.82258064516129,0.829032258064516,0.812903225806452,0.812903225806452,0.796774193548387,0.787096774193548,0.816129032258065,0.832258064516129,0.880645161290323,0.948387096774194,0.954838709677419,1.03548387096774,1.10645161290323,1.14838709677419,1.1741935483871,1.20967741935484,1.24193548387097,1.27741935483871,1.27741935483871,1.25161290322581,1.24193548387097,1.25161290322581,1.25161290322581,1.26129032258065,1.23225806451613,1.26129032258065,1.26451612903226,1.28064516129032,1.27741935483871,1.30322580645161,1.33548387096774,1.34516129032258,1.31935483870968,1.24838709677419,1.23548387096774,1.24516129032258,1.2258064516129,1.23225806451613,1.23870967741935,1.22258064516129,1.25161290322581,1.23870967741935,1.23225806451613,1.25483870967742,1.23548387096774,1.24193548387097,1.2741935483871,1.26129032258065,1.28387096774194,1.39354838709677,1.64838709677419,2.05161290322581,2.35483870967742,2.56129032258065,2.68709677419355,2.78387096774194,2.72258064516129,2.57096774193548,2.52903225806452,2.53870967741935,2.36451612903226,2.26774193548387,2.14838709677419,2.02903225806452,1.86774193548387,1.77741935483871,1.68709677419355,1.57096774193548,1.35483870967742,1.15161290322581,1.04516129032258,1.01290322580645,0.987096774193548,0.964516129032258,0.951612903225806,0.954838709677419,0.909677419354839,0.887096774193548,0.861290322580645,0.845161290322581,0.832258064516129,0.806451612903226,0.819354838709677,0.838709677419355,0.858064516129032,0.9,0.951612903225806,0.983870967741935,1.05806451612903,1.10645161290323,1.18387096774194,1.20322580645161,1.23870967741935,1.28064516129032,1.30322580645161,1.31612903225806,1.27741935483871,1.29032258064516,1.3,1.26774193548387,1.28387096774194,1.26774193548387,1.26129032258065,1.26129032258065,1.27741935483871,1.29677419354839,1.27741935483871,1.34838709677419,1.33225806451613,1.33870967741935,1.36129032258065,1.26129032258065,1.22258064516129,1.23225806451613,1.23225806451613,1.24516129032258,1.24193548387097,1.24193548387097,1.25161290322581,1.25483870967742,1.26451612903226,1.26774193548387,1.25483870967742,1.26451612903226,1.26774193548387,1.27096774193548,1.31290322580645,1.40322580645161,1.70645161290323,2.13870967741935,2.41935483870968,2.60322580645161,2.74193548387097,2.8258064516129,2.72903225806452,2.57741935483871,2.56451612903226,2.52258064516129,2.38387096774194,2.26774193548387,2.14516129032258,2,1.85161290322581,1.73870967741935,1.65161290322581,1.53548387096774,1.31612903225806,1.13548387096774,1.02903225806452,1.01612903225806,0.97741935483871,0.97741935483871,0.964516129032258,0.916129032258065,0.92258064516129,0.909677419354839,0.9,0.848387096774194,0.841935483870968,0.851612903225806,0.861290322580645,0.883870967741936,0.916129032258065,0.912903225806452,0.967741935483871,1.0258064516129,1.06774193548387,1.11290322580645,1.20322580645161,1.21935483870968,1.26129032258065,1.28387096774194,1.29354838709677,1.29677419354839,1.28709677419355,1.28387096774194,1.24838709677419,1.2741935483871,1.2741935483871,1.25161290322581,1.25806451612903,1.26129032258065,1.2741935483871,1.27741935483871,1.31290322580645,1.29677419354839,1.30645161290323,1.3258064516129,1.24838709677419,1.20967741935484,1.19677419354839,1.21935483870968,1.20322580645161,1.20322580645161,1.21290322580645,1.20645161290323,1.2258064516129,1.23548387096774,1.21612903225806,1.23870967741935,1.2258064516129,1.24516129032258,1.24516129032258,1.24193548387097,1.37096774193548,1.56451612903226,1.99032258064516,2.30322580645161,2.50645161290323,2.6258064516129,2.74193548387097,2.69677419354839,2.56451612903226,2.46451612903226,2.44838709677419,2.3258064516129,2.21612903225806,2.09677419354839,1.9741935483871,1.83225806451613,1.7258064516129,1.65161290322581,1.56129032258065,1.4,1.18709677419355,1.05806451612903,1.00967741935484,1.03225806451613,1,0.961290322580645,0.954838709677419,0.925806451612903,0.925806451612903,0.903225806451613,0.880645161290323,0.864516129032258,0.864516129032258,0.864516129032258,0.845161290322581,0.87741935483871,0.919354838709677,0.980645161290323,0.996774193548387,1.0741935483871,1.09354838709677,1.15483870967742,1.18709677419355,1.20967741935484,1.24838709677419,1.27741935483871,1.30967741935484,1.29354838709677,1.30645161290323,1.29677419354839,1.3,1.27741935483871,1.28709677419355,1.28064516129032,1.28387096774194,1.29354838709677,1.3,1.32903225806452,1.32258064516129,1.3258064516129,1.33870967741935,1.30967741935484,1.23225806451613,1.20322580645161,1.23870967741935,1.22903225806452,1.2258064516129,1.22258064516129,1.25161290322581,1.24838709677419,1.2258064516129,1.23548387096774,1.23870967741935,1.2258064516129,1.26774193548387,1.27741935483871,1.27741935483871,1.37096774193548,1.55806451612903,1.90967741935484,2.25483870967742,2.51612903225806,2.64838709677419,2.75161290322581,2.75161290322581,2.63548387096774,2.51290322580645,2.53870967741935,2.43870967741935,2.33548387096774,2.18387096774194,2.06129032258065,1.92903225806452,1.79354838709677,1.71612903225806,1.60967741935484,1.45161290322581,1.21935483870968,1.07741935483871,1.00645161290323,1.00322580645161,0.97741935483871,0.938709677419355,0.906451612903226,0.887096774193548,0.858064516129032,0.829032258064516,0.812903225806452,0.803225806451613,0.77741935483871,0.783870967741935,0.790322580645161,0.816129032258065,0.832258064516129,0.864516129032258,0.941935483870968,0.97741935483871,1.05806451612903,1.08709677419355,1.14838709677419,1.18064516129032,1.23870967741935,1.24516129032258,1.28709677419355,1.27741935483871,1.29032258064516,1.3,1.28709677419355,1.2741935483871,1.27096774193548,1.26129032258065,1.24838709677419,1.26451612903226,1.25806451612903,1.29677419354839,1.31290322580645,1.32903225806452,1.33548387096774,1.3741935483871,1.27096774193548,1.2258064516129,1.23870967741935,1.24516129032258,1.24193548387097,1.23225806451613,1.24516129032258,1.23548387096774,1.23870967741935,1.26774193548387,1.25806451612903,1.24193548387097,1.2741935483871,1.29032258064516,1.25483870967742,1.29677419354839,1.38387096774194,1.63548387096774,2.05483870967742,2.36774193548387,2.58709677419355,2.70967741935484,2.81612903225806,2.76129032258065,2.61290322580645,2.54193548387097,2.56451612903226,2.40645161290323,2.3258064516129,2.16451612903226,2.04838709677419,1.9,1.77096774193548,1.6741935483871,1.56129032258065,1.35161290322581,1.17741935483871,1.01935483870968,0.980645161290323,0.980645161290323,0.945161290322581,0.938709677419355,0.893548387096774,0.906451612903226,0.883870967741936,0.851612903225806,0.816129032258065,0.838709677419355,0.832258064516129,0.848387096774194,0.832258064516129,0.854838709677419,0.887096774193548,0.948387096774194,1,1.05483870967742,1.10322580645161,1.18387096774194,1.20322580645161,1.23225806451613,1.28709677419355,1.28387096774194,1.30645161290323,1.29677419354839,1.27741935483871,1.28387096774194,1.27741935483871,1.28387096774194,1.25483870967742,1.25483870967742,1.26774193548387,1.24516129032258,1.2741935483871,1.28387096774194,1.3,1.33225806451613,1.36129032258065,1.32903225806452,1.26451612903226,1.25161290322581,1.24516129032258,1.25483870967742,1.23870967741935,1.23548387096774,1.2741935483871,1.26774193548387,1.2741935483871,1.28387096774194,1.28387096774194,1.24838709677419,1.29032258064516,1.27741935483871,1.27096774193548,1.35483870967742,1.5258064516129,1.86129032258065,2.21935483870968,2.48709677419355,2.62903225806452,2.70322580645161,2.76774193548387,2.63548387096774,2.48064516129032,2.50645161290323,2.4,2.25806451612903,2.13870967741935,2.02258064516129,1.88064516129032,1.77096774193548,1.70645161290323,1.60322580645161,1.49677419354839,1.25806451612903,1.08064516129032,1.03225806451613,0.993548387096774,0.964516129032258,0.935483870967742,0.929032258064516,0.92258064516129,0.874193548387097,0.880645161290323,0.832258064516129,0.861290322580645,0.864516129032258,0.835483870967742,0.864516129032258,0.870967741935484,0.906451612903226,0.925806451612903,0.970967741935484,1.0741935483871,1.07096774193548,1.15161290322581,1.19677419354839,1.2258064516129,1.24838709677419,1.26451612903226,1.26129032258065,1.29677419354839,1.28064516129032,1.28387096774194,1.2741935483871,1.27096774193548,1.24838709677419,1.25161290322581,1.25483870967742,1.21935483870968,1.28064516129032,1.29032258064516,1.29032258064516,1.30645161290323,1.31935483870968,1.33548387096774,1.24838709677419,1.22258064516129,1.21935483870968,1.21290322580645,1.2258064516129,1.22903225806452,1.22903225806452,1.24193548387097,1.26129032258065,1.25806451612903,1.23548387096774,1.26129032258065,1.26451612903226,1.28387096774194,1.28064516129032,1.30967741935484,1.42258064516129,1.71290322580645,2.10967741935484,2.38709677419355,2.58064516129032,2.68387096774194,2.74516129032258,2.66451612903226,2.52903225806452,2.5,2.43548387096774,2.29354838709677,2.18709677419355,2.06451612903226,1.93225806451613,1.79677419354839,1.73225806451613,1.64193548387097,1.51935483870968,1.3258064516129,1.14193548387097,1.03870967741935,1.0258064516129,0.996774193548387,0.974193548387097,0.948387096774194,0.929032258064516,0.903225806451613,0.880645161290323,0.854838709677419,0.835483870967742,0.829032258064516,0.803225806451613,0.819354838709677,0.835483870967742,0.845161290322581,0.909677419354839,0.945161290322581,0.993548387096774,1.06129032258065,1.11612903225806,1.16774193548387,1.20322580645161,1.21290322580645,1.28064516129032,1.28709677419355,1.30967741935484,1.30322580645161,1.28709677419355,1.30967741935484,1.28064516129032,1.28064516129032,1.25806451612903,1.27096774193548,1.27096774193548,1.28064516129032,1.30645161290323,1.31935483870968,1.33870967741935,1.35483870967742,1.36451612903226,1.34516129032258,1.27096774193548,1.23870967741935,1.26451612903226,1.23548387096774,1.25161290322581,1.26451612903226,1.26451612903226,1.26129032258065,1.25806451612903,1.26129032258065,1.23870967741935,1.24516129032258,1.26129032258065,1.28064516129032,1.25483870967742,1.34193548387097,1.5,1.86451612903226,2.21290322580645,2.47741935483871,2.63870967741935,2.73548387096774,2.78387096774194,2.6741935483871,2.53548387096774,2.54516129032258,2.48387096774194,2.3741935483871,2.2258064516129,2.10967741935484,1.96129032258065,1.84838709677419,1.73870967741935,1.63548387096774,1.49677419354839,1.25806451612903,1.08064516129032,1,0.980645161290323,0.951612903225806,0.929032258064516,0.916129032258065,0.874193548387097,0.861290322580645,0.835483870967742,0.82258064516129,0.8,0.77741935483871,0.803225806451613,0.803225806451613,0.793548387096774,0.851612903225806,0.893548387096774,0.945161290322581,0.993548387096774,1.07741935483871,1.11290322580645,1.15161290322581,1.23870967741935,1.26129032258065,1.28387096774194,1.3,1.32258064516129,1.30967741935484,1.31612903225806,1.29032258064516,1.27096774193548,1.28709677419355,1.27741935483871,1.26451612903226,1.25806451612903,1.2741935483871,1.29677419354839,1.30322580645161,1.31612903225806,1.33548387096774,1.33225806451613,1.3741935483871,1.29677419354839,1.23225806451613,1.26129032258065,1.24193548387097,1.23870967741935,1.2258064516129,1.24193548387097,1.21612903225806,1.24193548387097,1.25483870967742,1.24838709677419,1.23870967741935,1.25806451612903,1.26774193548387,1.26129032258065,1.2741935483871,1.36129032258065,1.60322580645161,2.01290322580645,2.31935483870968,2.55806451612903,2.68709677419355,2.75161290322581,2.78387096774194,2.62258064516129,2.55483870967742,2.57741935483871,2.44193548387097,2.3258064516129,2.20322580645161,2.07096774193548,1.89354838709677,1.8,1.67741935483871,1.58387096774194,1.41290322580645,1.19677419354839,1.02903225806452,1.03225806451613,0.987096774193548,0.970967741935484,0.954838709677419,0.935483870967742,0.893548387096774,0.893548387096774,0.858064516129032,0.858064516129032,0.838709677419355,0.829032258064516,0.819354838709677,0.835483870967742,0.870967741935484,0.880645161290323,0.929032258064516,0.983870967741935,1.02903225806452,1.1,1.15483870967742,1.18064516129032,1.22258064516129,1.25161290322581,1.25483870967742,1.2741935483871,1.26774193548387,1.28064516129032,1.28387096774194,1.25806451612903,1.28387096774194,1.24838709677419,1.23225806451613,1.23870967741935,1.26129032258065,1.29677419354839,1.3,1.30322580645161,1.28709677419355,1.31935483870968,1.3,1.24193548387097,1.2258064516129,1.20967741935484,1.22903225806452,1.21935483870968,1.23870967741935,1.22258064516129,1.20322580645161,1.2258064516129,1.2258064516129,1.2258064516129,1.21935483870968,1.22903225806452,1.25483870967742,1.23870967741935,1.31935483870968,1.48709677419355,1.82903225806452,2.17741935483871,2.44838709677419,2.56451612903226,2.66774193548387,2.72258064516129,2.59354838709677,2.46774193548387,2.47741935483871,2.36451612903226,2.26451612903226,2.12258064516129,2,1.85806451612903,1.70967741935484,1.72258064516129,1.5741935483871,1.44516129032258,1.24516129032258,1.08387096774194,1.01612903225806,1.00967741935484,0.964516129032258,0.948387096774194,0.961290322580645,0.916129032258065,0.903225806451613,0.9,0.851612903225806,0.861290322580645,0.832258064516129,0.825806451612903,0.851612903225806,0.874193548387097,0.893548387096774,0.945161290322581,0.996774193548387,1.05806451612903,1.10645161290323,1.14838709677419,1.21290322580645,1.22258064516129,1.26774193548387,1.28709677419355,1.29354838709677,1.30967741935484,1.32903225806452,1.27741935483871,1.28709677419355,1.30645161290323,1.26451612903226,1.28709677419355,1.26774193548387,1.25483870967742,1.2741935483871,1.29677419354839,1.31290322580645,1.30967741935484,1.34193548387097,1.36774193548387,1.34838709677419,1.29354838709677,1.25806451612903,1.30322580645161,1.25806451612903,1.26451612903226,1.28709677419355,1.29032258064516,1.28709677419355,1.29354838709677,1.29677419354839,1.29032258064516,1.26774193548387,1.31935483870968,1.30645161290323,1.28709677419355,1.37096774193548,1.5741935483871,1.91290322580645,2.25161290322581,2.51612903225806,2.65806451612903,2.77096774193548,2.78064516129032,2.66451612903226,2.55806451612903,2.55806451612903,2.45161290322581,2.34838709677419,2.2,2.07741935483871,1.93870967741935,1.81612903225806,1.71935483870968,1.63548387096774,1.47096774193548,1.26774193548387,1.08064516129032,1.01290322580645,0.996774193548387,0.983870967741935,0.945161290322581,0.925806451612903,0.903225806451613,0.861290322580645,0.858064516129032,0.838709677419355,0.809677419354839,0.790322580645161,0.787096774193548,0.816129032258065,0.819354838709677,0.861290322580645,0.874193548387097,0.958064516129032,1.01290322580645,1.08064516129032,1.12258064516129,1.14838709677419,1.22258064516129,1.24193548387097,1.26774193548387,1.27741935483871,1.30322580645161,1.27741935483871,1.28709677419355,1.26451612903226,1.28387096774194,1.26129032258065,1.25806451612903,1.25161290322581,1.24516129032258,1.26451612903226,1.28064516129032,1.29354838709677,1.3,1.30645161290323,1.31290322580645,1.3,1.23870967741935,1.18387096774194,1.21935483870968,1.19032258064516,1.21935483870968,1.21935483870968,1.21612903225806,1.22903225806452,1.24193548387097,1.21935483870968,1.24193548387097,1.23548387096774,1.25483870967742,1.24516129032258,1.24838709677419,1.36451612903226,1.55806451612903,1.92258064516129,2.27741935483871,2.50645161290323,2.64516129032258,2.78064516129032,2.80322580645161,2.66129032258065,2.55161290322581,2.59354838709677,2.4741935483871,2.38064516129032,2.22258064516129,2.0741935483871,1.94838709677419,1.82258064516129,1.73225806451613,1.61612903225806,1.4741935483871,1.23225806451613,1.07096774193548,1.00322580645161,0.996774193548387,0.97741935483871,0.967741935483871,0.929032258064516,0.896774193548387,0.864516129032258,0.832258064516129,0.838709677419355,0.787096774193548,0.796774193548387,0.812903225806452,0.825806451612903,0.832258064516129,0.870967741935484,0.919354838709677,0.958064516129032,1.00645161290323,1.0741935483871,1.11612903225806,1.1741935483871,1.21612903225806,1.23548387096774,1.2741935483871,1.28387096774194,1.30645161290323,1.29354838709677,1.3,1.32258064516129,1.27096774193548,1.28064516129032,1.25806451612903,1.26774193548387,1.26774193548387,1.25483870967742,1.27741935483871,1.29677419354839,1.28709677419355,1.33225806451613,1.3258064516129,1.35161290322581,1.35161290322581,1.25806451612903,1.22258064516129,1.23225806451613,1.2258064516129,1.23548387096774,1.25161290322581,1.25483870967742,1.23870967741935,1.25161290322581,1.24193548387097,1.25806451612903,1.24516129032258,1.25483870967742,1.23225806451613,1.24516129032258,1.30645161290323,1.49677419354839,1.83225806451613,2.19032258064516,2.46451612903226,2.6,2.69677419354839,2.76774193548387,2.6258064516129,2.50967741935484,2.50322580645161,2.42903225806452,2.29032258064516,2.15806451612903,2.03548387096774,1.92903225806452,1.78064516129032,1.70322580645161,1.59354838709677,1.47096774193548,1.26129032258065,1.07096774193548,1.00967741935484,0.993548387096774,0.974193548387097,0.964516129032258,0.929032258064516,0.92258064516129,0.925806451612903,0.883870967741936,0.867741935483871,0.854838709677419,0.832258064516129,0.8,0.841935483870968,0.845161290322581,0.9,0.925806451612903,0.958064516129032,0.993548387096774,1.06451612903226,1.12258064516129,1.16451612903226,1.19677419354839,1.20967741935484,1.25806451612903,1.26129032258065,1.26774193548387,1.29032258064516,1.28709677419355,1.2741935483871,1.26774193548387,1.25483870967742,1.2258064516129,1.24516129032258,1.25806451612903,1.23225806451613,1.25161290322581,1.26451612903226,1.2741935483871,1.29354838709677,1.30645161290323,1.24838709677419,1.2258064516129,1.21612903225806,1.25161290322581,1.23870967741935,1.23548387096774,1.23870967741935,1.23548387096774,1.23870967741935,1.23548387096774,1.24838709677419,1.2741935483871,1.26451612903226,1.29032258064516,1.27741935483871,1.28709677419355,1.39032258064516,1.59032258064516,1.94193548387097,2.25161290322581,2.53548387096774,2.64193548387097,2.74516129032258,2.76451612903226,2.63870967741935,2.5,2.53870967741935,2.39032258064516,2.27096774193548,2.15161290322581,2.04193548387097,1.88064516129032,1.77741935483871,1.7,1.61290322580645,1.45806451612903,1.23548387096774,1.0741935483871,1.04193548387097,1.0258064516129,1.00322580645161,0.987096774193548,0.970967741935484,0.938709677419355,0.935483870967742,0.890322580645161,0.861290322580645,0.874193548387097,0.835483870967742,0.832258064516129,0.832258064516129,0.87741935483871,0.906451612903226,0.945161290322581,0.996774193548387,1.06451612903226,1.13870967741935,1.19032258064516,1.23870967741935,1.27096774193548,1.30967741935484,1.3258064516129,1.33870967741935,1.34193548387097,1.35483870967742,1.32903225806452,1.31290322580645,1.32258064516129,1.31612903225806,1.30967741935484,1.28709677419355,1.29677419354839,1.31612903225806,1.33548387096774,1.32903225806452,1.34193548387097,1.35483870967742,1.36774193548387,1.3741935483871,1.28709677419355,1.26451612903226,1.2741935483871,1.25483870967742,1.26129032258065,1.26774193548387,1.2741935483871,1.24838709677419,1.28387096774194,1.29677419354839,1.25806451612903,1.25161290322581,1.30322580645161,1.31290322580645,1.29032258064516,1.33870967741935,1.50967741935484,1.82903225806452,2.20322580645161,2.49677419354839,2.65806451612903,2.75483870967742,2.83548387096774,2.7,2.57096774193548,2.5741935483871,2.49032258064516,2.39032258064516,2.2741935483871,2.1258064516129,1.98064516129032,1.86774193548387,1.76129032258065,1.66451612903226,1.50322580645161,1.28064516129032,1.08709677419355,1,0.983870967741935,0.948387096774194,0.92258064516129,0.890322580645161,0.896774193548387,0.835483870967742,0.816129032258065,0.783870967741935,0.770967741935484,0.764516129032258,0.767741935483871,0.764516129032258,0.780645161290323,0.812903225806452,0.858064516129032,0.870967741935484,0.941935483870968,1.00322580645161,1.05806451612903,1.11290322580645,1.18709677419355,1.19677419354839,1.22258064516129,1.25161290322581,1.23548387096774,1.25161290322581,1.24838709677419,1.23225806451613,1.2258064516129,1.22258064516129,1.21290322580645,1.20322580645161,1.19032258064516,1.2,1.21935483870968,1.19032258064516,1.23225806451613,1.19354838709677,1.22903225806452,1.27741935483871,1.18064516129032,1.1258064516129,1.14193548387097,1.13870967741935,1.1258064516129,1.16451612903226,1.14516129032258,1.15483870967742,1.14838709677419,1.16451612903226,1.16774193548387,1.17741935483871,1.14193548387097,1.17096774193548,1.16774193548387,1.19677419354839,1.30322580645161,1.63870967741935,2.02903225806452,2.30967741935484,2.51935483870968,2.61612903225806,2.72903225806452,2.64838709677419,2.50967741935484,2.45161290322581,2.44838709677419,2.31290322580645,2.20645161290323,2.07741935483871,1.97096774193548,1.81935483870968,1.72258064516129,1.6258064516129,1.5258064516129,1.30645161290323,1.13225806451613,1.01612903225806,1.00645161290323,0.970967741935484,0.941935483870968,0.948387096774194,0.974193548387097,0.935483870967742,0.919354838709677,0.906451612903226,0.893548387096774,0.932258064516129,0.919354838709677
1.15483870967742,1.16774193548387,1.16129032258065,1.14838709677419,1.15806451612903,1.13548387096774,1.17096774193548,1.16774193548387,1.1741935483871,1.1741935483871,1.2,1.21612903225806,1.21612903225806,1.27741935483871,1.23870967741935,1.17096774193548,1.16129032258065,1.18064516129032,1.14838709677419,1.15806451612903,1.16129032258065,1.18709677419355,1.15806451612903,1.17096774193548,1.15161290322581,1.19677419354839,1.18709677419355,1.21290322580645,1.23225806451613,1.20645161290323,1.3,1.45806451612903,1.78709677419355,2.17741935483871,2.42258064516129,2.60322580645161,2.66129032258065,2.73548387096774,2.64516129032258,2.50645161290323,2.51290322580645,2.39032258064516,2.27741935483871,2.16451612903226,2.03548387096774,1.87741935483871,1.75161290322581,1.69677419354839,1.6,1.46129032258065,1.25161290322581,1.07741935483871,0.983870967741935,0.964516129032258,0.954838709677419,0.938709677419355,0.919354838709677,0.887096774193548,0.870967741935484,0.841935483870968,0.825806451612903,0.793548387096774,0.803225806451613,0.819354838709677,0.816129032258065,0.861290322580645,0.890322580645161,0.909677419354839,0.980645161290323,1.00967741935484,1.08387096774194,1.13870967741935,1.15806451612903,1.22258064516129,1.23870967741935,1.25161290322581,1.27741935483871,1.26129032258065,1.27741935483871,1.26129032258065,1.2741935483871,1.25806451612903,1.24516129032258,1.23870967741935,1.24516129032258,1.23870967741935,1.24516129032258,1.25806451612903,1.28387096774194,1.29354838709677,1.3,1.31935483870968,1.3258064516129,1.33225806451613,1.24516129032258,1.24516129032258,1.25483870967742,1.21612903225806,1.24516129032258,1.24838709677419,1.23870967741935,1.23870967741935,1.25806451612903,1.24516129032258,1.23870967741935,1.24838709677419,1.27096774193548,1.27741935483871,1.27741935483871,1.35483870967742,1.50967741935484,1.86451612903226,2.20967741935484,2.48387096774194,2.59677419354839,2.72903225806452,2.75806451612903,2.63548387096774,2.51612903225806,2.47096774193548,2.40322580645161,2.28709677419355,2.15483870967742,2.05806451612903,1.88709677419355,1.79032258064516,1.71612903225806,1.60322580645161,1.50967741935484,1.29032258064516,1.11612903225806,1.05483870967742,1.02903225806452,1.01612903225806,0.964516129032258,0.938709677419355,0.919354838709677,0.916129032258065,0.883870967741936,0.87741935483871,0.838709677419355,0.845161290322581,0.854838709677419,0.816129032258065,0.893548387096774,0.896774193548387,0.912903225806452,1.00967741935484,1.04193548387097,1.1,1.14516129032258,1.1741935483871,1.21935483870968,1.24193548387097,1.25483870967742,1.28709677419355,1.28064516129032,1.3,1.31935483870968,1.26451612903226,1.30322580645161,1.28709677419355,1.25483870967742,1.27741935483871,1.2741935483871,1.2741935483871,1.27096774193548,1.30967741935484,1.31290322580645,1.3,1.32903225806452,1.35161290322581,1.25483870967742,1.24516129032258,1.23225806451613,1.23548387096774,1.21612903225806,1.23870967741935,1.24193548387097,1.23548387096774,1.24516129032258,1.25806451612903,1.25806451612903,1.25483870967742,1.26129032258065,1.28064516129032,1.25483870967742,1.28387096774194,1.40967741935484,1.66774193548387,2.07741935483871,2.38064516129032,2.59354838709677,2.71290322580645,2.79354838709677,2.74516129032258,2.60967741935484,2.53870967741935,2.56129032258065,2.42258064516129,2.3258064516129,2.17741935483871,2.05483870967742,1.91935483870968,1.80322580645161,1.72258064516129,1.59032258064516,1.3741935483871,1.18064516129032,1.04516129032258,1.01290322580645,0.983870967741935,0.961290322580645,0.929032258064516,0.929032258064516,0.870967741935484,0.851612903225806,0.829032258064516,0.793548387096774,0.787096774193548,0.787096774193548,0.780645161290323,0.787096774193548,0.825806451612903,0.858064516129032,0.919354838709677,0.964516129032258,1.02258064516129,1.09677419354839,1.14516129032258,1.19354838709677,1.24193548387097,1.26451612903226,1.28064516129032,1.27096774193548,1.3,1.3,1.29032258064516,1.30645161290323,1.29032258064516,1.27741935483871,1.28064516129032,1.26451612903226,1.26774193548387,1.28064516129032,1.29677419354839,1.31612903225806,1.31290322580645,1.31612903225806,1.35161290322581,1.3,1.23225806451613,1.21612903225806,1.20645161290323,1.20967741935484,1.2258064516129,1.2258064516129,1.23225806451613,1.25161290322581,1.24838709677419,1.24193548387097,1.24838709677419,1.24516129032258,1.29032258064516,1.27096774193548,1.28387096774194,1.36451612903226,1.54193548387097,1.9258064516129,2.26451612903226,2.53548387096774,2.65806451612903,2.7741935483871,2.82903225806452,2.68709677419355,2.54838709677419,2.58387096774194,2.5,2.40967741935484,2.26774193548387,2.12258064516129,1.94838709677419,1.83870967741935,1.75161290322581,1.61612903225806,1.46774193548387,1.23225806451613,1.0741935483871,0.993548387096774,0.970967741935484,0.948387096774194,0.932258064516129,0.909677419354839,0.896774193548387,0.864516129032258,0.848387096774194,0.825806451612903,0.806451612903226,0.787096774193548,0.793548387096774,0.783870967741935,0.838709677419355,0.864516129032258,0.906451612903226,0.948387096774194,1.00645161290323,1.08064516129032,1.11612903225806,1.18387096774194,1.2258064516129,1.24516129032258,1.26129032258065,1.29354838709677,1.29032258064516,1.28709677419355,1.29354838709677,1.25806451612903,1.24193548387097,1.25161290322581,1.25161290322581,1.2741935483871,1.23225806451613,1.26451612903226,1.25161290322581,1.2741935483871,1.29032258064516,1.29677419354839,1.30645161290323,1.32258064516129,1.26129032258065,1.22258064516129,1.22258064516129,1.2258064516129,1.21935483870968,1.20645161290323,1.23548387096774,1.22903225806452,1.23870967741935,1.23548387096774,1.24193548387097,1.24193548387097,1.25161290322581,1.26451612903226,1.2741935483871,1.2741935483871,1.33870967741935,1.56774193548387,1.88709677419355,2.24516129032258,2.5,2.62258064516129,2.70645161290323,2.76129032258065,2.61290322580645,2.47096774193548,2.47741935483871,2.36774193548387,2.26129032258065,2.11935483870968,2.00322580645161,1.87741935483871,1.76774193548387,1.69677419354839,1.59354838709677,1.45161290322581,1.23870967741935,1.07096774193548,1.0258064516129,0.987096774193548,0.980645161290323,0.970967741935484,0.919354838709677,0.938709677419355,0.9,0.883870967741936,0.858064516129032,0.870967741935484,0.841935483870968,0.861290322580645,0.867741935483871,0.864516129032258,0.909677419354839,0.938709677419355,0.993548387096774,1.04193548387097,1.10322580645161,1.13870967741935,1.19354838709677,1.23870967741935,1.26451612903226,1.29677419354839,1.30645161290323,1.29677419354839,1.30322580645161,1.28709677419355,1.29354838709677,1.2741935483871,1.25806451612903,1.26774193548387,1.27741935483871,1.27096774193548,1.28387096774194,1.28709677419355,1.30645161290323,1.31935483870968,1.35161290322581,1.37741935483871,1.35806451612903,1.28387096774194,1.24516129032258,1.26451612903226,1.26451612903226,1.25161290322581,1.25483870967742,1.26774193548387,1.27741935483871,1.26451612903226,1.26129032258065,1.28387096774194,1.29032258064516,1.27096774193548,1.29677419354839,1.27741935483871,1.29354838709677,1.38709677419355,1.59677419354839,1.98064516129032,2.29677419354839,2.54193548387097,2.6741935483871,2.76774193548387,2.78709677419355,2.6258064516129,2.52903225806452,2.52903225806452,2.39032258064516,2.31290322580645,2.15806451612903,2.03225806451613,1.90645161290323,1.78709677419355,1.7,1.59354838709677,1.44516129032258,1.24516129032258,1.07096774193548,1.02903225806452,1.01935483870968,0.961290322580645,0.967741935483871,0.945161290322581,0.916129032258065,0.880645161290323,0.864516129032258,0.819354838709677,0.841935483870968,0.825806451612903,0.809677419354839,0.82258064516129,0.832258064516129,0.880645161290323,0.92258064516129,0.925806451612903,1.00967741935484,1.07741935483871,1.09354838709677,1.1741935483871,1.20967741935484,1.2258064516129,1.24516129032258,1.28064516129032,1.26774193548387,1.26774193548387,1.2741935483871,1.26451612903226,1.24193548387097,1.25161290322581,1.24838709677419,1.22903225806452,1.23225806451613,1.23225806451613,1.28709677419355,1.27096774193548,1.26774193548387,1.28387096774194,1.31290322580645,1.31290322580645,1.22903225806452,1.20645161290323,1.19354838709677,1.20322580645161,1.20322580645161,1.18709677419355,1.21290322580645,1.23225806451613,1.21935483870968,1.22903225806452,1.20967741935484,1.24516129032258,1.23225806451613,1.27096774193548,1.26129032258065,1.28387096774194,1.38064516129032,1.66774193548387,2.06774193548387,2.39354838709677,2.60967741935484,2.7258064516129,2.80645161290323,2.74838709677419,2.63548387096774,2.54193548387097,2.55806451612903,2.43225806451613,2.33225806451613,2.20645161290323,2.10322580645161,1.92903225806452,1.80967741935484,1.70645161290323,1.59032258064516,1.3741935483871,1.14838709677419,1.02903225806452,0.990322580645161,0.980645161290323,0.964516129032258,0.948387096774194,0.912903225806452,0.9,0.880645161290323,0.854838709677419,0.832258064516129,0.809677419354839,0.8,0.793548387096774,0.816129032258065,0.841935483870968,0.867741935483871,0.925806451612903,0.980645161290323,1.04838709677419,1.10322580645161,1.15483870967742,1.19677419354839,1.22258064516129,1.26774193548387,1.30645161290323,1.28387096774194,1.31290322580645,1.30967741935484,1.29354838709677,1.29032258064516,1.29677419354839,1.29032258064516,1.29032258064516,1.28064516129032,1.25161290322581,1.27096774193548,1.29032258064516,1.28387096774194,1.31290322580645,1.33225806451613,1.33870967741935,1.35161290322581,1.24838709677419,1.2258064516129,1.23225806451613,1.23225806451613,1.22903225806452,1.21612903225806,1.2258064516129,1.2258064516129,1.24193548387097,1.24193548387097,1.24516129032258,1.26129032258065,1.24193548387097,1.28064516129032,1.27741935483871,1.29032258064516,1.38064516129032,1.66451612903226,2.10322580645161,2.38709677419355,2.6,2.71935483870968,2.80645161290323,2.74193548387097,2.60967741935484,2.53225806451613,2.50645161290323,2.37741935483871,2.24838709677419,2.14193548387097,2.02903225806452,1.84516129032258,1.74838709677419,1.65483870967742,1.5741935483871,1.35806451612903,1.18387096774194,1.04193548387097,1.01612903225806,0.980645161290323,0.980645161290323,0.945161290322581,0.919354838709677,0.887096774193548,0.896774193548387,0.896774193548387,0.845161290322581,0.832258064516129,0.835483870967742,0.825806451612903,0.841935483870968,0.880645161290323,0.893548387096774,0.958064516129032,1.01935483870968,1.06451612903226,1.13548387096774,1.17741935483871,1.20322580645161,1.24838709677419,1.28709677419355,1.28387096774194,1.27096774193548,1.30967741935484,1.29677419354839,1.27096774193548,1.29032258064516,1.26129032258065,1.27096774193548,1.25161290322581,1.2741935483871,1.26774193548387,1.27096774193548,1.2741935483871,1.29677419354839,1.29354838709677,1.31935483870968,1.32258064516129,1.31290322580645,1.23870967741935,1.24193548387097,1.2258064516129,1.21935483870968,1.20967741935484,1.21612903225806,1.22903225806452,1.21612903225806,1.23225806451613,1.22258064516129,1.23870967741935,1.25483870967742,1.25483870967742,1.27096774193548,1.25806451612903,1.29354838709677,1.41935483870968,1.68709677419355,2.12258064516129,2.40967741935484,2.61612903225806,2.71612903225806,2.78387096774194,2.71612903225806,2.54193548387097,2.48387096774194,2.4741935483871,2.3,2.20322580645161,2.08709677419355,1.96774193548387,1.82903225806452,1.74193548387097,1.63870967741935,1.5258064516129,1.3258064516129,1.12903225806452,1.03870967741935,0.996774193548387,0.993548387096774,0.974193548387097,0.961290322580645,0.932258064516129,0.9,0.887096774193548,0.848387096774194,0.838709677419355,0.816129032258065,0.796774193548387,0.82258064516129,0.835483870967742,0.854838709677419,0.887096774193548,0.941935483870968,1,1.03870967741935,1.13225806451613,1.15483870967742,1.21935483870968,1.24838709677419,1.24516129032258,1.31290322580645,1.31612903225806,1.29354838709677,1.30322580645161,1.31290322580645,1.27741935483871,1.28387096774194,1.25483870967742,1.26129032258065,1.25483870967742,1.25161290322581,1.26129032258065,1.2741935483871,1.26451612903226,1.30967741935484,1.30322580645161,1.35806451612903,1.35161290322581,1.23548387096774,1.24516129032258,1.21290322580645,1.23548387096774,1.24516129032258,1.24193548387097,1.24193548387097,1.24838709677419,1.27096774193548,1.26129032258065,1.25483870967742,1.25483870967742,1.24838709677419,1.28387096774194,1.27096774193548,1.26451612903226,1.39354838709677,1.6,2.05483870967742,2.36451612903226,2.59032258064516,2.70967741935484,2.80322580645161,2.76451612903226,2.64193548387097,2.5258064516129,2.5741935483871,2.41935483870968,2.3258064516129,2.20322580645161,2.0741935483871,1.9258064516129,1.79354838709677,1.70322580645161,1.57096774193548,1.40322580645161,1.19354838709677,1.04193548387097,1,0.951612903225806,0.916129032258065,0.92258064516129,0.890322580645161,0.854838709677419,0.832258064516129,0.819354838709677,0.819354838709677,0.787096774193548,0.8,0.796774193548387,0.793548387096774,0.829032258064516,0.854838709677419,0.896774193548387,0.948387096774194,1.00645161290323,1.07741935483871,1.13548387096774,1.16451612903226,1.18064516129032,1.26129032258065,1.28064516129032,1.28709677419355,1.29677419354839,1.3,1.27741935483871,1.28709677419355,1.28064516129032,1.26129032258065,1.26774193548387,1.25161290322581,1.26129032258065,1.25483870967742,1.24193548387097,1.28064516129032,1.30645161290323,1.31612903225806,1.31935483870968,1.33548387096774,1.36774193548387,1.27096774193548,1.23870967741935,1.24516129032258,1.23225806451613,1.25483870967742,1.22903225806452,1.25161290322581,1.28064516129032,1.26451612903226,1.25161290322581,1.2741935483871,1.2741935483871,1.28064516129032,1.29354838709677,1.26774193548387,1.31290322580645,1.39677419354839,1.66451612903226,2.10645161290323,2.39354838709677,2.60645161290323,2.73870967741935,2.83225806451613,2.77096774193548,2.65806451612903,2.54516129032258,2.58064516129032,2.40322580645161,2.34193548387097,2.20967741935484,2.06451612903226,1.91612903225806,1.79677419354839,1.67741935483871,1.60322580645161,1.39354838709677,1.19677419354839,1.05806451612903,1.01290322580645,1,0.97741935483871,0.958064516129032,0.964516129032258,0.929032258064516,0.893548387096774,0.87741935483871,0.864516129032258,0.854838709677419,0.838709677419355,0.858064516129032,0.854838709677419,0.896774193548387,0.906451612903226,0.951612903225806,0.990322580645161,1.05483870967742,1.10322580645161,1.15161290322581,1.19032258064516,1.23870967741935,1.25806451612903,1.26774193548387,1.27741935483871,1.27096774193548,1.26774193548387,1.23870967741935,1.2741935483871,1.27096774193548,1.22258064516129,1.24193548387097,1.2258064516129,1.2258064516129,1.23225806451613,1.25806451612903,1.26451612903226,1.28709677419355,1.30322580645161,1.30967741935484,1.32258064516129,1.21935483870968,1.22903225806452,1.2258064516129,1.21612903225806,1.22258064516129,1.24838709677419,1.23225806451613,1.26129032258065,1.26451612903226,1.26451612903226,1.26129032258065,1.27096774193548,1.27096774193548,1.29677419354839,1.28064516129032,1.33870967741935,1.48064516129032,1.76129032258065,2.16129032258065,2.44516129032258,2.61612903225806,2.72903225806452,2.78387096774194,2.66129032258065,2.55483870967742,2.50967741935484,2.46774193548387,2.29354838709677,2.19354838709677,2.06774193548387,1.95161290322581,1.78064516129032,1.73548387096774,1.63548387096774,1.52258064516129,1.3258064516129,1.11935483870968,1.04516129032258,1,0.970967741935484,0.97741935483871,0.935483870967742,0.932258064516129,0.92258064516129,0.903225806451613,0.845161290322581,0.832258064516129,0.835483870967742,0.841935483870968,0.825806451612903,0.861290322580645,0.883870967741936,0.912903225806452,0.980645161290323,1.01290322580645,1.07096774193548,1.12903225806452,1.16774193548387,1.2,1.21935483870968,1.25483870967742,1.25483870967742,1.24516129032258,1.27096774193548,1.26129032258065,1.26774193548387,1.26129032258065,1.24838709677419,1.22903225806452,1.26129032258065,1.2258064516129,1.2258064516129,1.23225806451613,1.25806451612903,1.26774193548387,1.27741935483871,1.28064516129032,1.31612903225806,1.27741935483871,1.20645161290323,1.21612903225806,1.20322580645161,1.2,1.2258064516129,1.23225806451613,1.23225806451613,1.2258064516129,1.25806451612903,1.23870967741935,1.23225806451613,1.25806451612903,1.25806451612903,1.27741935483871,1.26774193548387,1.3,1.50322580645161,1.82258064516129,2.19354838709677,2.47096774193548,2.59677419354839,2.72903225806452,2.7741935483871,2.67096774193548,2.53548387096774,2.5258064516129,2.43548387096774,2.31935483870968,2.18387096774194,2.05161290322581,1.89354838709677,1.81935483870968,1.73225806451613,1.6258064516129,1.50645161290323,1.28709677419355,1.08387096774194,1.03225806451613,0.996774193548387,0.987096774193548,0.948387096774194,0.938709677419355,0.906451612903226,0.883870967741936,0.867741935483871,0.848387096774194,0.825806451612903,0.77741935483871,0.77741935483871,0.774193548387097,0.8,0.851612903225806,0.870967741935484,0.916129032258065,0.970967741935484,1.05483870967742,1.10322580645161,1.15483870967742,1.18064516129032,1.21935483870968,1.27096774193548,1.28064516129032,1.29354838709677,1.30322580645161,1.2741935483871,1.29354838709677,1.28387096774194,1.28387096774194,1.26774193548387,1.26774193548387,1.25161290322581,1.26129032258065,1.28064516129032,1.28709677419355,1.31612903225806,1.32258064516129,1.34516129032258,1.35161290322581,1.24838709677419,1.23870967741935,1.22903225806452,1.2258064516129,1.23548387096774,1.23548387096774,1.23548387096774,1.25161290322581,1.23548387096774,1.24516129032258,1.24838709677419,1.27741935483871,1.28064516129032,1.28709677419355,1.24838709677419,1.29677419354839,1.40967741935484,1.71935483870968,2.12903225806452,2.39677419354839,2.60645161290323,2.74516129032258,2.84193548387097,2.76451612903226,2.61290322580645,2.57741935483871,2.56451612903226,2.45806451612903,2.34838709677419,2.22258064516129,2.08709677419355,1.92903225806452,1.81612903225806,1.70967741935484,1.58387096774194,1.34838709677419,1.16129032258065,1.0258064516129,1.03225806451613,1,0.987096774193548,0.948387096774194,0.932258064516129,0.919354838709677,0.864516129032258,0.858064516129032,0.848387096774194,0.832258064516129,0.845161290322581,0.845161290322581,0.864516129032258,0.867741935483871,0.919354838709677,0.974193548387097,1.00645161290323,1.09354838709677,1.11935483870968,1.16129032258065,1.22903225806452,1.25161290322581,1.26774193548387,1.31612903225806,1.32903225806452,1.31935483870968,1.30967741935484,1.31612903225806,1.30645161290323,1.30322580645161,1.30645161290323,1.28709677419355,1.30322580645161,1.29677419354839,1.31935483870968,1.3258064516129,1.37096774193548,1.36451612903226,1.39032258064516,1.4,1.34193548387097,1.28709677419355,1.29032258064516,1.27741935483871,1.27741935483871,1.25161290322581,1.27741935483871,1.3,1.28387096774194,1.28387096774194,1.29032258064516,1.28387096774194,1.28064516129032,1.28709677419355,1.3,1.3,1.36129032258065,1.52258064516129,1.83870967741935,2.24838709677419,2.4741935483871,2.64516129032258,2.73548387096774,2.7741935483871,2.64516129032258,2.53870967741935,2.53548387096774,2.41935483870968,2.31290322580645,2.1741935483871,2.04516129032258,1.90322580645161,1.76129032258065,1.6741935483871,1.57096774193548,1.47741935483871,1.23225806451613,1.06774193548387,1.02258064516129,0.980645161290323,0.97741935483871,0.929032258064516,0.916129032258065,0.896774193548387,0.829032258064516,0.832258064516129,0.819354838709677,0.8,0.783870967741935,0.77741935483871,0.790322580645161,0.790322580645161,0.806451612903226,0.867741935483871,0.896774193548387,0.970967741935484,1,1.06129032258065,1.12903225806452,1.13870967741935,1.16451612903226,1.19032258064516,1.20967741935484,1.20322580645161,1.20322580645161,1.21612903225806,1.20645161290323,1.20645161290323,1.18064516129032,1.18064516129032,1.16451612903226,1.18064516129032,1.21612903225806,1.2,1.22903225806452,1.23870967741935,1.26774193548387,1.26774193548387,1.18064516129032,1.14193548387097,1.16774193548387,1.14516129032258,1.13548387096774,1.14838709677419,1.13870967741935,1.14193548387097,1.15161290322581,1.14838709677419,1.17096774193548,1.15161290322581,1.14193548387097,1.21290322580645,1.18387096774194,1.20322580645161,1.30645161290323,1.58709677419355,1.98064516129032,2.2741935483871,2.50967741935484,2.62258064516129,2.69677419354839,2.63225806451613,2.5258064516129,2.44838709677419,2.43548387096774,2.28709677419355,2.18709677419355,2.10322580645161,1.96129032258065,1.83225806451613,1.75806451612903,1.68387096774194,1.60645161290323,1.43225806451613,1.23870967741935,1.09677419354839,1.10967741935484,1.1,1.07096774193548,1.0741935483871,1.05806451612903,1.03548387096774,1.05161290322581,1.0258064516129,1.03870967741935,1.02903225806452,1.04193548387097,1.04838709677419,1.07741935483871,1.13225806451613,1.18064516129032,1.26774193548387
