2.29453125,1.15048828125,0.78955078125,1.29228515625,1.64033203125,1.5146484375,1.4501953125,1.533984375,1.533984375,1.6306640625,1.688671875,1.0505859375,0.14501953125,0.373828125,1.58876953125,2.12373046875,1.662890625,1.430859375,1.71767578125,1.82080078125,1.6951171875,1.7337890625,1.85302734375,1.85947265625,1.8626953125,1.93681640625,1.99482421875,1.9787109375,1.9400390625,1.894921875,1.83369140625,1.74345703125,1.64677734375,1.5791015625,1.546875,1.53076171875,1.52109375,1.5017578125,1.45986328125,1.43408203125,1.44697265625,1.456640625,1.4244140625,1.3857421875,1.40185546875,1.43408203125,1.4244140625,1.38896484375,1.38251953125,1.40830078125,1.42119140625,1.41796875,1.42119140625,1.44052734375,1.47275390625,1.50498046875,1.51787109375,1.51787109375,1.5275390625,1.53720703125,1.52109375,1.49853515625,1.49208984375,1.4953125,1.49208984375,1.48564453125,1.45986328125,1.430859375,1.4373046875,1.47275390625,1.46630859375,1.42119140625,1.41474609375,1.44375,1.47275390625,1.508203125,1.533984375,1.5404296875,1.5791015625,1.64033203125,1.6435546875,1.5984375,1.5919921875,1.59521484375,1.54365234375,1.4953125,1.508203125,1.5146484375,1.482421875,1.4888671875,1.52109375,1.4501953125,1.31162109375,1.4630859375,2.14951171875,2.88427734375,2.78759765625,1.77890625,0.889453125,0.9216796875,1.41474609375,1.5984375,1.49853515625,1.48564453125,1.559765625,1.56943359375,1.56298828125,1.58232421875,1.61455078125,1.64677734375,1.66611328125,1.6435546875,1.62421875,1.6693359375,1.74345703125,1.76279296875,1.7337890625,1.74345703125,1.78857421875,1.817578125,1.82724609375,1.843359375,1.8626953125,1.88525390625,1.894921875,1.8626953125,1.78857421875,1.7080078125,1.6306640625,1.55009765625,1.482421875,1.45341796875,1.4501953125,1.44375,1.4244140625,1.4115234375,1.41474609375,1.4244140625,1.42119140625,1.3921875,1.36318359375,1.3599609375,1.36962890625,1.35673828125,1.3212890625,1.31806640625,1.353515625,1.36962890625,1.35673828125,1.353515625,1.38251953125,1.40185546875,1.38896484375,1.38896484375,1.42763671875,1.4759765625,1.47919921875,1.45986328125,1.46630859375,1.48564453125,1.47919921875,1.456640625,1.4630859375,1.47919921875,1.46630859375,1.430859375,1.39541015625,1.38251953125,1.38896484375,1.40830078125,1.41474609375,1.405078125,1.41796875,1.45986328125,1.508203125,1.53720703125,1.55654296875,1.5662109375,1.546875,1.533984375,1.5791015625,1.60810546875,1.54365234375,1.4759765625,1.482421875,1.4953125,1.47275390625,1.4759765625,1.50498046875,1.45986328125,1.33095703125,1.36640625,1.8626953125,2.67158203125,2.990625,2.24619140625,1.10859375,0.7541015625,1.21494140625,1.5662109375,1.4759765625,1.40185546875,1.508203125,1.57265625,1.55009765625,1.559765625,1.5984375,1.62744140625,1.6435546875,1.6564453125,1.65322265625,1.66611328125,1.7015625,1.7337890625,1.740234375,1.740234375,1.77568359375,1.83046875,1.85625,1.8498046875,1.8498046875,1.87880859375,1.89814453125,1.86591796875,1.80146484375,1.73701171875,1.66611328125,1.58232421875,1.5017578125,1.4630859375,1.46953125,1.46953125,1.44375,1.41474609375,1.41796875,1.430859375,1.41796875,1.40185546875,1.40185546875,1.40185546875,1.38251953125,1.36318359375,1.36640625,1.379296875,1.36962890625,1.34384765625,1.3470703125,1.37607421875,1.37607421875,1.36318359375,1.37607421875,1.40830078125,1.430859375,1.45986328125,1.4888671875,1.48564453125,1.47919921875,1.49853515625,1.52431640625,1.5146484375,1.4953125,1.4888671875,1.47275390625,1.45986328125,1.45986328125,1.4501953125,1.41796875,1.4115234375,1.4373046875,1.44697265625,1.44697265625,1.46953125,1.4888671875,1.4888671875,1.508203125,1.57587890625,1.62421875,1.611328125,1.5919921875,1.6048828125,1.59521484375,1.54365234375,1.51142578125,1.5275390625,1.533984375,1.5146484375,1.5017578125,1.5017578125,1.456640625,1.379296875,1.49208984375,2.0625,2.80693359375,2.8359375,1.83046875,0.812109375,0.7927734375,1.353515625,1.5791015625,1.45986328125,1.44697265625,1.5404296875,1.56943359375,1.57265625,1.60810546875,1.637109375,1.64677734375,1.662890625,1.67578125,1.688671875,1.72412109375,1.74990234375,1.740234375,1.74990234375,1.80791015625,1.8498046875,1.82724609375,1.82080078125,1.87236328125,1.9078125,1.88525390625,1.85302734375,1.84658203125,1.8240234375,1.72412109375,1.58876953125,1.50498046875,1.49853515625,1.47919921875,1.43408203125,1.4244140625,1.44375,1.430859375,1.4115234375,1.42763671875,1.44375,1.42763671875,1.3986328125,1.38896484375,1.38251953125,1.36318359375,1.3470703125,1.353515625,1.36318359375,1.3470703125,1.33740234375,1.35673828125,1.379296875,1.379296875,1.379296875,1.3986328125,1.41474609375,1.4244140625,1.44697265625,1.482421875,1.49853515625,1.4888671875,1.4759765625,1.4888671875,1.5017578125,1.49208984375,1.46630859375,1.4501953125,1.4373046875,1.42119140625,1.41474609375,1.4115234375,1.42119140625,1.4630859375,1.51142578125,1.52109375,1.51142578125,1.508203125,1.5017578125,1.49208984375,1.5017578125,1.5146484375,1.4953125,1.4759765625,1.4888671875,1.52109375,1.53720703125,1.5275390625,1.49853515625,1.4501953125,1.40185546875,1.5662109375,2.18173828125,2.88427734375,2.784375,1.73701171875,0.8443359375,0.93779296875,1.430859375,1.53076171875,1.38251953125,1.39541015625,1.47275390625,1.47275390625,1.4953125,1.56943359375,1.5919921875,1.58876953125,1.6306640625,1.68544921875,1.7015625,1.71123046875,1.7466796875,1.7724609375,1.77890625,1.8046875,1.8626953125,1.89169921875,1.87880859375,1.87880859375,1.9142578125,1.920703125,1.87236328125,1.7982421875,1.73056640625,1.65322265625,1.55654296875,1.45341796875,1.3857421875,1.38251953125,1.3986328125,1.38896484375,1.39541015625,1.4244140625,1.44052734375,1.4373046875,1.43408203125,1.4373046875,1.44375,1.45986328125,1.45341796875,1.41474609375,1.39541015625,1.41474609375,1.42763671875,1.38896484375,1.353515625,1.353515625,1.35673828125,1.340625,1.340625,1.37607421875,1.40830078125,1.42119140625,1.4244140625,1.42763671875,1.45341796875,1.4888671875,1.5017578125,1.49853515625,1.51142578125,1.53076171875,1.52431640625,1.508203125,1.508203125,1.4953125,1.4630859375,1.46630859375,1.5146484375,1.5533203125,1.546875,1.53720703125,1.5275390625,1.49208984375,1.4501953125,1.4501953125,1.46953125,1.44697265625,1.41474609375,1.44375,1.4953125,1.49853515625,1.4888671875,1.508203125,1.49208984375,1.4115234375,1.46953125,1.92392578125,2.63935546875,2.94228515625,2.29775390625,1.24072265625,0.8765625,1.3083984375,1.62099609375,1.45986328125,1.340625,1.456640625,1.50498046875,1.44375,1.45341796875,1.5146484375,1.533984375,1.5533203125,1.62099609375,1.67255859375,1.68544921875,1.69189453125,1.72734375,1.78212890625,1.843359375,1.88203125,1.8884765625,1.894921875,1.9400390625,1.98193359375,1.96904296875,1.920703125,1.8755859375,1.8046875,1.69189453125,1.5791015625,1.4953125,1.43408203125,1.38251953125,1.3470703125,1.33740234375,1.3470703125,1.36640625,1.3857421875,1.4115234375,1.430859375,1.44052734375,1.45341796875,1.46630859375,1.4759765625,1.4759765625,1.46630859375,1.45341796875,1.44697265625,1.44375,1.430859375,1.40830078125,1.39541015625,1.3857421875,1.36640625,1.35029296875,1.36962890625,1.39541015625,1.379296875,1.353515625,1.36640625,1.405078125,1.43408203125,1.456640625,1.48564453125,1.49208984375,1.47919921875,1.482421875,1.51142578125,1.53720703125,1.55009765625,1.546875,1.533984375,1.54365234375,1.585546875,1.5919921875,1.5533203125,1.52431640625,1.508203125,1.47919921875,1.45341796875,1.43408203125,1.3921875,1.36640625,1.3921875,1.41796875,1.42119140625,1.4373046875,1.45986328125,1.41796875,1.38896484375,1.65322265625,2.31064453125,2.89072265625,2.694140625,1.74345703125,0.98935546875,1.0892578125,1.53076171875,1.60166015625,1.44052734375,1.44375,1.5275390625,1.49853515625,1.45341796875,1.47275390625,1.49208984375,1.51787109375,1.559765625,1.56943359375,1.56298828125,1.61455078125,1.7015625,1.74345703125,1.76923828125,1.83046875,1.894921875,1.93037109375,1.96259765625,1.998046875,2.00771484375,1.97548828125,1.9400390625,1.91103515625,1.83369140625,1.688671875,1.55009765625,1.4888671875,1.4501953125,1.3728515625,1.31162109375,1.31484375,1.327734375,1.3212890625,1.340625,1.37607421875,1.37607421875,1.36962890625,1.4115234375,1.47275390625,1.4759765625,1.45341796875,1.46630859375,1.49208984375,1.48564453125,1.47275390625,1.45986328125,1.44052734375,1.4373046875,1.44375,1.430859375,1.405078125,1.3986328125,1.3921875,1.3728515625,1.3599609375,1.36640625,1.37607421875,1.379296875,1.3857421875,1.3986328125,1.430859375,1.45986328125,1.456640625,1.45341796875,1.4953125,1.5533203125,1.585546875,1.60166015625,1.6177734375,1.62099609375,1.6177734375,1.611328125,1.5791015625,1.52109375,1.49208984375,1.4953125,1.45986328125,1.39541015625,1.37607421875,1.40185546875,1.40185546875,1.37607421875,1.38896484375,1.39541015625,1.3212890625,1.35029296875,1.8046875,2.5974609375,3.003515625,2.4427734375,1.379296875,0.90234375,1.2697265625,1.67578125,1.6048828125,1.43408203125,1.4888671875,1.559765625,1.52109375,1.5017578125,1.52431640625,1.52109375,1.52109375,1.55654296875,1.5791015625,1.58876953125,1.62099609375,1.6564453125,1.67900390625,1.71767578125,1.791796875,1.85947265625,1.90458984375,1.94970703125,2.00771484375,2.03994140625,2.02705078125,1.98515625,1.91748046875,1.82724609375,1.714453125,1.5919921875,1.49853515625,1.4373046875,1.38251953125,1.340625,1.33740234375,1.3470703125,1.30517578125,1.2697265625,1.301953125,1.3470703125,1.340625,1.3212890625,1.3470703125,1.3921875,1.4115234375,1.41474609375,1.43408203125,1.4501953125,1.44697265625,1.4501953125,1.46953125,1.4759765625,1.46630859375,1.456640625,1.4501953125,1.430859375,1.4115234375,1.38251953125,1.36318359375,1.36640625,1.37607421875,1.353515625,1.3470703125,1.38251953125,1.3986328125,1.3857421875,1.40185546875,1.456640625,1.50498046875,1.546875,1.57265625,1.58876953125,1.611328125,1.6306640625,1.5984375,1.54365234375,1.52431640625,1.50498046875,1.45341796875,1.43408203125,1.46953125,1.4630859375,1.41474609375,1.40830078125,1.41796875,1.340625,1.28583984375,1.62744140625,2.42021484375,2.96162109375,2.4427734375,1.2568359375,0.69609375,1.121484375,1.60166015625,1.56298828125,1.44697265625,1.55009765625,1.6177734375,1.56298828125,1.57265625,1.62421875,1.60166015625,1.5791015625,1.64677734375,1.71123046875,1.69833984375,1.6564453125,1.662890625,1.7080078125,1.7466796875,1.7724609375,1.80791015625,1.8626953125,1.9013671875,1.92392578125,1.94970703125,1.972265625,1.959375,1.8884765625,1.77890625,1.6951171875,1.6435546875,1.585546875,1.50498046875,1.45341796875,1.456640625,1.46630859375,1.42763671875,1.3857421875,1.3857421875,1.39541015625,1.36640625,1.33740234375,1.3470703125,1.3728515625,1.38251953125,1.37607421875,1.36640625,1.35673828125,1.38251953125,1.42119140625,1.41796875,1.3921875,1.4244140625,1.48564453125,1.4953125,1.482421875,1.5017578125,1.508203125,1.4630859375,1.44697265625,1.49208984375,1.51787109375,1.4953125,1.4888671875,1.5146484375,1.52431640625,1.50498046875,1.49208984375,1.4888671875,1.46630859375,1.430859375,1.42119140625,1.41796875,1.40185546875,1.39541015625,1.41474609375,1.42763671875,1.42763671875,1.45341796875,1.49853515625,1.47275390625,1.38251953125,1.51787109375,2.178515625,2.97451171875,2.9390625,1.85302734375,0.85078125,0.88623046875,1.42763671875,1.55009765625,1.35673828125,1.353515625,1.47275390625,1.4759765625,1.44697265625,1.4888671875,1.5146484375,1.50498046875,1.54365234375,1.60810546875,1.64033203125,1.662890625,1.714453125,1.7724609375,1.8046875,1.843359375,1.9013671875,1.93037109375,1.9400390625,1.97548828125,1.99482421875,1.92392578125,1.9013671875,1.9400390625,1.6435546875,0.98291015625,0.786328125,1.33095703125,1.688671875,1.38896484375,1.1537109375,1.340625,1.45986328125,1.353515625,1.340625,1.43408203125,1.45341796875,1.430859375,1.45986328125,1.4888671875,1.4759765625,1.47275390625,1.5017578125,1.51787109375,1.49208984375,1.46630859375,1.4630859375,1.44375,1.42119140625,1.43408203125,1.44375,1.405078125,1.36640625,1.3921875,1.4244140625,1.405078125,1.38896484375,1.44052734375,1.50498046875,1.52431640625,1.546875,1.5919921875,1.61455078125,1.5984375,1.60166015625,1.62421875,1.6048828125,1.5404296875,1.4888671875,1.47275390625,1.46953125,1.46630859375,1.45341796875,1.42119140625,1.40185546875,1.3921875,1.33740234375,1.28583984375,1.4953125,2.152734375,2.87138671875,2.82626953125,1.81435546875,0.84111328125,0.8830078125,1.4888671875,1.68544921875,1.49853515625,1.46953125,1.57265625,1.57587890625,1.559765625,1.60810546875,1.62099609375,1.5919921875,1.60166015625,1.62421875,1.6048828125,1.585546875,1.6177734375,1.662890625,1.6951171875,1.740234375,1.77890625,1.80791015625,1.843359375,1.89169921875,1.93037109375,1.93037109375,1.9078125,1.86591796875,1.79501953125,1.6951171875,1.60166015625,1.54365234375,1.5017578125,1.45341796875,1.40830078125,1.3857421875,1.3857421875,1.3921875,1.37607421875,1.35029296875,1.35029296875,1.35673828125,1.3341796875,1.301953125,1.31162109375,1.34384765625,1.35029296875,1.34384765625,1.36962890625,1.4115234375,1.42763671875,1.4115234375,1.405078125,1.4373046875,1.46630859375,1.456640625,1.44697265625,1.4888671875,1.5275390625,1.49853515625,1.4501953125,1.46630859375,1.5146484375,1.5275390625,1.5146484375,1.51142578125,1.5017578125,1.45986328125,1.41796875,1.42119140625,1.430859375,1.39541015625,1.3470703125,1.340625,1.38251953125,1.43408203125,1.45986328125,1.4501953125,1.430859375,1.40830078125,1.38251953125,1.57265625,2.25263671875,3.03251953125,2.91005859375,1.73056640625,0.77666015625,0.94423828125,1.49853515625,1.5662109375,1.3857421875,1.405078125,1.47919921875,1.44697265625,1.430859375,1.46953125,1.482421875,1.4759765625,1.52431640625,1.5984375,1.63388671875,1.65966796875,1.7208984375,1.7853515625,1.81435546875,1.8498046875,1.9078125,1.9529296875,1.98515625,2.0173828125,2.00771484375,1.96259765625,1.93037109375,1.88525390625,1.75634765625,1.5919921875,1.482421875,1.4373046875,1.3986328125,1.36640625,1.34384765625,1.31162109375,1.29873046875,1.34384765625,1.38896484375,1.3728515625,1.36318359375,1.40830078125,1.44697265625,1.44375,1.45986328125,1.4953125,1.4953125,1.4501953125,1.430859375,1.45341796875,1.47275390625,1.456640625,1.4115234375,1.38251953125,1.38896484375,1.405078125,1.38251953125,1.340625,1.3470703125,1.405078125,1.44697265625,1.46630859375,1.49208984375,1.533984375,1.56298828125,1.5662109375,1.546875,1.53076171875,1.546875,1.5662109375,1.546875,1.4953125,1.4759765625,1.48564453125,1.45986328125,1.4115234375,1.42119140625,1.4630859375,1.4244140625,1.30517578125,1.33740234375,1.8498046875,2.68447265625,2.98740234375,2.178515625,1.02158203125,0.75087890625,1.2826171875,1.60166015625,1.47919921875,1.4373046875,1.5662109375,1.58232421875,1.533984375,1.59521484375,1.67255859375,1.65,1.61455078125,1.64033203125,1.65966796875,1.662890625,1.688671875,1.71767578125,1.71767578125,1.740234375,1.80791015625,1.8498046875,1.85302734375,1.87236328125,1.920703125,1.93681640625,1.91103515625,1.85947265625,1.77568359375,1.6822265625,1.62099609375,1.57587890625,1.5146484375,1.46953125,1.46953125,1.47275390625,1.44375,1.41796875,1.42119140625,1.42119140625,1.40185546875,1.38251953125,1.3728515625,1.37607421875,1.38251953125,1.3728515625,1.34384765625,1.3212890625,1.340625,1.3857421875,1.40185546875,1.379296875,1.37607421875,1.42119140625,1.45341796875,1.4501953125,1.44697265625,1.46953125,1.48564453125,1.49853515625,1.5017578125,1.4759765625,1.44375,1.44375,1.46953125,1.4888671875,1.49853515625,1.508203125,1.4888671875,1.4630859375,1.4759765625,1.51142578125,1.508203125,1.43408203125,1.379296875,1.4115234375,1.45986328125,1.430859375,1.38896484375,1.41796875,1.4630859375,1.45341796875,1.4501953125,1.482421875,1.46953125,1.36962890625,1.3728515625,1.78857421875,2.56201171875,3.029296875,2.5072265625,1.340625,0.721875,1.0763671875,1.5404296875,1.47919921875,1.276171875,1.33095703125,1.4501953125,1.44052734375,1.40830078125,1.4501953125,1.51787109375,1.5533203125,1.56298828125,1.585546875,1.6435546875,1.69833984375,1.714453125,1.72734375,1.7853515625,1.85625,1.87236328125,1.869140625,1.9013671875,1.94970703125,1.9400390625,1.869140625,1.8046875,1.7466796875,1.6564453125,1.53720703125,1.43408203125,1.36962890625,1.3341796875,1.31806640625,1.31162109375,1.31484375,1.353515625,1.3857421875,1.36962890625,1.36318359375,1.41796875,1.46630859375
1.753125,1.8369140625,1.86591796875,1.88525390625,1.9400390625,1.972265625,1.9271484375,1.8626953125,1.82080078125,1.753125,1.64677734375,1.54365234375,1.46953125,1.42763671875,1.4115234375,1.3857421875,1.340625,1.31484375,1.31806640625,1.33095703125,1.3341796875,1.327734375,1.35029296875,1.39541015625,1.4115234375,1.38896484375,1.3857421875,1.4373046875,1.482421875,1.47919921875,1.47275390625,1.4953125,1.5017578125,1.47919921875,1.46630859375,1.47275390625,1.46630859375,1.456640625,1.46630859375,1.456640625,1.40830078125,1.37607421875,1.38896484375,1.42119140625,1.44052734375,1.4501953125,1.47275390625,1.5146484375,1.5404296875,1.52431640625,1.49208984375,1.4953125,1.53076171875,1.53076171875,1.4888671875,1.46953125,1.5146484375,1.55009765625,1.5146484375,1.47275390625,1.4759765625,1.45986328125,1.36318359375,1.379296875,1.8626953125,2.68125,2.977734375,2.1978515625,1.0828125,0.7927734375,1.2697265625,1.57587890625,1.4373046875,1.35673828125,1.482421875,1.5404296875,1.5017578125,1.53720703125,1.62099609375,1.6306640625,1.6048828125,1.6306640625,1.6822265625,1.7080078125,1.714453125,1.72734375,1.74345703125,1.7595703125,1.79501953125,1.8498046875,1.88203125,1.87236328125,1.8626953125,1.869140625,1.85947265625,1.79501953125,1.68544921875,1.59521484375,1.54365234375,1.4953125,1.4373046875,1.405078125,1.42119140625,1.456640625,1.45986328125,1.4373046875,1.430859375,1.45986328125,1.46953125,1.45341796875,1.44052734375,1.43408203125,1.41796875,1.40830078125,1.40830078125,1.38896484375,1.36318359375,1.36962890625,1.3921875,1.38251953125,1.353515625,1.35673828125,1.3921875,1.4115234375,1.41796875,1.44697265625,1.47919921875,1.47275390625,1.4630859375,1.4888671875,1.5017578125,1.49853515625,1.5146484375,1.54365234375,1.54365234375,1.54365234375,1.5662109375,1.57587890625,1.55654296875,1.533984375,1.52109375,1.5017578125,1.47275390625,1.430859375,1.3728515625,1.3599609375,1.40185546875,1.42763671875,1.405078125,1.41474609375,1.47275390625,1.4759765625,1.3921875,1.40830078125,1.79501953125,2.53623046875,3.00673828125,2.50400390625,1.36318359375,0.82177734375,1.24072265625,1.6564453125,1.52109375,1.34384765625,1.42763671875,1.49853515625,1.45986328125,1.46953125,1.5017578125,1.4953125,1.508203125,1.5533203125,1.585546875,1.62744140625,1.6822265625,1.71123046875,1.74345703125,1.8111328125,1.87880859375,1.920703125,1.959375,1.98515625,1.98515625,1.98837890625,1.97548828125,1.9013671875,1.77890625,1.66611328125,1.5662109375,1.482421875,1.4244140625,1.3728515625,1.31484375,1.301953125,1.3341796875,1.35673828125,1.33740234375,1.33740234375,1.37607421875,1.3986328125,1.39541015625,1.41796875,1.45986328125,1.47919921875,1.47919921875,1.4759765625,1.46630859375,1.45986328125,1.4630859375,1.456640625,1.44375,1.430859375,1.4244140625,1.41474609375,1.3986328125,1.3857421875,1.379296875,1.3857421875,1.39541015625,1.379296875,1.3599609375,1.38251953125,1.43408203125,1.47275390625,1.49208984375,1.51142578125,1.54365234375,1.58876953125,1.62744140625,1.637109375,1.62099609375,1.59521484375,1.5791015625,1.57265625,1.533984375,1.46953125,1.430859375,1.42763671875,1.41796875,1.40185546875,1.405078125,1.40830078125,1.379296875,1.31162109375,1.32451171875,1.70478515625,2.4814453125,2.951953125,2.42021484375,1.327734375,0.8314453125,1.18916015625,1.5919921875,1.5791015625,1.4759765625,1.533984375,1.585546875,1.55009765625,1.546875,1.5919921875,1.5984375,1.56943359375,1.56298828125,1.5919921875,1.62744140625,1.637109375,1.63388671875,1.6564453125,1.71123046875,1.766015625,1.81435546875,1.86591796875,1.90458984375,1.92392578125,1.94326171875,1.946484375,1.91748046875,1.8498046875,1.74990234375,1.65,1.5791015625,1.53076171875,1.4888671875,1.43408203125,1.3986328125,1.38896484375,1.3857421875,1.36640625,1.3470703125,1.34384765625,1.3470703125,1.3599609375,1.36640625,1.35029296875,1.340625,1.36318359375,1.405078125,1.42763671875,1.430859375,1.42763671875,1.43408203125,1.46630859375,1.5017578125,1.50498046875,1.47275390625,1.456640625,1.48564453125,1.508203125,1.46953125,1.40830078125,1.4115234375,1.456640625,1.45986328125,1.41474609375,1.379296875,1.3728515625,1.38896484375,1.42119140625,1.44697265625,1.456640625,1.482421875,1.53076171875,1.57265625,1.58232421875,1.5662109375,1.559765625,1.5791015625,1.59521484375,1.56298828125,1.5017578125,1.46953125,1.46630859375,1.46630859375,1.4630859375,1.46953125,1.45986328125,1.4115234375,1.31484375,1.327734375,1.766015625,2.5974609375,3.05185546875,2.40732421875,1.20849609375,0.72509765625,1.16982421875,1.585546875,1.50498046875,1.38896484375,1.50498046875,1.57587890625,1.5275390625,1.55009765625,1.6177734375,1.62421875,1.62421875,1.6693359375,1.68544921875,1.662890625,1.6693359375,1.7015625,1.7208984375,1.74990234375,1.7982421875,1.84658203125,1.869140625,1.88203125,1.9013671875,1.920703125,1.90458984375,1.8498046875,1.77568359375,1.6951171875,1.611328125,1.5404296875,1.4953125,1.47919921875,1.47275390625,1.4630859375,1.4501953125,1.43408203125,1.41796875,1.4115234375,1.41474609375,1.39541015625,1.36962890625,1.379296875,1.39541015625,1.379296875,1.3599609375,1.3728515625,1.38251953125,1.36318359375,1.3470703125,1.35029296875,1.36640625,1.405078125,1.44697265625,1.45341796875,1.43408203125,1.45341796875,1.5017578125,1.5146484375,1.4888671875,1.4630859375,1.46630859375,1.48564453125,1.49208984375,1.47275390625,1.44052734375,1.43408203125,1.44375,1.44375,1.44052734375,1.46630859375,1.508203125,1.5275390625,1.52109375,1.5017578125,1.49208984375,1.5017578125,1.5017578125,1.47275390625,1.44697265625,1.46630859375,1.49208984375,1.48564453125,1.4759765625,1.4953125,1.52109375,1.5017578125,1.4115234375,1.379296875,1.72412109375,2.51689453125,3.08408203125,2.591015625,1.36962890625,0.721875,1.07314453125,1.51787109375,1.47275390625,1.34384765625,1.43408203125,1.51787109375,1.49853515625,1.51142578125,1.5662109375,1.58232421875,1.5791015625,1.611328125,1.6693359375,1.714453125,1.73701171875,1.766015625,1.80146484375,1.82724609375,1.8498046875,1.87880859375,1.90458984375,1.9078125,1.89814453125,1.9013671875,1.9078125,1.86591796875,1.76279296875,1.637109375,1.546875,1.48564453125,1.4373046875,1.3921875,1.36962890625,1.3599609375,1.36318359375,1.39541015625,1.43408203125,1.4501953125,1.44697265625,1.44375,1.44697265625,1.44697265625,1.44052734375,1.42763671875,1.405078125,1.3986328125,1.405078125,1.40185546875,1.379296875,1.36962890625,1.379296875,1.38251953125,1.35673828125,1.340625,1.3599609375,1.39541015625,1.42119140625,1.43408203125,1.430859375,1.44375,1.4888671875,1.53076171875,1.51787109375,1.47919921875,1.49208984375,1.53076171875,1.5275390625,1.5146484375,1.533984375,1.559765625,1.5662109375,1.5662109375,1.559765625,1.5275390625,1.48564453125,1.4759765625,1.4759765625,1.430859375,1.38251953125,1.40185546875,1.44375,1.4373046875,1.42119140625,1.45341796875,1.4953125,1.4630859375,1.405078125,1.55009765625,2.08828125,2.745703125,2.81337890625,2.0044921875,1.05703125,0.89267578125,1.3470703125,1.60810546875,1.4953125,1.40185546875,1.4501953125,1.48564453125,1.482421875,1.4953125,1.52109375,1.53720703125,1.55009765625,1.57587890625,1.64033203125,1.6951171875,1.69833984375,1.71767578125,1.791796875,1.87236328125,1.91748046875,1.946484375,1.96904296875,1.98515625,2.0044921875,1.9916015625,1.93359375,1.85302734375,1.76279296875,1.64677734375,1.53076171875,1.45341796875,1.4115234375,1.36640625,1.32451171875,1.31806640625,1.340625,1.35029296875,1.34384765625,1.35029296875,1.38896484375,1.430859375,1.4501953125,1.4501953125,1.45986328125,1.4953125,1.508203125,1.4759765625,1.44052734375,1.44697265625,1.4630859375,1.4630859375,1.44697265625,1.43408203125,1.42119140625,1.3986328125,1.3857421875,1.3857421875,1.37607421875,1.35673828125,1.36640625,1.3986328125,1.40830078125,1.40185546875,1.430859375,1.48564453125,1.508203125,1.4953125,1.48564453125,1.508203125,1.533984375,1.55009765625,1.5662109375,1.59521484375,1.62421875,1.637109375,1.6177734375,1.56298828125,1.49853515625,1.47919921875,1.49208984375,1.46630859375,1.3921875,1.35029296875,1.3857421875,1.4244140625,1.41474609375,1.41474609375,1.4244140625,1.36962890625,1.340625,1.65322265625,2.3654296875,2.92939453125,2.6619140625,1.6822265625,0.95068359375,1.069921875,1.5404296875,1.6435546875,1.47275390625,1.43408203125,1.5146484375,1.5275390625,1.49853515625,1.49853515625,1.51142578125,1.51787109375,1.53720703125,1.56943359375,1.6048828125,1.63388671875,1.6564453125,1.70478515625,1.77890625,1.84013671875,1.8755859375,1.91748046875,1.96904296875,2.0044921875,2.0173828125,2.02705078125,1.998046875,1.89169921875,1.75634765625,1.65966796875,1.57265625,1.46953125,1.40185546875,1.3857421875,1.379296875,1.34384765625,1.31162109375,1.301953125,1.31484375,1.3341796875,1.340625,1.34384765625,1.3728515625,1.42119140625,1.4373046875,1.42763671875,1.44375,1.47919921875,1.482421875,1.4630859375,1.4630859375,1.45986328125,1.44052734375,1.44052734375,1.47275390625,1.4759765625,1.430859375,1.3986328125,1.3986328125,1.40185546875,1.3921875,1.38251953125,1.38251953125,1.39541015625,1.41474609375,1.41796875,1.405078125,1.430859375,1.4888671875,1.5017578125,1.46953125,1.4888671875,1.559765625,1.6048828125,1.62099609375,1.64033203125,1.63388671875,1.58232421875,1.55654296875,1.56943359375,1.54365234375,1.456640625,1.39541015625,1.3986328125,1.4115234375,1.40185546875,1.39541015625,1.42119140625,1.42119140625,1.33095703125,1.2890625,1.62421875,2.36865234375,2.91650390625,2.5845703125,1.57587890625,0.9216796875,1.12470703125,1.5791015625,1.64033203125,1.5017578125,1.51142578125,1.5791015625,1.55654296875,1.52431640625,1.546875,1.56298828125,1.5662109375,1.56943359375,1.5791015625,1.5919921875,1.6177734375,1.6435546875,1.65966796875,1.69189453125,1.766015625,1.843359375,1.88203125,1.90458984375,1.94326171875,1.97548828125,1.972265625,1.946484375,1.88525390625,1.76923828125,1.65,1.58232421875,1.54365234375,1.4888671875,1.43408203125,1.3986328125,1.36640625,1.33740234375,1.33095703125,1.327734375,1.31806640625,1.327734375,1.35029296875,1.36318359375,1.38251953125,1.40830078125,1.3986328125,1.37607421875,1.405078125,1.46630859375,1.482421875,1.4630859375,1.46630859375,1.4888671875,1.49853515625,1.49853515625,1.49853515625,1.4759765625,1.4373046875,1.4244140625,1.44052734375,1.43408203125,1.405078125,1.39541015625,1.40830078125,1.40830078125,1.3986328125,1.39541015625,1.39541015625,1.4115234375,1.44697265625,1.47275390625,1.48564453125,1.5275390625,1.60166015625,1.64677734375,1.637109375,1.5984375,1.56943359375,1.56943359375,1.585546875,1.5662109375,1.5146484375,1.47275390625,1.4630859375,1.4630859375,1.44697265625,1.4244140625,1.41474609375,1.36318359375,1.276171875,1.4115234375,2.04638671875,2.81982421875,2.83271484375,1.87880859375,0.9603515625,0.9603515625,1.45986328125,1.637109375,1.49208984375,1.45986328125,1.57265625,1.62099609375,1.6048828125,1.5984375,1.59521484375,1.59521484375,1.60166015625,1.5984375,1.6048828125,1.63388671875,1.662890625,1.67900390625,1.69833984375,1.72412109375,1.7466796875,1.7982421875,1.8626953125,1.88203125,1.88525390625,1.91748046875,1.92392578125,1.85947265625,1.7724609375,1.69833984375,1.6177734375,1.53720703125,1.48564453125,1.45986328125,1.45341796875,1.44375,1.4115234375,1.38251953125,1.3921875,1.40830078125,1.38896484375,1.35029296875,1.33740234375,1.3470703125,1.3599609375,1.36640625,1.36318359375,1.36318359375,1.3921875,1.4244140625,1.42119140625,1.40185546875,1.4244140625,1.4759765625,1.5017578125,1.49208984375,1.47919921875,1.47919921875,1.49208984375,1.50498046875,1.49853515625,1.47919921875,1.46630859375,1.45341796875,1.44375,1.4501953125,1.4501953125,1.42763671875,1.39541015625,1.3921875,1.4115234375,1.4244140625,1.430859375,1.44697265625,1.48564453125,1.54365234375,1.585546875,1.59521484375,1.60166015625,1.62421875,1.62421875,1.58876953125,1.55654296875,1.5404296875,1.51787109375,1.49853515625,1.49853515625,1.482421875,1.4501953125,1.45341796875,1.46630859375,1.3857421875,1.2955078125,1.57587890625,2.35576171875,2.96484375,2.56201171875,1.42763671875,0.8056640625,1.147265625,1.61455078125,1.58876953125,1.43408203125,1.4953125,1.58876953125,1.58232421875,1.58232421875,1.60810546875,1.60810546875,1.611328125,1.63388671875,1.637109375,1.637109375,1.65966796875,1.6822265625,1.7015625,1.7337890625,1.766015625,1.78857421875,1.8240234375,1.869140625,1.89169921875,1.894921875,1.9013671875,1.87880859375,1.80146484375,1.714453125,1.65322265625,1.60810546875,1.5533203125,1.5017578125,1.45986328125,1.44052734375,1.43408203125,1.4244140625,1.405078125,1.3921875,1.38896484375,1.3857421875,1.38896484375,1.3921875,1.379296875,1.35673828125,1.353515625,1.36318359375,1.36640625,1.36318359375,1.36318359375,1.36962890625,1.3986328125,1.42763671875,1.4373046875,1.44052734375,1.4630859375,1.482421875,1.4888671875,1.4953125,1.4953125,1.47275390625,1.4501953125,1.45986328125,1.482421875,1.4759765625,1.44052734375,1.4244140625,1.4244140625,1.41796875,1.40185546875,1.3921875,1.3921875,1.4115234375,1.4373046875,1.45986328125,1.4953125,1.546875,1.57587890625,1.57265625,1.5791015625,1.5919921875,1.58876953125,1.585546875,1.57265625,1.52431640625,1.47275390625,1.47919921875,1.5017578125,1.47919921875,1.45341796875,1.45341796875,1.41796875,1.3083984375,1.3728515625,1.920703125,2.71669921875,2.91328125,2.07861328125,1.018359375,0.82177734375,1.327734375,1.60810546875,1.46630859375,1.40185546875,1.5275390625,1.5791015625,1.559765625,1.60166015625,1.64677734375,1.63388671875,1.62744140625,1.65322265625,1.66611328125,1.662890625,1.67578125,1.6951171875,1.70478515625,1.72412109375,1.7724609375,1.83369140625,1.87236328125,1.88203125,1.88203125,1.89814453125,1.9013671875,1.85947265625,1.76923828125,1.67578125,1.611328125,1.546875,1.47919921875,1.4501953125,1.46630859375,1.4630859375,1.42119140625,1.3986328125,1.4244140625,1.45341796875,1.44052734375,1.3986328125,1.36962890625,1.36640625,1.36962890625,1.36640625,1.36640625,1.3599609375,1.3470703125,1.35029296875,1.38251953125,1.4115234375,1.41474609375,1.405078125,1.41474609375,1.4373046875,1.45341796875,1.4630859375,1.482421875,1.50498046875,1.508203125,1.49853515625,1.4953125,1.47919921875,1.456640625,1.4501953125,1.456640625,1.4630859375,1.4630859375,1.44052734375,1.40830078125,1.40185546875,1.42119140625,1.4244140625,1.42119140625,1.4630859375,1.53720703125,1.585546875,1.5984375,1.59521484375,1.57265625,1.55654296875,1.5662109375,1.585546875,1.55654296875,1.5017578125,1.482421875,1.508203125,1.52431640625,1.508203125,1.49853515625,1.47919921875,1.38251953125,1.31484375,1.61455078125,2.384765625,3.01318359375,2.64580078125,1.46630859375,0.73154296875,1.04091796875,1.57265625,1.58232421875,1.40185546875,1.456640625,1.57265625,1.57587890625,1.58232421875,1.62421875,1.64033203125,1.64033203125,1.65966796875,1.67255859375,1.67900390625,1.69833984375,1.73056640625,1.753125,1.7724609375,1.7982421875,1.8240234375,1.843359375,1.87236328125,1.90458984375,1.9142578125,1.89814453125,1.87880859375,1.83369140625,1.74990234375,1.65,1.5791015625,1.52109375,1.46953125,1.44052734375,1.4373046875,1.44052734375,1.44697265625,1.4501953125,1.44375,1.4373046875,1.43408203125,1.42119140625,1.40185546875,1.39541015625,1.38896484375,1.37607421875,1.35673828125,1.35029296875,1.36318359375,1.38251953125,1.38251953125,1.36318359375,1.36640625,1.40830078125,1.44697265625,1.4373046875,1.4244140625,1.4630859375,1.49853515625,1.48564453125,1.4759765625,1.51142578125,1.53076171875,1.4953125,1.456640625,1.45986328125,1.4759765625,1.46630859375,1.430859375,1.39541015625,1.3986328125,1.44052734375,1.4630859375,1.45986328125,1.46953125,1.50498046875,1.533984375,1.53076171875,1.51142578125,1.50498046875,1.53076171875,1.53076171875,1.48564453125,1.45986328125,1.4888671875,1.508203125,1.4759765625,1.45341796875,1.482421875,1.48564453125,1.37607421875,1.31806640625,1.70478515625,2.5330078125,3.003515625,2.384765625,1.21171875,0.708984375,1.1021484375,1.50498046875,1.44375,1.31162109375,1.38896484375,1.4888671875,1.5017578125,1.50498046875,1.52109375,1.5533203125,1.6048828125,1.6435546875,1.63388671875,1.6306640625,1.66611328125,1.69833984375,1.714453125,1.74345703125,1.78857421875,1.82080078125,1.843359375,1.8498046875,1.84658203125,1.84658203125,1.84013671875,1.78857421875,1.69189453125,1.60166015625,1.52431640625,1.4373046875,1.37607421875,1.36318359375,1.340625,1.31484375,1.3341796875,1.37607421875,1.3728515625,1.33740234375,1.340625
1.51787109375,1.3986328125,1.43408203125,1.98193359375,2.8552734375,3.1259765625,2.2236328125,1.00869140625,0.73798828125,1.28583984375,1.5984375,1.41796875,1.29873046875,1.40185546875,1.45986328125,1.41796875,1.4115234375,1.46953125,1.533984375,1.57587890625,1.5919921875,1.62099609375,1.67255859375,1.71767578125,1.740234375,1.766015625,1.80146484375,1.8498046875,1.91748046875,1.96904296875,1.96904296875,1.94970703125,1.94326171875,1.9142578125,1.84013671875,1.766015625,1.68544921875,1.55009765625,1.405078125,1.353515625,1.3728515625,1.36318359375,1.31162109375,1.2890625,1.32451171875,1.36640625,1.379296875,1.3857421875,1.4115234375,1.44375,1.44697265625,1.42763671875,1.430859375,1.4501953125,1.44375,1.405078125,1.379296875,1.39541015625,1.4115234375,1.3921875,1.35029296875,1.340625,1.35673828125,1.34384765625,1.3212890625,1.3470703125,1.39541015625,1.40830078125,1.39541015625,1.40185546875,1.4373046875,1.48564453125,1.5146484375,1.52109375,1.5275390625,1.57265625,1.6306640625,1.65,1.611328125,1.559765625,1.53720703125,1.53076171875,1.47919921875,1.405078125,1.3857421875,1.42763671875,1.44697265625,1.3921875,1.3470703125,1.3857421875,1.42119140625,1.3470703125,1.26328125,1.44375,2.04638671875,2.75859375,2.85849609375,2.0173828125,1.02158203125,0.889453125,1.40830078125,1.66611328125,1.5404296875,1.508203125,1.59521484375,1.56943359375,1.49853515625,1.508203125,1.546875,1.546875,1.54365234375,1.57587890625,1.61455078125,1.62421875,1.611328125,1.62421875,1.688671875,1.78857421875,1.86591796875,1.90458984375,1.92392578125,1.972265625,2.0302734375,2.03671875,2.00126953125,1.96904296875,1.920703125,1.79501953125,1.6435546875,1.546875,1.49853515625,1.44697265625,1.3986328125,1.3599609375,1.340625,1.35029296875,1.36962890625,1.35029296875,1.3212890625,1.33740234375,1.35029296875,1.33095703125,1.340625,1.3857421875,1.40185546875,1.405078125,1.4630859375,1.50498046875,1.47275390625,1.456640625,1.49208984375,1.4888671875,1.4630859375,1.508203125,1.52431640625,1.42119140625,1.41796875,1.53720703125,1.3212890625,0.8056640625,0.7798828125,1.3599609375,1.66611328125,1.42119140625,1.2890625,1.4373046875,1.47275390625,1.38896484375,1.43408203125,1.54365234375,1.58876953125,1.59521484375,1.6048828125,1.59521484375,1.5919921875,1.61455078125,1.637109375,1.61455078125,1.55654296875,1.508203125,1.4888671875,1.4759765625,1.45986328125,1.44697265625,1.456640625,1.45986328125,1.38896484375,1.29228515625,1.508203125,2.24619140625,2.9712890625,2.79404296875,1.72734375,0.8765625,0.98291015625,1.4953125,1.637109375,1.49853515625,1.4953125,1.6048828125,1.6435546875,1.62099609375,1.5984375,1.5919921875,1.6177734375,1.65,1.6435546875,1.63388671875,1.65966796875,1.6951171875,1.71123046875,1.74345703125,1.78212890625,1.78857421875,1.791796875,1.83369140625,1.89814453125,1.93037109375,1.93037109375,1.920703125,1.9013671875,1.83369140625,1.73056640625,1.62744140625,1.5533203125,1.5146484375,1.508203125,1.4888671875,1.44052734375,1.405078125,1.3986328125,1.3986328125,1.38896484375,1.38896484375,1.38896484375,1.38896484375,1.38251953125,1.3470703125,1.30517578125,1.31806640625,1.37607421875,1.3986328125,1.36640625,1.340625,1.36962890625,1.42119140625,1.4501953125,1.45341796875,1.45986328125,1.47275390625,1.4759765625,1.482421875,1.5017578125,1.49853515625,1.4630859375,1.45986328125,1.49208984375,1.47919921875,1.42763671875,1.405078125,1.42119140625,1.4373046875,1.44052734375,1.4244140625,1.3921875,1.38896484375,1.42119140625,1.46630859375,1.49853515625,1.51787109375,1.53076171875,1.55654296875,1.58232421875,1.5984375,1.60810546875,1.62099609375,1.6177734375,1.57265625,1.508203125,1.47919921875,1.49853515625,1.508203125,1.4759765625,1.44375,1.456640625,1.45986328125,1.36962890625,1.26005859375,1.4630859375,2.18818359375,2.951953125,2.83916015625,1.76279296875,0.86044921875,0.97646484375,1.51787109375,1.62421875,1.430859375,1.44052734375,1.57587890625,1.58876953125,1.54365234375,1.5662109375,1.6177734375,1.63388671875,1.62421875,1.6177734375,1.62421875,1.64677734375,1.6693359375,1.68544921875,1.714453125,1.75634765625,1.78857421875,1.80791015625,1.83046875,1.869140625,1.93359375,1.96904296875,1.93037109375,1.869140625,1.817578125,1.740234375,1.637109375,1.56298828125,1.50498046875,1.44052734375,1.40830078125,1.41474609375,1.42119140625,1.40185546875,1.38251953125,1.37607421875,1.37607421875,1.379296875,1.3728515625,1.353515625,1.3341796875,1.33740234375,1.35029296875,1.36318359375,1.36962890625,1.36640625,1.36318359375,1.3728515625,1.40185546875,1.4244140625,1.430859375,1.4501953125,1.4888671875,1.49208984375,1.4501953125,1.44052734375,1.49208984375,1.52109375,1.482421875,1.4373046875,1.44052734375,1.44375,1.41474609375,1.405078125,1.430859375,1.42119140625,1.36962890625,1.36962890625,1.42119140625,1.4244140625,1.379296875,1.3857421875,1.44375,1.4888671875,1.51787109375,1.5533203125,1.585546875,1.61455078125,1.64677734375,1.64033203125,1.60810546875,1.59521484375,1.5791015625,1.5275390625,1.4888671875,1.482421875,1.46953125,1.44052734375,1.43408203125,1.44375,1.4501953125,1.40830078125,1.31162109375,1.31484375,1.72734375,2.52333984375,3.01962890625,2.52333984375,1.40830078125,0.82822265625,1.16337890625,1.60810546875,1.58876953125,1.45986328125,1.56298828125,1.65966796875,1.58876953125,1.54365234375,1.60166015625,1.63388671875,1.611328125,1.6177734375,1.64033203125,1.65,1.66611328125,1.7015625,1.714453125,1.7208984375,1.766015625,1.8240234375,1.85947265625,1.9013671875,1.96259765625,1.98515625,1.98193359375,2.00126953125,1.98515625,1.869140625,1.7337890625,1.65,1.5662109375,1.48564453125,1.4759765625,1.47919921875,1.4244140625,1.36962890625,1.37607421875,1.38251953125,1.353515625,1.3470703125,1.35673828125,1.3341796875,1.30517578125,1.327734375,1.35673828125,1.35029296875,1.353515625,1.3857421875,1.39541015625,1.38251953125,1.3986328125,1.4373046875,1.4630859375,1.46630859375,1.46953125,1.4888671875,1.5017578125,1.4953125,1.4759765625,1.45986328125,1.44375,1.430859375,1.42119140625,1.41474609375,1.41474609375,1.41474609375,1.3986328125,1.36640625,1.36640625,1.3921875,1.39541015625,1.39541015625,1.430859375,1.47919921875,1.4953125,1.52431640625,1.5984375,1.65966796875,1.662890625,1.62099609375,1.5791015625,1.5662109375,1.5919921875,1.59521484375,1.5146484375,1.42763671875,1.430859375,1.47919921875,1.45986328125,1.405078125,1.3986328125,1.405078125,1.340625,1.26650390625,1.44697265625,2.0818359375,2.82626953125,2.86494140625,1.9271484375,0.941015625,0.90234375,1.46953125,1.688671875,1.52109375,1.48564453125,1.5919921875,1.5919921875,1.5404296875,1.56943359375,1.61455078125,1.61455078125,1.59521484375,1.58876953125,1.60166015625,1.62744140625,1.64033203125,1.64677734375,1.67900390625,1.74345703125,1.7982421875,1.817578125,1.84013671875,1.89814453125,1.96904296875,1.98837890625,1.9658203125,1.93037109375,1.86591796875,1.753125,1.65966796875,1.62421875,1.57587890625,1.48564453125,1.40830078125,1.40185546875,1.430859375,1.42763671875,1.3921875,1.34384765625,1.31806640625,1.327734375,1.35673828125,1.35673828125,1.327734375,1.33740234375,1.37607421875,1.379296875,1.3728515625,1.3986328125,1.42119140625,1.41796875,1.42763671875,1.456640625,1.47275390625,1.47275390625,1.4759765625,1.48564453125,1.5017578125,1.50498046875,1.46953125,1.430859375,1.4373046875,1.44697265625,1.4244140625,1.405078125,1.3986328125,1.3986328125,1.405078125,1.40185546875,1.379296875,1.37607421875,1.42119140625,1.45341796875,1.43408203125,1.42763671875,1.4888671875,1.546875,1.546875,1.5275390625,1.559765625,1.60810546875,1.62421875,1.63388671875,1.66611328125,1.662890625,1.59521484375,1.533984375,1.5275390625,1.52109375,1.47275390625,1.430859375,1.4244140625,1.42763671875,1.40830078125,1.3921875,1.4115234375,1.430859375,1.379296875,1.3470703125,1.58876953125,2.2751953125,2.9712890625,2.84560546875,1.7982421875,0.928125,1.05703125,1.58876953125,1.69189453125,1.50498046875,1.48564453125,1.5791015625,1.585546875,1.533984375,1.5146484375,1.53076171875,1.54365234375,1.55009765625,1.5662109375,1.58876953125,1.60166015625,1.62099609375,1.66611328125,1.73056640625,1.79501953125,1.84658203125,1.88203125,1.93681640625,2.0109375,2.05283203125,2.06572265625,2.049609375,1.98193359375,1.894921875,1.81435546875,1.69189453125,1.52109375,1.4373046875,1.47275390625,1.46630859375,1.36962890625,1.301953125,1.3083984375,1.3083984375,1.28583984375,1.2890625,1.3212890625,1.3470703125,1.3728515625,1.38896484375,1.3857421875,1.3857421875,1.4115234375,1.44052734375,1.45341796875,1.4630859375,1.46953125,1.46630859375,1.46630859375,1.4630859375,1.44697265625,1.43408203125,1.430859375,1.4244140625,1.41474609375,1.40830078125,1.3857421875,1.340625,1.33095703125,1.36318359375,1.3728515625,1.3470703125,1.353515625,1.405078125,1.4373046875,1.4501953125,1.4630859375,1.482421875,1.49853515625,1.53720703125,1.585546875,1.611328125,1.6177734375,1.60810546875,1.5984375,1.60166015625,1.58876953125,1.5404296875,1.5017578125,1.49853515625,1.456640625,1.3728515625,1.35029296875,1.39541015625,1.40830078125,1.40185546875,1.41796875,1.38896484375,1.31162109375,1.44375,2.0044921875,2.7134765625,2.85849609375,2.0947265625,1.10537109375,0.889453125,1.38251953125,1.69189453125,1.56943359375,1.48564453125,1.57587890625,1.5919921875,1.533984375,1.55009765625,1.58876953125,1.56298828125,1.53076171875,1.56298828125,1.62421875,1.6435546875,1.62099609375,1.6306640625,1.7015625,1.7724609375,1.80146484375,1.83046875,1.90458984375,1.98515625,2.02060546875,2.02705078125,2.04638671875,2.0302734375,1.920703125,1.76279296875,1.64677734375,1.585546875,1.53076171875,1.4501953125,1.3857421875,1.36640625,1.36640625,1.340625,1.301953125,1.30517578125,1.33095703125,1.31806640625,1.29228515625,1.31484375,1.35673828125,1.3599609375,1.340625,1.3599609375,1.42119140625,1.47275390625,1.4888671875,1.47919921875,1.46953125,1.47919921875,1.482421875,1.47919921875,1.47275390625,1.46630859375,1.44697265625,1.430859375,1.430859375,1.430859375,1.41474609375,1.3986328125,1.38251953125,1.3728515625,1.3921875,1.42119140625,1.4115234375,1.3921875,1.41474609375,1.45341796875,1.46630859375,1.4888671875,1.53720703125,1.56298828125,1.57587890625,1.62421875,1.6693359375,1.64677734375,1.5919921875,1.57587890625,1.5984375,1.5919921875,1.53720703125,1.456640625,1.41796875,1.44052734375,1.46630859375,1.43408203125,1.38896484375,1.38896484375,1.39541015625,1.327734375,1.29873046875,1.59521484375,2.3138671875,2.9455078125,2.73603515625,1.7208984375,0.93134765625,1.08603515625,1.611328125,1.69833984375,1.4888671875,1.46953125,1.57265625,1.5662109375,1.52109375,1.5404296875,1.57265625,1.58232421875,1.6048828125,1.61455078125,1.59521484375,1.58232421875,1.61455078125,1.6822265625,1.73701171875,1.75634765625,1.77890625,1.8626953125,1.96259765625,1.98837890625,1.98515625,2.04638671875,2.0818359375,1.99482421875,1.85302734375,1.74990234375,1.65322265625,1.55009765625,1.48564453125,1.45341796875,1.405078125,1.3599609375,1.340625,1.3341796875,1.327734375,1.3212890625,1.31484375,1.31484375,1.32451171875,1.3341796875,1.33740234375,1.353515625,1.3728515625,1.3857421875,1.39541015625,1.4115234375,1.4373046875,1.46630859375,1.47275390625,1.45986328125,1.45986328125,1.47919921875,1.4759765625,1.45341796875,1.44697265625,1.45341796875,1.4373046875,1.40830078125,1.39541015625,1.39541015625,1.38251953125,1.36640625,1.37607421875,1.38251953125,1.3599609375,1.36318359375,1.4115234375,1.44697265625,1.456640625,1.48564453125,1.55009765625,1.60810546875,1.64033203125,1.65,1.61455078125,1.5533203125,1.546875,1.56943359375,1.53720703125,1.46630859375,1.43408203125,1.44375,1.44052734375,1.4115234375,1.3986328125,1.4115234375,1.3857421875,1.2826171875,1.31806640625,1.8240234375,2.668359375,3.0421875,2.3654296875,1.2181640625,0.7669921875,1.198828125,1.64033203125,1.5919921875,1.4501953125,1.5275390625,1.62099609375,1.5919921875,1.56298828125,1.58232421875,1.5984375,1.59521484375,1.611328125,1.63388671875,1.63388671875,1.62744140625,1.65,1.69833984375,1.740234375,1.76923828125,1.8046875,1.85947265625,1.91748046875,1.959375,1.97548828125,1.9787109375,1.97548828125,1.92392578125,1.81435546875,1.69833984375,1.62744140625,1.5662109375,1.4888671875,1.43408203125,1.42763671875,1.42119140625,1.38896484375,1.36318359375,1.37607421875,1.36962890625,1.33095703125,1.30517578125,1.31806640625,1.3341796875,1.3341796875,1.340625,1.35029296875,1.353515625,1.3599609375,1.3728515625,1.405078125,1.43408203125,1.4501953125,1.45341796875,1.45341796875,1.4630859375,1.48564453125,1.5017578125,1.48564453125,1.4630859375,1.45341796875,1.44697265625,1.4373046875,1.42763671875,1.4115234375,1.3921875,1.3857421875,1.42763671875,1.508203125,1.53720703125,1.4953125,1.46953125,1.47919921875,1.47275390625,1.45341796875,1.46630859375,1.4759765625,1.456640625,1.44375,1.45986328125,1.48564453125,1.51787109375,1.55009765625,1.53076171875,1.4244140625,1.327734375,1.53076171875,2.2171875,2.94228515625,2.84560546875,1.7982421875,0.85078125,0.87333984375,1.38896484375,1.533984375,1.35673828125,1.35673828125,1.4953125,1.49853515625,1.44052734375,1.48564453125,1.5791015625,1.62421875,1.63388671875,1.6435546875,1.66611328125,1.72734375,1.78857421875,1.78857421875,1.753125,1.77890625,1.85302734375,1.9013671875,1.9013671875,1.9142578125,1.946484375,1.959375,1.93037109375,1.85947265625,1.740234375,1.611328125,1.51787109375,1.4630859375,1.40830078125,1.36318359375,1.3599609375,1.3921875,1.41796875,1.43408203125,1.4373046875,1.430859375,1.4244140625,1.4373046875,1.456640625,1.45986328125,1.45341796875,1.4501953125,1.44052734375,1.42763671875,1.40185546875,1.379296875,1.379296875,1.38896484375,1.37607421875,1.35673828125,1.36962890625,1.379296875,1.36318359375,1.38896484375,1.44052734375,1.43408203125,1.405078125,1.44375,1.50498046875,1.5017578125,1.482421875,1.49853515625,1.533984375,1.5404296875,1.52431640625,1.51787109375,1.546875,1.585546875,1.58876953125,1.559765625,1.5275390625,1.4953125,1.46953125,1.4630859375,1.45341796875,1.41796875,1.3857421875,1.3857421875,1.3986328125,1.3986328125,1.42763671875,1.49208984375,1.50498046875,1.4115234375,1.3921875,1.74345703125,2.462109375,2.9970703125,2.69736328125,1.688671875,0.94423828125,1.0634765625,1.51787109375,1.60166015625,1.44052734375,1.43408203125,1.5146484375,1.49208984375,1.4630859375,1.50498046875,1.5275390625,1.5146484375,1.5275390625,1.57265625,1.61455078125,1.65322265625,1.69189453125,1.740234375,1.8046875,1.869140625,1.920703125,1.96904296875,2.00771484375,2.02705078125,2.0302734375,2.0109375,1.9658203125,1.90458984375,1.8111328125,1.67578125,1.56298828125,1.5017578125,1.44375,1.35673828125,1.29873046875,1.29228515625,1.30517578125,1.31162109375,1.31806640625,1.33740234375,1.3599609375,1.38896484375,1.4244140625,1.4373046875,1.430859375,1.44375,1.47919921875,1.48564453125,1.4630859375,1.45986328125,1.46630859375,1.44052734375,1.405078125,1.3986328125,1.40185546875,1.379296875,1.36318359375,1.36962890625,1.36640625,1.353515625,1.35673828125,1.36962890625,1.3728515625,1.3728515625,1.3986328125,1.42763671875,1.43408203125,1.4501953125,1.508203125,1.5662109375,1.58232421875,1.58876953125,1.60810546875,1.60810546875,1.57587890625,1.559765625,1.55654296875,1.5146484375,1.41796875,1.353515625,1.3728515625,1.4115234375,1.38896484375,1.3470703125,1.35029296875,1.36318359375,1.3083984375,1.24072265625,1.4759765625,2.2171875,2.96806640625,2.78759765625,1.64677734375,0.78955078125,1.0119140625,1.585546875,1.65322265625,1.44052734375,1.44375,1.55654296875,1.546875,1.49208984375,1.51787109375,1.57265625,1.58232421875,1.55654296875,1.55009765625,1.57265625,1.585546875,1.59521484375,1.6435546875,1.71123046875,1.75634765625,1.76923828125,1.817578125,1.920703125,1.998046875,2.00126953125,1.98515625,1.9916015625,1.959375,1.8626953125,1.74345703125,1.63388671875,1.53720703125,1.482421875,1.46630859375,1.42763671875,1.36640625,1.340625,1.353515625,1.35029296875,1.33095703125,1.33095703125,1.353515625,1.3599609375,1.353515625,1.35673828125,1.379296875,1.39541015625,1.405078125,1.42119140625,1.44375,1.46630859375,1.49208984375,1.51787109375,1.53076171875,1.53076171875,1.5404296875,1.546875,1.533984375,1.52431640625,1.53720703125,1.51787109375,1.47919921875,1.49853515625,1.55009765625,1.54365234375,1.52109375,1.57265625,1.637109375,1.637109375,1.6177734375,1.62099609375,1.62099609375,1.637109375,1.65322265625
1.70478515625,1.6177734375,1.5662109375,1.51787109375,1.45986328125,1.4244140625,1.44375,1.47919921875,1.482421875,1.456640625,1.45341796875,1.47919921875,1.49208984375,1.4759765625,1.4630859375,1.456640625,1.4373046875,1.42763671875,1.42763671875,1.4115234375,1.3857421875,1.3921875,1.4115234375,1.40185546875,1.3728515625,1.37607421875,1.4115234375,1.430859375,1.44052734375,1.46953125,1.49853515625,1.4953125,1.48564453125,1.508203125,1.52109375,1.51787109375,1.533984375,1.56298828125,1.56298828125,1.56298828125,1.585546875,1.59521484375,1.57587890625,1.5533203125,1.5404296875,1.51787109375,1.49208984375,1.44697265625,1.3921875,1.379296875,1.42119140625,1.44375,1.4244140625,1.430859375,1.4888671875,1.49208984375,1.40830078125,1.4244140625,1.8111328125,2.55234375,3.0228515625,2.51689453125,1.37607421875,0.83466796875,1.25361328125,1.67255859375,1.53720703125,1.35673828125,1.44375,1.51142578125,1.47275390625,1.482421875,1.5146484375,1.50498046875,1.52109375,1.5662109375,1.5984375,1.637109375,1.69189453125,1.72412109375,1.753125,1.82080078125,1.8884765625,1.93037109375,1.96904296875,1.99482421875,1.99482421875,1.998046875,1.98193359375,1.9078125,1.78857421875,1.67578125,1.57587890625,1.4888671875,1.430859375,1.379296875,1.3212890625,1.3083984375,1.340625,1.36318359375,1.34384765625,1.340625,1.38251953125,1.40185546875,1.40185546875,1.42119140625,1.4630859375,1.482421875,1.48564453125,1.482421875,1.46953125,1.4630859375,1.46630859375,1.45986328125,1.44375,1.43408203125,1.42763671875,1.41474609375,1.40185546875,1.3857421875,1.379296875,1.38896484375,1.3986328125,1.38251953125,1.3599609375,1.38251953125,1.43408203125,1.4759765625,1.49208984375,1.51142578125,1.54365234375,1.58876953125,1.62421875,1.637109375,1.62099609375,1.59521484375,1.5791015625,1.56943359375,1.533984375,1.46630859375,1.42763671875,1.4244140625,1.41474609375,1.3986328125,1.40185546875,1.405078125,1.37607421875,1.31162109375,1.3212890625,1.70478515625,2.47822265625,2.94873046875,2.4169921875,1.32451171875,0.82822265625,1.1859375,1.58876953125,1.57587890625,1.47275390625,1.53076171875,1.58232421875,1.546875,1.54365234375,1.585546875,1.59521484375,1.5662109375,1.55654296875,1.58876953125,1.62421875,1.63388671875,1.62744140625,1.65322265625,1.7080078125,1.7595703125,1.8111328125,1.8626953125,1.89814453125,1.920703125,1.93681640625,1.94326171875,1.9142578125,1.84658203125,1.7466796875,1.64677734375,1.57587890625,1.5275390625,1.482421875,1.430859375,1.39541015625,1.3857421875,1.379296875,1.36318359375,1.34384765625,1.340625,1.34384765625,1.35673828125,1.3599609375,1.3470703125,1.3341796875,1.3599609375,1.40185546875,1.4244140625,1.42763671875,1.4244140625,1.430859375,1.4630859375,1.49853515625,1.5017578125,1.46953125,1.45341796875,1.482421875,1.50498046875,1.46630859375,1.405078125,1.40830078125,1.45341796875,1.45986328125,1.41474609375,1.37607421875,1.36962890625,1.3857421875,1.41796875,1.44375,1.456640625,1.47919921875,1.5275390625,1.56943359375,1.5791015625,1.56298828125,1.55654296875,1.57587890625,1.5919921875,1.559765625,1.49853515625,1.46630859375,1.46630859375,1.46630859375,1.4630859375,1.46630859375,1.45986328125,1.40830078125,1.31162109375,1.327734375,1.766015625,2.5974609375,3.05185546875,2.40732421875,1.20849609375,0.72509765625,1.16982421875,1.585546875,1.50498046875,1.38896484375,1.5017578125,1.57265625,1.5275390625,1.55009765625,1.6177734375,1.62421875,1.62421875,1.6693359375,1.68544921875,1.662890625,1.6693359375,1.7015625,1.7208984375,1.74990234375,1.7982421875,1.84658203125,1.869140625,1.88203125,1.90458984375,1.920703125,1.90458984375,1.85302734375,1.77568359375,1.6951171875,1.61455078125,1.5404296875,1.4953125,1.47919921875,1.4759765625,1.46630859375,1.4501953125,1.43408203125,1.41796875,1.41474609375,1.41474609375,1.39541015625,1.3728515625,1.38251953125,1.3986328125,1.379296875,1.3599609375,1.3728515625,1.3857421875,1.36640625,1.35029296875,1.353515625,1.36640625,1.405078125,1.4501953125,1.45341796875,1.4373046875,1.456640625,1.5017578125,1.5146484375,1.4888671875,1.46630859375,1.46630859375,1.48564453125,1.4953125,1.47275390625,1.44375,1.4373046875,1.44697265625,1.44375,1.44375,1.46953125,1.51142578125,1.53076171875,1.52109375,1.5017578125,1.4953125,1.5017578125,1.50498046875,1.47275390625,1.44697265625,1.46953125,1.4953125,1.48564453125,1.47919921875,1.49853515625,1.52109375,1.5017578125,1.4115234375,1.379296875,1.72412109375,2.51689453125,3.08408203125,2.591015625,1.36962890625,0.72509765625,1.0763671875,1.51787109375,1.47275390625,1.34384765625,1.43408203125,1.51787109375,1.49853515625,1.5146484375,1.56943359375,1.585546875,1.5791015625,1.611328125,1.6693359375,1.714453125,1.73701171875,1.766015625,1.80146484375,1.83046875,1.85302734375,1.88203125,1.90458984375,1.9078125,1.89814453125,1.90458984375,1.9078125,1.86591796875,1.76279296875,1.637109375,1.546875,1.48564453125,1.4373046875,1.39541015625,1.36962890625,1.3599609375,1.36640625,1.39541015625,1.43408203125,1.4501953125,1.44697265625,1.44375,1.44697265625,1.44697265625,1.44052734375,1.42763671875,1.40830078125,1.3986328125,1.405078125,1.40185546875,1.379296875,1.36962890625,1.379296875,1.38251953125,1.35673828125,1.340625,1.3599609375,1.39541015625,1.42119140625,1.43408203125,1.430859375,1.44375,1.4888671875,1.53076171875,1.5146484375,1.47919921875,1.49208984375,1.5275390625,1.5275390625,1.51142578125,1.533984375,1.559765625,1.5662109375,1.5662109375,1.559765625,1.5275390625,1.48564453125,1.4759765625,1.4759765625,1.430859375,1.38251953125,1.40185546875,1.44375,1.43408203125,1.41796875,1.45341796875,1.4953125,1.4630859375,1.405078125,1.55009765625,2.08828125,2.745703125,2.81337890625,2.0044921875,1.05703125,0.89267578125,1.3470703125,1.60810546875,1.4953125,1.40185546875,1.4501953125,1.48564453125,1.482421875,1.49208984375,1.51787109375,1.53720703125,1.546875,1.57587890625,1.64033203125,1.69189453125,1.69833984375,1.71767578125,1.791796875,1.87236328125,1.91748046875,1.946484375,1.9658203125,1.98515625,2.0044921875,1.9916015625,1.93359375,1.85302734375,1.7595703125,1.6435546875,1.5275390625,1.45341796875,1.40830078125,1.36640625,1.32451171875,1.31806640625,1.340625,1.35029296875,1.34384765625,1.35029296875,1.38896484375,1.430859375,1.4501953125,1.4501953125,1.45986328125,1.4953125,1.508203125,1.4759765625,1.44052734375,1.44375,1.4630859375,1.45986328125,1.44697265625,1.43408203125,1.42119140625,1.3986328125,1.3857421875,1.3857421875,1.37607421875,1.35673828125,1.36640625,1.3986328125,1.40830078125,1.40185546875,1.430859375,1.48564453125,1.508203125,1.49208984375,1.48564453125,1.508203125,1.533984375,1.55009765625,1.5662109375,1.59521484375,1.62099609375,1.63388671875,1.6177734375,1.559765625,1.49853515625,1.47919921875,1.4888671875,1.46630859375,1.38896484375,1.35029296875,1.3857421875,1.4244140625,1.41474609375,1.41474609375,1.4244140625,1.36962890625,1.340625,1.65,2.3654296875,2.92939453125,2.6619140625,1.6822265625,0.9474609375,1.069921875,1.5404296875,1.6435546875,1.47275390625,1.43408203125,1.5146484375,1.5275390625,1.49853515625,1.49853515625,1.51142578125,1.51787109375,1.53720703125,1.56943359375,1.6048828125,1.63388671875,1.6564453125,1.7015625,1.77890625,1.84013671875,1.8755859375,1.91748046875,1.96904296875,2.0044921875,2.0173828125,2.02705078125,1.998046875,1.89169921875,1.75634765625,1.65966796875,1.57265625,1.46953125,1.40185546875,1.3857421875,1.379296875,1.34384765625,1.31162109375,1.301953125,1.31484375,1.3341796875,1.340625,1.34384765625,1.37607421875,1.42119140625,1.4373046875,1.42763671875,1.44375,1.47919921875,1.482421875,1.46630859375,1.4630859375,1.4630859375,1.44052734375,1.44052734375,1.47275390625,1.4759765625,1.43408203125,1.3986328125,1.3986328125,1.40185546875,1.3921875,1.38251953125,1.38251953125,1.39541015625,1.41474609375,1.41796875,1.40830078125,1.43408203125,1.4888671875,1.5017578125,1.46953125,1.49208984375,1.56298828125,1.6048828125,1.62099609375,1.6435546875,1.63388671875,1.585546875,1.55654296875,1.56943359375,1.54365234375,1.45986328125,1.3986328125,1.3986328125,1.41474609375,1.40185546875,1.39541015625,1.4244140625,1.4244140625,1.33095703125,1.2890625,1.62421875,2.36865234375,2.91650390625,2.5845703125,1.5791015625,0.9216796875,1.1279296875,1.5791015625,1.6435546875,1.50498046875,1.51142578125,1.58232421875,1.55654296875,1.52431640625,1.546875,1.5662109375,1.5662109375,1.57265625,1.5791015625,1.59521484375,1.62099609375,1.6435546875,1.65966796875,1.6951171875,1.76923828125,1.843359375,1.88203125,1.9078125,1.946484375,1.97548828125,1.972265625,1.946484375,1.88525390625,1.7724609375,1.65322265625,1.585546875,1.546875,1.49208984375,1.43408203125,1.3986328125,1.36640625,1.340625,1.3341796875,1.33095703125,1.3212890625,1.327734375,1.353515625,1.36640625,1.38251953125,1.40830078125,1.3986328125,1.37607421875,1.405078125,1.46630859375,1.482421875,1.4630859375,1.46630859375,1.4888671875,1.49853515625,1.49853515625,1.49853515625,1.4759765625,1.4373046875,1.42763671875,1.44052734375,1.43408203125,1.405078125,1.39541015625,1.40830078125,1.40830078125,1.3986328125,1.39541015625,1.39541015625,1.4115234375,1.44697265625,1.47275390625,1.48564453125,1.53076171875,1.60166015625,1.64677734375,1.637109375,1.5984375,1.56943359375,1.56943359375,1.585546875,1.5662109375,1.5146484375,1.46953125,1.4630859375,1.4630859375,1.44697265625,1.4244140625,1.41474609375,1.36318359375,1.276171875,1.40830078125,2.0431640625,2.81982421875,2.83271484375,1.8755859375,0.9603515625,0.95712890625,1.45986328125,1.637109375,1.4888671875,1.45986328125,1.56943359375,1.62099609375,1.6048828125,1.59521484375,1.59521484375,1.5919921875,1.5984375,1.5984375,1.60166015625,1.6306640625,1.662890625,1.67578125,1.6951171875,1.7208984375,1.7466796875,1.7982421875,1.85947265625,1.88203125,1.88203125,1.9142578125,1.920703125,1.85625,1.76923828125,1.6951171875,1.61455078125,1.53720703125,1.482421875,1.456640625,1.4501953125,1.44052734375,1.40830078125,1.379296875,1.38896484375,1.40830078125,1.3857421875,1.35029296875,1.3341796875,1.34384765625,1.35673828125,1.36318359375,1.3599609375,1.3599609375,1.38896484375,1.42119140625,1.41796875,1.3986328125,1.42119140625,1.47275390625,1.49853515625,1.4888671875,1.4759765625,1.4759765625,1.4888671875,1.5017578125,1.4953125,1.4759765625,1.4630859375,1.4501953125,1.44052734375,1.44697265625,1.44697265625,1.4244140625,1.3921875,1.3921875,1.40830078125,1.42119140625,1.42763671875,1.44375,1.482421875,1.5404296875,1.58232421875,1.5919921875,1.60166015625,1.62099609375,1.62099609375,1.585546875,1.55654296875,1.5404296875,1.51787109375,1.49853515625,1.4953125,1.47919921875,1.4501953125,1.4501953125,1.46630859375,1.3857421875,1.2955078125,1.57587890625,2.3525390625,2.96162109375,2.5587890625,1.42763671875,0.8056640625,1.14404296875,1.611328125,1.58876953125,1.430859375,1.4953125,1.58876953125,1.5791015625,1.58232421875,1.60810546875,1.60810546875,1.60810546875,1.63388671875,1.637109375,1.637109375,1.65966796875,1.6822265625,1.7015625,1.7337890625,1.76923828125,1.78857421875,1.8240234375,1.87236328125,1.89169921875,1.89814453125,1.90458984375,1.87880859375,1.8046875,1.714453125,1.6564453125,1.60810546875,1.55654296875,1.50498046875,1.4630859375,1.44052734375,1.4373046875,1.4244140625,1.40830078125,1.39541015625,1.3921875,1.38896484375,1.3921875,1.39541015625,1.38251953125,1.36318359375,1.35673828125,1.36640625,1.36962890625,1.36962890625,1.36640625,1.37607421875,1.40185546875,1.43408203125,1.44052734375,1.44375,1.46630859375,1.4888671875,1.49208984375,1.49853515625,1.5017578125,1.47919921875,1.456640625,1.46630859375,1.4888671875,1.47919921875,1.44697265625,1.430859375,1.430859375,1.4244140625,1.40830078125,1.3986328125,1.3986328125,1.41796875,1.44375,1.46630859375,1.5017578125,1.5533203125,1.58232421875,1.5791015625,1.58876953125,1.60166015625,1.5984375,1.5919921875,1.5791015625,1.53076171875,1.482421875,1.48564453125,1.508203125,1.4888671875,1.45986328125,1.4630859375,1.4244140625,1.31484375,1.379296875,1.9271484375,2.72314453125,2.9197265625,2.08505859375,1.0248046875,0.82822265625,1.3341796875,1.61455078125,1.47275390625,1.40830078125,1.533984375,1.585546875,1.5662109375,1.60810546875,1.65322265625,1.64033203125,1.6306640625,1.6564453125,1.6693359375,1.6693359375,1.6822265625,1.69833984375,1.7080078125,1.73056640625,1.77568359375,1.8369140625,1.8755859375,1.88525390625,1.88525390625,1.9013671875,1.9078125,1.8626953125,1.7724609375,1.67900390625,1.61455078125,1.55009765625,1.482421875,1.4501953125,1.46630859375,1.46630859375,1.4244140625,1.3986328125,1.4244140625,1.45341796875,1.44052734375,1.3986328125,1.36962890625,1.36640625,1.36640625,1.36640625,1.36318359375,1.3599609375,1.3470703125,1.3470703125,1.379296875,1.40830078125,1.4115234375,1.40185546875,1.4115234375,1.43408203125,1.44697265625,1.456640625,1.47919921875,1.49853515625,1.5017578125,1.4953125,1.4888671875,1.47275390625,1.4501953125,1.44375,1.4501953125,1.456640625,1.456640625,1.43408203125,1.40185546875,1.39541015625,1.4115234375,1.41474609375,1.4115234375,1.45341796875,1.5275390625,1.57265625,1.585546875,1.58232421875,1.56298828125,1.54365234375,1.55654296875,1.57265625,1.54365234375,1.4888671875,1.46953125,1.4953125,1.508203125,1.4953125,1.48564453125,1.4630859375,1.36640625,1.301953125,1.5984375,2.36865234375,2.9970703125,2.6296875,1.4501953125,0.7154296875,1.0248046875,1.55654296875,1.5662109375,1.3857421875,1.44052734375,1.55654296875,1.559765625,1.5662109375,1.60810546875,1.62421875,1.62421875,1.6435546875,1.6564453125,1.662890625,1.6822265625,1.714453125,1.73701171875,1.75634765625,1.78212890625,1.80791015625,1.82724609375,1.85625,1.8884765625,1.89814453125,1.88525390625,1.8626953125,1.82080078125,1.7337890625,1.637109375,1.56298828125,1.50498046875,1.45341796875,1.42763671875,1.4244140625,1.42763671875,1.43408203125,1.4373046875,1.430859375,1.42763671875,1.42119140625,1.40830078125,1.3921875,1.3857421875,1.379296875,1.36640625,1.35029296875,1.34384765625,1.3599609375,1.379296875,1.37607421875,1.3599609375,1.36318359375,1.405078125,1.44375,1.43408203125,1.4244140625,1.4630859375,1.49853515625,1.48564453125,1.47919921875,1.5146484375,1.533984375,1.5017578125,1.4630859375,1.46630859375,1.482421875,1.4759765625,1.4373046875,1.405078125,1.4115234375,1.4501953125,1.4759765625,1.4759765625,1.48564453125,1.52109375,1.55009765625,1.55009765625,1.53076171875,1.5275390625,1.5533203125,1.55654296875,1.508203125,1.48564453125,1.51787109375,1.53720703125,1.508203125,1.48564453125,1.5146484375,1.51787109375,1.4115234375,1.353515625,1.740234375,2.5716796875,3.0421875,2.42666015625,1.25361328125,0.75087890625,1.15048828125,1.5533203125,1.49208984375,1.36318359375,1.4373046875,1.5404296875,1.5533203125,1.559765625,1.5791015625,1.60810546875,1.66611328125,1.70478515625,1.6951171875,1.6951171875,1.73056640625,1.76279296875,1.77890625,1.8111328125,1.85625,1.89169921875,1.9142578125,1.920703125,1.920703125,1.92392578125,1.91748046875,1.86591796875,1.76923828125,1.6822265625,1.6048828125,1.52109375,1.45986328125,1.44697265625,1.42763671875,1.40185546875,1.42119140625,1.46630859375,1.45986328125,1.430859375,1.430859375,1.44697265625,1.4373046875,1.42763671875,1.43408203125,1.42763671875,1.3986328125,1.38251953125,1.38896484375,1.3921875,1.3857421875,1.37607421875,1.35673828125,1.33740234375,1.35029296875,1.3857421875,1.40185546875,1.405078125,1.430859375,1.45986328125,1.4630859375,1.4630859375,1.4888671875,1.51787109375,1.50498046875,1.4759765625,1.47919921875,1.49208984375,1.482421875,1.46630859375,1.46953125,1.46953125,1.456640625,1.47275390625,1.5146484375,1.52431640625,1.51142578125,1.508203125,1.4953125,1.456640625,1.44375,1.46953125,1.45341796875,1.40185546875,1.40830078125,1.4759765625,1.5017578125,1.47275390625,1.47275390625,1.48564453125,1.40830078125,1.35029296875,1.69833984375,2.51044921875,3.0486328125,2.52333984375,1.3341796875,0.721875,1.06025390625,1.4953125,1.46953125,1.3212890625,1.36318359375,1.430859375,1.43408203125,1.45986328125,1.4953125,1.50498046875,1.533984375,1.58876953125,1.62421875,1.637109375,1.662890625,1.70478515625,1.74345703125,1.77568359375,1.80791015625,1.84658203125,1.89169921875,1.91103515625,1.91103515625,1.894921875,1.87880859375,1.8498046875,1.76923828125,1.637109375,1.4953125,1.39541015625,1.34384765625,1.3212890625,1.31162109375,1.29873046875,1.28583984375,1.29873046875,1.340625,1.36962890625,1.36640625
1.35673828125,1.340625,1.38251953125,1.4115234375,1.379296875,1.35673828125,1.3857421875,1.42763671875,1.44697265625,1.45986328125,1.45986328125,1.45986328125,1.4888671875,1.508203125,1.49853515625,1.49208984375,1.49208984375,1.47919921875,1.46630859375,1.45341796875,1.41796875,1.38896484375,1.3986328125,1.40830078125,1.39541015625,1.3986328125,1.41796875,1.41474609375,1.40830078125,1.43408203125,1.44697265625,1.43408203125,1.44697265625,1.4953125,1.533984375,1.54365234375,1.57587890625,1.64033203125,1.67900390625,1.662890625,1.6306640625,1.611328125,1.5919921875,1.5662109375,1.533984375,1.48564453125,1.44375,1.44052734375,1.44375,1.4373046875,1.43408203125,1.42119140625,1.36962890625,1.30517578125,1.43408203125,1.9916015625,2.74892578125,2.89716796875,2.0560546875,1.0828125,0.9796875,1.48564453125,1.69833984375,1.53720703125,1.48564453125,1.60810546875,1.637109375,1.56943359375,1.5533203125,1.5919921875,1.5984375,1.56943359375,1.57265625,1.611328125,1.62421875,1.6177734375,1.65966796875,1.72734375,1.753125,1.7595703125,1.80146484375,1.85947265625,1.9142578125,1.96904296875,1.9916015625,1.97548828125,1.96259765625,1.94326171875,1.8626953125,1.7337890625,1.6177734375,1.5275390625,1.46953125,1.44052734375,1.41796875,1.37607421875,1.340625,1.34384765625,1.37607421875,1.38251953125,1.35029296875,1.33740234375,1.36318359375,1.38251953125,1.3728515625,1.36640625,1.3921875,1.43408203125,1.456640625,1.456640625,1.4501953125,1.4630859375,1.4888671875,1.50498046875,1.49853515625,1.4953125,1.48564453125,1.456640625,1.44697265625,1.45341796875,1.430859375,1.3986328125,1.40830078125,1.43408203125,1.42763671875,1.40830078125,1.38896484375,1.38251953125,1.3921875,1.41474609375,1.42763671875,1.4244140625,1.42119140625,1.456640625,1.5017578125,1.51142578125,1.5146484375,1.56298828125,1.6177734375,1.62421875,1.611328125,1.611328125,1.60810546875,1.59521484375,1.5662109375,1.5275390625,1.51142578125,1.508203125,1.47919921875,1.42763671875,1.405078125,1.4115234375,1.405078125,1.3857421875,1.38896484375,1.3986328125,1.36640625,1.3728515625,1.6951171875,2.4234375,2.96806640625,2.565234375,1.46953125,0.86044921875,1.20849609375,1.6822265625,1.637109375,1.43408203125,1.46630859375,1.56943359375,1.559765625,1.53076171875,1.55009765625,1.5662109375,1.54365234375,1.51787109375,1.533984375,1.57587890625,1.62744140625,1.65966796875,1.67578125,1.72734375,1.81435546875,1.86591796875,1.8755859375,1.90458984375,1.96259765625,2.0109375,2.03349609375,2.0109375,1.93681640625,1.84013671875,1.740234375,1.63388671875,1.533984375,1.46630859375,1.41474609375,1.3728515625,1.3470703125,1.3341796875,1.3212890625,1.3083984375,1.3083984375,1.327734375,1.3470703125,1.3341796875,1.3212890625,1.36640625,1.43408203125,1.4373046875,1.405078125,1.41796875,1.46630859375,1.48564453125,1.4630859375,1.4501953125,1.46630859375,1.48564453125,1.46630859375,1.41474609375,1.39541015625,1.41796875,1.430859375,1.41474609375,1.38251953125,1.3470703125,1.3341796875,1.36962890625,1.39541015625,1.36962890625,1.3599609375,1.405078125,1.44697265625,1.44697265625,1.47275390625,1.52431640625,1.5146484375,1.47275390625,1.49853515625,1.57587890625,1.60166015625,1.5662109375,1.559765625,1.5984375,1.62099609375,1.6048828125,1.56298828125,1.533984375,1.5275390625,1.5146484375,1.47275390625,1.42119140625,1.405078125,1.41474609375,1.41796875,1.40185546875,1.40830078125,1.4501953125,1.46630859375,1.42119140625,1.50498046875,2.01416015625,2.797265625,3.04541015625,2.24619140625,1.147265625,0.889453125,1.38251953125,1.6693359375,1.50498046875,1.4115234375,1.5275390625,1.559765625,1.4888671875,1.48564453125,1.52431640625,1.52431640625,1.49853515625,1.508203125,1.57265625,1.65322265625,1.68544921875,1.688671875,1.72412109375,1.791796875,1.84658203125,1.89814453125,1.959375,1.998046875,2.00126953125,2.00126953125,2.0109375,2.0044921875,1.9400390625,1.80791015625,1.66611328125,1.57587890625,1.50498046875,1.42119140625,1.37607421875,1.3728515625,1.353515625,1.31806640625,1.31484375,1.33740234375,1.33740234375,1.33095703125,1.3599609375,1.40185546875,1.4115234375,1.40830078125,1.42763671875,1.47275390625,1.508203125,1.51142578125,1.48564453125,1.45986328125,1.4630859375,1.48564453125,1.4759765625,1.42763671875,1.405078125,1.4115234375,1.40185546875,1.36640625,1.35673828125,1.379296875,1.38251953125,1.36640625,1.3728515625,1.3986328125,1.405078125,1.3986328125,1.405078125,1.4244140625,1.4501953125,1.48564453125,1.52109375,1.533984375,1.53076171875,1.52431640625,1.53076171875,1.55009765625,1.55654296875,1.5404296875,1.54365234375,1.5791015625,1.58232421875,1.546875,1.50498046875,1.49208984375,1.4953125,1.48564453125,1.4373046875,1.37607421875,1.37607421875,1.42119140625,1.4373046875,1.42763671875,1.4630859375,1.5017578125,1.4501953125,1.46630859375,1.9013671875,2.69091796875,3.0615234375,2.4041015625,1.29873046875,0.87333984375,1.2568359375,1.611328125,1.53720703125,1.41474609375,1.4630859375,1.51787109375,1.4953125,1.4953125,1.5146484375,1.51787109375,1.52431640625,1.55654296875,1.58232421875,1.60810546875,1.662890625,1.7337890625,1.75634765625,1.7724609375,1.85302734375,1.94970703125,1.96904296875,1.95615234375,1.9916015625,2.02705078125,2.00771484375,1.97548828125,1.93359375,1.81435546875,1.6435546875,1.52431640625,1.482421875,1.42119140625,1.327734375,1.2955078125,1.33740234375,1.35673828125,1.33740234375,1.3341796875,1.353515625,1.379296875,1.4115234375,1.430859375,1.430859375,1.43408203125,1.45986328125,1.46953125,1.456640625,1.45341796875,1.46630859375,1.47919921875,1.482421875,1.456640625,1.41474609375,1.40185546875,1.42763671875,1.42119140625,1.35673828125,1.32451171875,1.35673828125,1.37607421875,1.340625,1.3341796875,1.39541015625,1.44052734375,1.42119140625,1.405078125,1.44375,1.4888671875,1.49853515625,1.4888671875,1.5017578125,1.5275390625,1.546875,1.546875,1.53076171875,1.5275390625,1.55654296875,1.5919921875,1.585546875,1.559765625,1.53720703125,1.508203125,1.46630859375,1.44052734375,1.43408203125,1.42763671875,1.40830078125,1.39541015625,1.40185546875,1.4373046875,1.47919921875,1.48564453125,1.43408203125,1.4115234375,1.67255859375,2.333203125,2.92294921875,2.71025390625,1.7208984375,0.93134765625,1.03447265625,1.533984375,1.6306640625,1.40830078125,1.36640625,1.50498046875,1.533984375,1.4630859375,1.4630859375,1.533984375,1.56943359375,1.55009765625,1.559765625,1.62099609375,1.67255859375,1.6822265625,1.70478515625,1.77890625,1.8626953125,1.89169921875,1.90458984375,1.96259765625,2.02705078125,2.023828125,1.98193359375,1.972265625,1.959375,1.8498046875,1.69833984375,1.58876953125,1.51142578125,1.42763671875,1.3728515625,1.353515625,1.33740234375,1.327734375,1.3341796875,1.3341796875,1.33095703125,1.353515625,1.3921875,1.41796875,1.42119140625,1.41796875,1.44697265625,1.48564453125,1.47919921875,1.456640625,1.47919921875,1.5146484375,1.48564453125,1.4244140625,1.4115234375,1.42763671875,1.41474609375,1.3986328125,1.40830078125,1.4115234375,1.38896484375,1.36640625,1.36318359375,1.36962890625,1.37607421875,1.39541015625,1.42119140625,1.42763671875,1.42119140625,1.44697265625,1.5017578125,1.533984375,1.52431640625,1.51787109375,1.546875,1.58876953125,1.6048828125,1.58232421875,1.5791015625,1.60166015625,1.57587890625,1.5017578125,1.47919921875,1.52431640625,1.50498046875,1.4115234375,1.3728515625,1.405078125,1.41474609375,1.38896484375,1.40185546875,1.44697265625,1.41796875,1.353515625,1.49208984375,2.0302734375,2.7328125,2.92294921875,2.16884765625,1.11181640625,0.8701171875,1.41796875,1.72412109375,1.51142578125,1.38251953125,1.508203125,1.5533203125,1.49208984375,1.5017578125,1.54365234375,1.5275390625,1.51142578125,1.533984375,1.57587890625,1.6177734375,1.6564453125,1.688671875,1.7337890625,1.791796875,1.8498046875,1.920703125,1.9787109375,1.98515625,1.98837890625,2.049609375,2.07861328125,1.9787109375,1.83369140625,1.740234375,1.67255859375,1.5791015625,1.47275390625,1.38896484375,1.35029296875,1.353515625,1.35029296875,1.327734375,1.3083984375,1.30517578125,1.32451171875,1.35673828125,1.3728515625,1.36640625,1.38251953125,1.43408203125,1.46953125,1.47919921875,1.47919921875,1.46630859375,1.45341796875,1.4759765625,1.51142578125,1.49208984375,1.44375,1.42119140625,1.43408203125,1.4373046875,1.4115234375,1.3857421875,1.38251953125,1.37607421875,1.36318359375,1.3599609375,1.353515625,1.35029296875,1.3857421875,1.43408203125,1.44052734375,1.4373046875,1.482421875,1.533984375,1.55009765625,1.546875,1.5533203125,1.58876953125,1.62099609375,1.6177734375,1.60166015625,1.6048828125,1.5791015625,1.5275390625,1.51787109375,1.5275390625,1.46630859375,1.3728515625,1.353515625,1.38251953125,1.39541015625,1.40185546875,1.405078125,1.38896484375,1.36318359375,1.39541015625,1.67900390625,2.3525390625,2.96162109375,2.65224609375,1.508203125,0.80888671875,1.1666015625,1.68544921875,1.637109375,1.43408203125,1.4888671875,1.56298828125,1.51142578125,1.4888671875,1.53720703125,1.546875,1.52109375,1.53720703125,1.585546875,1.5919921875,1.58876953125,1.6435546875,1.72734375,1.75634765625,1.75634765625,1.82724609375,1.9400390625,1.9787109375,1.96259765625,1.98515625,2.02705078125,2.023828125,1.9658203125,1.87236328125,1.73701171875,1.61455078125,1.5404296875,1.4759765625,1.40185546875,1.35673828125,1.340625,1.33740234375,1.34384765625,1.33095703125,1.29228515625,1.2955078125,1.35029296875,1.37607421875,1.34384765625,1.35029296875,1.42763671875,1.4759765625,1.456640625,1.4373046875,1.45341796875,1.47275390625,1.4630859375,1.4501953125,1.47919921875,1.53076171875,1.5146484375,1.43408203125,1.38896484375,1.39541015625,1.405078125,1.3986328125,1.3921875,1.38251953125,1.37607421875,1.3986328125,1.41796875,1.40185546875,1.379296875,1.40185546875,1.4501953125,1.4759765625,1.47919921875,1.49853515625,1.56298828125,1.6306640625,1.6693359375,1.662890625,1.6177734375,1.5791015625,1.58876953125,1.585546875,1.5146484375,1.4244140625,1.3986328125,1.4244140625,1.44697265625,1.4373046875,1.405078125,1.379296875,1.35673828125,1.2955078125,1.353515625,1.86591796875,2.70703125,3.0357421875,2.27841796875,1.15693359375,0.82822265625,1.2826171875,1.6435546875,1.5984375,1.5146484375,1.55009765625,1.5791015625,1.5791015625,1.58232421875,1.56943359375,1.56943359375,1.60810546875,1.6306640625,1.6177734375,1.6177734375,1.64033203125,1.662890625,1.67255859375,1.70478515625,1.7724609375,1.8369140625,1.8626953125,1.88525390625,1.94970703125,2.00771484375,2.0044921875,1.959375,1.9078125,1.82724609375,1.69833984375,1.58232421875,1.51142578125,1.46953125,1.430859375,1.3986328125,1.37607421875,1.36640625,1.3599609375,1.340625,1.31162109375,1.30517578125,1.3083984375,1.3212890625,1.3470703125,1.3599609375,1.353515625,1.35673828125,1.37607421875,1.3857421875,1.3921875,1.405078125,1.41474609375,1.43408203125,1.4759765625,1.50498046875,1.49853515625,1.48564453125,1.47919921875,1.46953125,1.4501953125,1.430859375,1.41474609375,1.41474609375,1.42119140625,1.405078125,1.379296875,1.3728515625,1.38251953125,1.3857421875,1.379296875,1.39541015625,1.44375,1.50498046875,1.54365234375,1.56943359375,1.59521484375,1.611328125,1.60166015625,1.59521484375,1.585546875,1.54365234375,1.47919921875,1.4501953125,1.46630859375,1.47275390625,1.4501953125,1.43408203125,1.4501953125,1.430859375,1.327734375,1.2890625,1.65966796875,2.462109375,3.01640625,2.52978515625,1.33095703125,0.6767578125,1.04091796875,1.559765625,1.559765625,1.4115234375,1.49208984375,1.61455078125,1.611328125,1.59521484375,1.62744140625,1.637109375,1.62421875,1.62099609375,1.637109375,1.66611328125,1.69833984375,1.71123046875,1.72412109375,1.766015625,1.80791015625,1.82080078125,1.8240234375,1.8626953125,1.9078125,1.93037109375,1.946484375,1.9529296875,1.894921875,1.76279296875,1.64677734375,1.611328125,1.5791015625,1.4888671875,1.41796875,1.4373046875,1.4630859375,1.4244140625,1.3857421875,1.40185546875,1.40830078125,1.36962890625,1.3470703125,1.36318359375,1.35673828125,1.32451171875,1.327734375,1.3470703125,1.35029296875,1.353515625,1.36318359375,1.35673828125,1.35029296875,1.38251953125,1.43408203125,1.44697265625,1.42763671875,1.44052734375,1.4888671875,1.52109375,1.5146484375,1.50498046875,1.51142578125,1.508203125,1.49853515625,1.49853515625,1.508203125,1.51787109375,1.533984375,1.53076171875,1.482421875,1.430859375,1.44052734375,1.45986328125,1.41474609375,1.35029296875,1.35029296875,1.3921875,1.4244140625,1.4501953125,1.46953125,1.4888671875,1.47275390625,1.430859375,1.58876953125,2.22041015625,2.94228515625,2.81982421875,1.714453125,0.79921875,0.9216796875,1.45341796875,1.559765625,1.40830078125,1.430859375,1.52109375,1.4953125,1.45341796875,1.47919921875,1.51142578125,1.51142578125,1.51787109375,1.5791015625,1.6564453125,1.688671875,1.7015625,1.766015625,1.85947265625,1.91103515625,1.9271484375,1.94326171875,1.96904296875,1.99482421875,2.01416015625,2.0044921875,1.95615234375,1.88525390625,1.78857421875,1.65,1.5275390625,1.456640625,1.405078125,1.340625,1.30517578125,1.3212890625,1.33095703125,1.327734375,1.340625,1.353515625,1.353515625,1.3857421875,1.44375,1.46630859375,1.44375,1.4501953125,1.5017578125,1.52431640625,1.49208984375,1.4630859375,1.4630859375,1.45986328125,1.430859375,1.41474609375,1.42119140625,1.4244140625,1.3986328125,1.36640625,1.36318359375,1.36640625,1.36640625,1.38251953125,1.41474609375,1.44697265625,1.46630859375,1.482421875,1.508203125,1.559765625,1.611328125,1.61455078125,1.5791015625,1.56298828125,1.585546875,1.58232421875,1.51787109375,1.456640625,1.44697265625,1.456640625,1.44052734375,1.40185546875,1.3986328125,1.41474609375,1.3599609375,1.2568359375,1.39541015625,2.0431640625,2.83916015625,2.8810546875,1.8755859375,0.84755859375,0.8572265625,1.47919921875,1.67255859375,1.44052734375,1.40185546875,1.55654296875,1.585546875,1.5275390625,1.5533203125,1.6048828125,1.60166015625,1.5919921875,1.60810546875,1.62099609375,1.62099609375,1.63388671875,1.67578125,1.714453125,1.72412109375,1.72412109375,1.76279296875,1.843359375,1.89169921875,1.89169921875,1.90458984375,1.946484375,1.9142578125,1.791796875,1.67900390625,1.62421875,1.5662109375,1.49208984375,1.44697265625,1.44052734375,1.4244140625,1.38251953125,1.3599609375,1.37607421875,1.3986328125,1.38896484375,1.353515625,1.3341796875,1.3470703125,1.3599609375,1.340625,1.31484375,1.30517578125,1.3212890625,1.35029296875,1.36640625,1.37607421875,1.39541015625,1.4244140625,1.44375,1.4501953125,1.4501953125,1.4630859375,1.47919921875,1.49208984375,1.48564453125,1.45341796875,1.430859375,1.45986328125,1.49208984375,1.45341796875,1.405078125,1.45341796875,1.55009765625,1.56298828125,1.4953125,1.44697265625,1.43408203125,1.4373046875,1.44697265625,1.41796875,1.36962890625,1.40185546875,1.4953125,1.5017578125,1.430859375,1.44052734375,1.533984375,1.5404296875,1.4244140625,1.456640625,2.00771484375,2.8810546875,3.1517578125,2.25263671875,1.0376953125,0.7669921875,1.31484375,1.62744140625,1.44697265625,1.327734375,1.430859375,1.4888671875,1.4501953125,1.44375,1.5017578125,1.56943359375,1.60810546875,1.62744140625,1.65322265625,1.7080078125,1.74990234375,1.77568359375,1.8046875,1.8369140625,1.8884765625,1.95615234375,2.00771484375,2.00771484375,1.98837890625,1.98193359375,1.9529296875,1.87880859375,1.8046875,1.72734375,1.5919921875,1.44697265625,1.39541015625,1.41474609375,1.405078125,1.353515625,1.3341796875,1.36640625,1.40830078125,1.42119140625,1.42763671875,1.45341796875,1.4888671875,1.49208984375,1.47275390625,1.47275390625,1.49208984375,1.48564453125,1.44697265625,1.4244140625,1.4373046875,1.45341796875,1.43408203125,1.3921875,1.38251953125,1.39541015625,1.38251953125,1.3599609375,1.3857421875,1.43408203125,1.44697265625,1.430859375,1.4373046875,1.47275390625,1.51787109375,1.55009765625,1.55009765625,1.55654296875,1.60166015625,1.65966796875,1.67255859375,1.63388671875,1.5791015625,1.559765625,1.546875,1.4953125,1.42119140625,1.3986328125,1.4373046875,1.45341796875,1.3986328125,1.35029296875,1.38251953125,1.41474609375,1.340625,1.250390625,1.430859375,2.0302734375,2.7392578125,2.83271484375,1.98837890625,0.98935546875,0.85400390625,1.36640625,1.6177734375,1.49208984375,1.45341796875,1.53720703125,1.50498046875,1.42763671875,1.43408203125,1.46630859375,1.456640625,1.4501953125,1.4759765625,1.50498046875,1.51142578125,1.49208984375,1.4953125,1.5533203125,1.6435546875,1.714453125,1.74345703125,1.753125,1.79501953125,1.843359375,1.84013671875,1.79501953125,1.75634765625,1.6951171875,1.559765625,1.3986328125,1.2890625,1.22783203125,1.1666015625
1.4501953125,1.44052734375,1.46953125,1.49208984375,1.45986328125,1.42119140625,1.42119140625,1.44697265625,1.4501953125,1.42119140625,1.40185546875,1.40830078125,1.41796875,1.41474609375,1.40185546875,1.3857421875,1.35673828125,1.353515625,1.3857421875,1.3986328125,1.379296875,1.3921875,1.45986328125,1.508203125,1.51142578125,1.4953125,1.5017578125,1.5275390625,1.54365234375,1.52109375,1.4953125,1.50498046875,1.5404296875,1.55009765625,1.546875,1.56298828125,1.57265625,1.53076171875,1.46953125,1.4501953125,1.45986328125,1.44052734375,1.405078125,1.405078125,1.41796875,1.4244140625,1.42763671875,1.44375,1.4630859375,1.46953125,1.42119140625,1.3921875,1.6435546875,2.29453125,2.9326171875,2.83916015625,1.89814453125,0.98935546875,0.9345703125,1.4115234375,1.60166015625,1.456640625,1.40185546875,1.45986328125,1.46630859375,1.46630859375,1.51142578125,1.5275390625,1.52109375,1.55009765625,1.60166015625,1.662890625,1.72412109375,1.74990234375,1.76279296875,1.82080078125,1.91748046875,1.96904296875,1.946484375,1.9400390625,2.00771484375,2.0818359375,2.05283203125,1.94326171875,1.84658203125,1.76923828125,1.65,1.5146484375,1.42119140625,1.36318359375,1.3212890625,1.31162109375,1.3341796875,1.340625,1.3341796875,1.35029296875,1.38251953125,1.405078125,1.40830078125,1.42119140625,1.44052734375,1.4630859375,1.482421875,1.47919921875,1.4630859375,1.44375,1.4373046875,1.43408203125,1.4244140625,1.40830078125,1.38896484375,1.379296875,1.3728515625,1.37607421875,1.3857421875,1.38251953125,1.3599609375,1.3599609375,1.39541015625,1.42119140625,1.42119140625,1.4501953125,1.52109375,1.57587890625,1.5984375,1.62099609375,1.62421875,1.585546875,1.5533203125,1.55654296875,1.533984375,1.46953125,1.42763671875,1.42119140625,1.42763671875,1.4373046875,1.44052734375,1.42119140625,1.3857421875,1.30517578125,1.2375,1.48564453125,2.23330078125,2.91650390625,2.64580078125,1.546875,0.82177734375,1.06025390625,1.5533203125,1.61455078125,1.4759765625,1.51787109375,1.6177734375,1.60166015625,1.55009765625,1.559765625,1.61455078125,1.6435546875,1.6306640625,1.5984375,1.585546875,1.61455078125,1.65966796875,1.6951171875,1.72412109375,1.753125,1.79501953125,1.85625,1.91748046875,1.946484375,1.959375,1.97548828125,1.9400390625,1.83369140625,1.74990234375,1.72412109375,1.65322265625,1.51787109375,1.44052734375,1.45341796875,1.45341796875,1.3986328125,1.35029296875,1.3341796875,1.327734375,1.33740234375,1.3599609375,1.353515625,1.33095703125,1.33095703125,1.33740234375,1.327734375,1.34384765625,1.3857421875,1.39541015625,1.37607421875,1.3986328125,1.46953125,1.52109375,1.51787109375,1.48564453125,1.45986328125,1.47275390625,1.4953125,1.482421875,1.44697265625,1.43408203125,1.456640625,1.4888671875,1.49853515625,1.482421875,1.47919921875,1.49208984375,1.49208984375,1.46630859375,1.4501953125,1.44697265625,1.4373046875,1.42119140625,1.42119140625,1.430859375,1.44052734375,1.46630859375,1.4953125,1.49208984375,1.47275390625,1.44375,1.36640625,1.405078125,1.9400390625,2.83271484375,3.12919921875,2.2494140625,1.06025390625,0.7798828125,1.2568359375,1.5275390625,1.39541015625,1.327734375,1.4244140625,1.46630859375,1.4373046875,1.45341796875,1.5017578125,1.546875,1.5919921875,1.62099609375,1.64677734375,1.6951171875,1.73056640625,1.73701171875,1.76923828125,1.8369140625,1.869140625,1.8626953125,1.88203125,1.93037109375,1.946484375,1.93681640625,1.91103515625,1.843359375,1.72734375,1.61455078125,1.5275390625,1.44052734375,1.36962890625,1.3470703125,1.36318359375,1.3599609375,1.33740234375,1.36318359375,1.42763671875,1.44375,1.41474609375,1.41474609375,1.44375,1.44697265625,1.44052734375,1.45341796875,1.46630859375,1.44697265625,1.41474609375,1.4115234375,1.4244140625,1.41474609375,1.3728515625,1.3470703125,1.3599609375,1.36640625,1.35029296875,1.3470703125,1.379296875,1.4115234375,1.4244140625,1.42763671875,1.44697265625,1.4759765625,1.508203125,1.533984375,1.56298828125,1.6048828125,1.6306640625,1.6306640625,1.61455078125,1.58876953125,1.54365234375,1.508203125,1.508203125,1.49853515625,1.43408203125,1.3599609375,1.3470703125,1.37607421875,1.3921875,1.38251953125,1.379296875,1.37607421875,1.33740234375,1.34384765625,1.6177734375,2.25908203125,2.8939453125,2.81015625,1.85947265625,0.96357421875,1.00869140625,1.56298828125,1.71123046875,1.48564453125,1.44697265625,1.57265625,1.57587890625,1.49853515625,1.4888671875,1.508203125,1.533984375,1.57265625,1.5984375,1.6048828125,1.6177734375,1.65966796875,1.70478515625,1.74345703125,1.80791015625,1.89814453125,1.959375,1.972265625,2.00126953125,2.05927734375,2.0689453125,2.0173828125,1.946484375,1.8369140625,1.6822265625,1.5533203125,1.49208984375,1.456640625,1.3986328125,1.33095703125,1.301953125,1.3212890625,1.3341796875,1.31484375,1.29228515625,1.31484375,1.3599609375,1.37607421875,1.3599609375,1.36640625,1.3986328125,1.4244140625,1.44052734375,1.456640625,1.456640625,1.45341796875,1.47275390625,1.482421875,1.456640625,1.42763671875,1.41796875,1.40830078125,1.38896484375,1.38251953125,1.38896484375,1.3921875,1.379296875,1.3857421875,1.42119140625,1.456640625,1.4759765625,1.4953125,1.5146484375,1.51142578125,1.47919921875,1.47919921875,1.53076171875,1.55654296875,1.50498046875,1.45341796875,1.4630859375,1.49853515625,1.48564453125,1.44375,1.430859375,1.430859375,1.379296875,1.3599609375,1.70478515625,2.49111328125,3.03251953125,2.51044921875,1.30517578125,0.69931640625,1.0763671875,1.5275390625,1.482421875,1.34384765625,1.43408203125,1.533984375,1.53076171875,1.533984375,1.58876953125,1.6306640625,1.6564453125,1.66611328125,1.6693359375,1.69189453125,1.71767578125,1.72412109375,1.7337890625,1.766015625,1.80791015625,1.8240234375,1.8240234375,1.84013671875,1.8755859375,1.91103515625,1.9013671875,1.82724609375,1.73056640625,1.6435546875,1.56943359375,1.50498046875,1.46630859375,1.44697265625,1.4373046875,1.430859375,1.430859375,1.41796875,1.405078125,1.42763671875,1.456640625,1.456640625,1.4373046875,1.41796875,1.38896484375,1.36318359375,1.36318359375,1.379296875,1.37607421875,1.3599609375,1.353515625,1.35673828125,1.36318359375,1.3857421875,1.4244140625,1.4501953125,1.4501953125,1.43408203125,1.44052734375,1.47275390625,1.50498046875,1.508203125,1.49853515625,1.51142578125,1.5275390625,1.51787109375,1.51787109375,1.55009765625,1.5662109375,1.55654296875,1.5533203125,1.546875,1.4953125,1.44375,1.45341796875,1.4630859375,1.40830078125,1.3599609375,1.38251953125,1.41474609375,1.42119140625,1.44375,1.482421875,1.4630859375,1.38896484375,1.4501953125,1.8884765625,2.60390625,2.9583984375,2.3654296875,1.27939453125,0.85078125,1.29873046875,1.67578125,1.5146484375,1.3470703125,1.45341796875,1.52109375,1.44052734375,1.42763671875,1.4953125,1.5275390625,1.52109375,1.546875,1.59521484375,1.63388671875,1.66611328125,1.70478515625,1.753125,1.80146484375,1.85947265625,1.93037109375,1.959375,1.9529296875,1.96904296875,1.998046875,1.96259765625,1.8626953125,1.76923828125,1.68544921875,1.585546875,1.46953125,1.3921875,1.36640625,1.35029296875,1.31806640625,1.30517578125,1.32451171875,1.35029296875,1.36640625,1.3921875,1.4244140625,1.4373046875,1.44052734375,1.4501953125,1.47275390625,1.4953125,1.5017578125,1.48564453125,1.45341796875,1.44375,1.45341796875,1.456640625,1.42119140625,1.3857421875,1.3921875,1.405078125,1.3921875,1.3728515625,1.3857421875,1.4115234375,1.42119140625,1.41474609375,1.4115234375,1.42763671875,1.4630859375,1.5017578125,1.53720703125,1.55009765625,1.56298828125,1.59521484375,1.62421875,1.611328125,1.56943359375,1.546875,1.5533203125,1.56298828125,1.53720703125,1.46953125,1.41796875,1.40830078125,1.39541015625,1.36640625,1.36962890625,1.3921875,1.3857421875,1.3341796875,1.3083984375,1.52431640625,2.19462890625,2.9455078125,2.86494140625,1.79501953125,0.89267578125,1.0505859375,1.6306640625,1.714453125,1.482421875,1.45986328125,1.56298828125,1.56298828125,1.53076171875,1.55009765625,1.5533203125,1.52109375,1.52431640625,1.559765625,1.5919921875,1.6048828125,1.6177734375,1.6564453125,1.71767578125,1.7724609375,1.8046875,1.8498046875,1.920703125,1.97548828125,1.98515625,1.98837890625,2.0044921875,1.972265625,1.83369140625,1.6693359375,1.5919921875,1.55654296875,1.47919921875,1.3921875,1.35029296875,1.3470703125,1.340625,1.3212890625,1.31162109375,1.327734375,1.34384765625,1.3341796875,1.33095703125,1.353515625,1.3728515625,1.379296875,1.38896484375,1.405078125,1.430859375,1.45986328125,1.4759765625,1.46953125,1.46953125,1.46953125,1.45986328125,1.44697265625,1.4501953125,1.44052734375,1.4115234375,1.39541015625,1.3986328125,1.3986328125,1.3986328125,1.3986328125,1.3921875,1.379296875,1.37607421875,1.38896484375,1.4115234375,1.44697265625,1.50498046875,1.559765625,1.58876953125,1.61455078125,1.637109375,1.61455078125,1.56943359375,1.559765625,1.56943359375,1.533984375,1.47275390625,1.4630859375,1.4759765625,1.44375,1.3986328125,1.41474609375,1.4501953125,1.39541015625,1.276171875,1.36640625,1.96259765625,2.7908203125,2.9326171875,1.9787109375,0.9087890625,0.82822265625,1.40830078125,1.65966796875,1.5146484375,1.48564453125,1.58876953125,1.585546875,1.5533203125,1.61455078125,1.662890625,1.6177734375,1.57265625,1.60810546875,1.6693359375,1.68544921875,1.66611328125,1.6693359375,1.70478515625,1.753125,1.791796875,1.82080078125,1.85625,1.89814453125,1.9271484375,1.95615234375,1.97548828125,1.94326171875,1.85625,1.76279296875,1.6693359375,1.57265625,1.4953125,1.456640625,1.44375,1.4373046875,1.42763671875,1.39541015625,1.36318359375,1.3470703125,1.353515625,1.36318359375,1.36962890625,1.3599609375,1.3341796875,1.327734375,1.340625,1.3470703125,1.35029296875,1.38896484375,1.4373046875,1.43408203125,1.40185546875,1.4115234375,1.482421875,1.53720703125,1.52431640625,1.47919921875,1.44697265625,1.44697265625,1.4759765625,1.5017578125,1.47275390625,1.41796875,1.41474609375,1.44375,1.44052734375,1.42119140625,1.42763671875,1.4373046875,1.44375,1.4759765625,1.508203125,1.50498046875,1.5017578125,1.53720703125,1.55009765625,1.5017578125,1.4630859375,1.4888671875,1.51787109375,1.482421875,1.4501953125,1.482421875,1.52109375,1.47919921875,1.36962890625,1.353515625,1.73056640625,2.52978515625,3.05830078125,2.52333984375,1.301953125,0.6896484375,1.07958984375,1.546875,1.47919921875,1.31484375,1.41796875,1.5404296875,1.52109375,1.5017578125,1.55654296875,1.611328125,1.6435546875,1.6693359375,1.67900390625,1.688671875,1.72734375,1.7595703125,1.753125,1.7466796875,1.79501953125,1.8498046875,1.8626953125,1.8626953125,1.8884765625,1.9078125,1.8884765625,1.84658203125,1.7853515625,1.688671875,1.57587890625,1.4953125,1.46630859375,1.45986328125,1.4373046875,1.39541015625,1.3921875,1.44375,1.48564453125,1.44697265625,1.3921875,1.41474609375,1.47275390625,1.456640625,1.3986328125,1.39541015625,1.43408203125,1.4244140625,1.36318359375,1.33095703125,1.3599609375,1.38251953125,1.353515625,1.33740234375,1.36962890625,1.405078125,1.3986328125,1.3921875,1.4244140625,1.46630859375,1.46953125,1.45341796875,1.46953125,1.52109375,1.5404296875,1.49208984375,1.4501953125,1.482421875,1.5404296875,1.53720703125,1.4953125,1.5017578125,1.5533203125,1.56943359375,1.52431640625,1.4759765625,1.45986328125,1.4501953125,1.42119140625,1.40830078125,1.42763671875,1.44697265625,1.4501953125,1.44697265625,1.45986328125,1.49208984375,1.5017578125,1.43408203125,1.41796875,1.78212890625,2.55556640625,3.04541015625,2.5330078125,1.39541015625,0.8056640625,1.13115234375,1.559765625,1.52431640625,1.36318359375,1.40185546875,1.47919921875,1.4630859375,1.456640625,1.4953125,1.5146484375,1.5275390625,1.5791015625,1.63388671875,1.662890625,1.6951171875,1.753125,1.7982421875,1.83046875,1.869140625,1.9078125,1.9271484375,1.946484375,1.9658203125,1.96259765625,1.9400390625,1.9142578125,1.85625,1.73701171875,1.5984375,1.5017578125,1.44375,1.379296875,1.3341796875,1.33740234375,1.35029296875,1.340625,1.35673828125,1.4115234375,1.44052734375,1.42763671875,1.43408203125,1.4630859375,1.4759765625,1.47275390625,1.46630859375,1.45986328125,1.456640625,1.45341796875,1.430859375,1.4115234375,1.4115234375,1.3986328125,1.3599609375,1.340625,1.35673828125,1.36962890625,1.35673828125,1.36640625,1.405078125,1.41796875,1.405078125,1.4115234375,1.4501953125,1.48564453125,1.51142578125,1.533984375,1.54365234375,1.546875,1.60166015625,1.6693359375,1.6435546875,1.55009765625,1.51787109375,1.54365234375,1.51142578125,1.430859375,1.405078125,1.41474609375,1.3986328125,1.37607421875,1.379296875,1.38896484375,1.38896484375,1.35673828125,1.31484375,1.508203125,2.16884765625,2.88427734375,2.81337890625,1.83046875,0.93779296875,0.95390625,1.45986328125,1.65966796875,1.5404296875,1.48564453125,1.533984375,1.54365234375,1.5275390625,1.53720703125,1.5533203125,1.559765625,1.56298828125,1.5662109375,1.58876953125,1.62744140625,1.65322265625,1.662890625,1.688671875,1.753125,1.8498046875,1.93037109375,1.946484375,1.94326171875,1.98515625,2.0302734375,2.0109375,1.93359375,1.8369140625,1.7208984375,1.6048828125,1.51787109375,1.45986328125,1.405078125,1.3599609375,1.3470703125,1.35673828125,1.33095703125,1.29228515625,1.29873046875,1.3341796875,1.33095703125,1.31484375,1.34384765625,1.3986328125,1.42119140625,1.4115234375,1.41796875,1.4501953125,1.4630859375,1.4501953125,1.4501953125,1.47919921875,1.49208984375,1.4630859375,1.4244140625,1.41796875,1.42763671875,1.4244140625,1.39541015625,1.36318359375,1.3599609375,1.379296875,1.3921875,1.3986328125,1.405078125,1.4115234375,1.44052734375,1.50498046875,1.5662109375,1.585546875,1.57265625,1.5533203125,1.55654296875,1.56943359375,1.55009765625,1.4953125,1.46953125,1.49853515625,1.51787109375,1.48564453125,1.44697265625,1.4501953125,1.4501953125,1.36962890625,1.2826171875,1.53720703125,2.3138671875,3.00029296875,2.67802734375,1.49208984375,0.7154296875,0.992578125,1.53720703125,1.58232421875,1.40830078125,1.4630859375,1.5919921875,1.5919921875,1.56943359375,1.60810546875,1.62744140625,1.6177734375,1.6435546875,1.69833984375,1.71123046875,1.6951171875,1.70478515625,1.73056640625,1.74345703125,1.753125,1.77890625,1.81435546875,1.85625,1.87236328125,1.8626953125,1.8626953125,1.8626953125,1.80791015625,1.7080078125,1.65,1.62099609375,1.56298828125,1.49208984375,1.46953125,1.47919921875,1.46630859375,1.43408203125,1.42763671875,1.43408203125,1.42763671875,1.40830078125,1.37607421875,1.35029296875,1.35029296875,1.3728515625,1.38251953125,1.36962890625,1.35673828125,1.36318359375,1.37607421875,1.37607421875,1.36962890625,1.3921875,1.4501953125,1.4759765625,1.4373046875,1.4244140625,1.4888671875,1.54365234375,1.5275390625,1.508203125,1.533984375,1.53076171875,1.4759765625,1.44375,1.47275390625,1.4953125,1.4888671875,1.4888671875,1.52431640625,1.55654296875,1.533984375,1.4759765625,1.45341796875,1.47919921875,1.48564453125,1.44697265625,1.41796875,1.42763671875,1.4501953125,1.482421875,1.51787109375,1.53076171875,1.5146484375,1.47275390625,1.42119140625,1.50498046875,1.959375,2.68125,2.97451171875,2.2751953125,1.14404296875,0.7541015625,1.25361328125,1.63388671875,1.43408203125,1.29873046875,1.5533203125,1.4501953125,0.71865234375,0.4125,1.13759765625,1.8498046875,1.714453125,1.41796875,1.58232421875,1.7853515625,1.7466796875,1.7466796875,1.85302734375,1.8884765625,1.87236328125,1.894921875,1.93681640625,1.96259765625,1.98193359375,1.98837890625,1.94970703125,1.88203125,1.8111328125,1.71123046875,1.58876953125,1.4888671875,1.4373046875,1.4244140625,1.4373046875,1.44375,1.42119140625,1.40185546875,1.430859375,1.4953125,1.5404296875,1.533984375,1.49853515625,1.4888671875,1.51142578125,1.51787109375,1.49853515625,1.4759765625,1.4630859375,1.44375,1.430859375,1.42763671875,1.4244140625,1.41474609375,1.4244140625,1.44052734375,1.42763671875,1.40185546875,1.41474609375,1.4630859375,1.4759765625,1.45986328125,1.47919921875,1.52109375,1.5275390625,1.52109375,1.55654296875,1.5919921875,1.5919921875,1.60166015625,1.64033203125,1.65966796875,1.62744140625,1.58876953125,1.55654296875,1.51787109375,1.482421875,1.456640625,1.4244140625,1.3921875,1.3857421875,1.40185546875,1.42119140625,1.42763671875,1.4115234375,1.35673828125,1.35029296875,1.5984375,2.204296875,2.81015625,2.7392578125,1.84658203125,0.9732421875,0.95068359375,1.44697265625,1.64033203125,1.4759765625,1.4115234375,1.49208984375,1.508203125,1.47919921875,1.4759765625,1.47919921875
1.36640625,1.353515625,1.3921875,1.42119140625,1.3470703125,1.3341796875,1.72734375,2.50400390625,2.9841796875,2.5201171875,1.4501953125,0.837890625,1.10859375,1.5662109375,1.5919921875,1.42119140625,1.42763671875,1.51787109375,1.51787109375,1.4888671875,1.49208984375,1.49208984375,1.4953125,1.5275390625,1.56943359375,1.60166015625,1.62744140625,1.6564453125,1.7080078125,1.78212890625,1.84013671875,1.89169921875,1.946484375,1.98193359375,1.99482421875,2.023828125,2.03671875,1.98193359375,1.89814453125,1.817578125,1.69833984375,1.56298828125,1.4759765625,1.41474609375,1.34384765625,1.31484375,1.32451171875,1.3083984375,1.2890625,1.31484375,1.33740234375,1.3341796875,1.34384765625,1.38251953125,1.405078125,1.40830078125,1.42119140625,1.4373046875,1.44375,1.4501953125,1.46630859375,1.4759765625,1.46630859375,1.4373046875,1.41796875,1.42763671875,1.42763671875,1.3921875,1.35029296875,1.34384765625,1.3599609375,1.3728515625,1.36962890625,1.36640625,1.37607421875,1.3986328125,1.4115234375,1.41474609375,1.44052734375,1.508203125,1.5662109375,1.58876953125,1.5919921875,1.5984375,1.58876953125,1.56298828125,1.55009765625,1.53720703125,1.49208984375,1.44052734375,1.430859375,1.4501953125,1.44052734375,1.3986328125,1.3728515625,1.36640625,1.31806640625,1.276171875,1.52109375,2.204296875,2.848828125,2.65869140625,1.63388671875,0.863671875,1.0634765625,1.5919921875,1.65,1.46630859375,1.5017578125,1.611328125,1.57587890625,1.52109375,1.5533203125,1.60166015625,1.6177734375,1.60810546875,1.60166015625,1.62099609375,1.637109375,1.63388671875,1.6435546875,1.6822265625,1.72734375,1.77568359375,1.83369140625,1.88525390625,1.91748046875,1.93359375,1.93681640625,1.92392578125,1.894921875,1.83369140625,1.73701171875,1.63388671875,1.55654296875,1.51142578125,1.47919921875,1.45986328125,1.42763671875,1.38251953125,1.36318359375,1.38251953125,1.38251953125,1.34384765625,1.33095703125,1.36640625,1.38896484375,1.36640625,1.34384765625,1.35673828125,1.38251953125,1.40830078125,1.42763671875,1.4244140625,1.42119140625,1.4501953125,1.48564453125,1.49208984375,1.48564453125,1.48564453125,1.482421875,1.46953125,1.46953125,1.47275390625,1.4501953125,1.4244140625,1.42119140625,1.4244140625,1.42119140625,1.40830078125,1.40185546875,1.40185546875,1.41796875,1.44052734375,1.4630859375,1.5017578125,1.546875,1.56943359375,1.57587890625,1.58876953125,1.6048828125,1.60166015625,1.5919921875,1.559765625,1.508203125,1.4888671875,1.49853515625,1.4888671875,1.44697265625,1.44375,1.4759765625,1.45341796875,1.33095703125,1.2955078125,1.67900390625,2.49111328125,3.03896484375,2.5587890625,1.379296875,0.73154296875,1.08603515625,1.59521484375,1.585546875,1.41474609375,1.4759765625,1.5919921875,1.5984375,1.6048828125,1.637109375,1.62744140625,1.60810546875,1.63388671875,1.662890625,1.6693359375,1.66611328125,1.662890625,1.67900390625,1.740234375,1.80146484375,1.8111328125,1.8046875,1.843359375,1.9013671875,1.92392578125,1.91748046875,1.91103515625,1.87236328125,1.77568359375,1.66611328125,1.5984375,1.55009765625,1.4953125,1.46630859375,1.45341796875,1.43408203125,1.41474609375,1.40830078125,1.405078125,1.3857421875,1.36318359375,1.36640625,1.379296875,1.379296875,1.35673828125,1.3212890625,1.31162109375,1.340625,1.37607421875,1.3728515625,1.35673828125,1.36318359375,1.38896484375,1.4115234375,1.42763671875,1.456640625,1.482421875,1.4888671875,1.48564453125,1.48564453125,1.48564453125,1.4759765625,1.456640625,1.45341796875,1.456640625,1.44697265625,1.41796875,1.3986328125,1.40830078125,1.4244140625,1.44052734375,1.45986328125,1.49208984375,1.5275390625,1.546875,1.53720703125,1.5146484375,1.508203125,1.508203125,1.51142578125,1.5017578125,1.47919921875,1.47275390625,1.4953125,1.52109375,1.51787109375,1.4953125,1.4373046875,1.340625,1.37607421875,1.85302734375,2.668359375,3.00673828125,2.24296875,1.06669921875,0.69287109375,1.173046875,1.53720703125,1.44697265625,1.36318359375,1.47919921875,1.559765625,1.53720703125,1.53720703125,1.5791015625,1.6177734375,1.6435546875,1.66611328125,1.67900390625,1.69833984375,1.740234375,1.77890625,1.78212890625,1.78857421875,1.83046875,1.87236328125,1.88525390625,1.89169921875,1.90458984375,1.920703125,1.91103515625,1.869140625,1.7982421875,1.7208984375,1.63388671875,1.533984375,1.45341796875,1.4373046875,1.44052734375,1.42763671875,1.40830078125,1.41474609375,1.430859375,1.43408203125,1.43408203125,1.44052734375,1.430859375,1.41796875,1.4115234375,1.3921875,1.36640625,1.36318359375,1.379296875,1.37607421875,1.3470703125,1.340625,1.36962890625,1.3857421875,1.3728515625,1.36962890625,1.39541015625,1.4115234375,1.41474609375,1.456640625,1.50498046875,1.5017578125,1.4888671875,1.5017578125,1.52431640625,1.5404296875,1.559765625,1.559765625,1.54365234375,1.54365234375,1.546875,1.5146484375,1.46953125,1.45341796875,1.44052734375,1.3986328125,1.35673828125,1.36640625,1.3986328125,1.40830078125,1.41474609375,1.43408203125,1.4244140625,1.3728515625,1.41474609375,1.766015625,2.436328125,2.90361328125,2.47177734375,1.379296875,0.79921875,1.1666015625,1.6048828125,1.54365234375,1.405078125,1.49853515625,1.56298828125,1.4888671875,1.45986328125,1.50498046875,1.52431640625,1.5146484375,1.533984375,1.58232421875,1.6306640625,1.662890625,1.67900390625,1.71767578125,1.7982421875,1.88203125,1.9271484375,1.946484375,1.97548828125,2.0044921875,2.0109375,1.98515625,1.94326171875,1.85947265625,1.740234375,1.62099609375,1.52431640625,1.4373046875,1.3728515625,1.3470703125,1.32451171875,1.30517578125,1.3212890625,1.34384765625,1.327734375,1.3083984375,1.340625,1.40830078125,1.44375,1.43408203125,1.41796875,1.44052734375,1.48564453125,1.50498046875,1.49208984375,1.47275390625,1.45341796875,1.430859375,1.4244140625,1.4373046875,1.4373046875,1.405078125,1.379296875,1.3857421875,1.39541015625,1.38251953125,1.36318359375,1.36640625,1.39541015625,1.430859375,1.4630859375,1.49208984375,1.53076171875,1.5791015625,1.60166015625,1.59521484375,1.57265625,1.56298828125,1.55009765625,1.53076171875,1.508203125,1.48564453125,1.4630859375,1.45341796875,1.44375,1.44052734375,1.44697265625,1.39541015625,1.26328125,1.36318359375,2.02060546875,2.8359375,2.8681640625,1.9013671875,0.941015625,0.89267578125,1.405078125,1.62744140625,1.47919921875,1.405078125,1.51787109375,1.60166015625,1.58876953125,1.57265625,1.6048828125,1.6306640625,1.611328125,1.59521484375,1.637109375,1.69189453125,1.67255859375,1.6306640625,1.662890625,1.740234375,1.7724609375,1.77568359375,1.81435546875,1.869140625,1.894921875,1.91748046875,1.92392578125,1.8626953125,1.74990234375,1.6693359375,1.62421875,1.5662109375,1.4953125,1.4501953125,1.44052734375,1.42763671875,1.40830078125,1.4115234375,1.44052734375,1.43408203125,1.3857421875,1.34384765625,1.33740234375,1.35029296875,1.36318359375,1.3728515625,1.3728515625,1.353515625,1.35029296875,1.37607421875,1.40185546875,1.42119140625,1.43408203125,1.4373046875,1.456640625,1.4953125,1.49853515625,1.46630859375,1.4759765625,1.508203125,1.4953125,1.46953125,1.47919921875,1.4759765625,1.456640625,1.4501953125,1.456640625,1.456640625,1.47275390625,1.49208984375,1.4953125,1.49853515625,1.50498046875,1.482421875,1.46630859375,1.47919921875,1.49208984375,1.46630859375,1.4501953125,1.47919921875,1.51142578125,1.5146484375,1.5146484375,1.508203125,1.44375,1.405078125,1.69833984375,2.43955078125,3.0421875,2.67158203125,1.508203125,0.79921875,1.08603515625,1.5404296875,1.50498046875,1.340625,1.39541015625,1.47919921875,1.47275390625,1.482421875,1.53720703125,1.57265625,1.5919921875,1.60166015625,1.62099609375,1.67900390625,1.72734375,1.7337890625,1.74990234375,1.8111328125,1.86591796875,1.88203125,1.88203125,1.89814453125,1.9078125,1.9078125,1.9013671875,1.86591796875,1.7724609375,1.66611328125,1.585546875,1.508203125,1.430859375,1.379296875,1.353515625,1.3470703125,1.36962890625,1.40830078125,1.41474609375,1.41474609375,1.44375,1.4630859375,1.4501953125,1.4501953125,1.47275390625,1.4630859375,1.4115234375,1.38896484375,1.41474609375,1.44052734375,1.42119140625,1.38251953125,1.37607421875,1.39541015625,1.39541015625,1.36962890625,1.340625,1.340625,1.3728515625,1.41796875,1.44375,1.44375,1.45986328125,1.4953125,1.508203125,1.49853515625,1.50498046875,1.5275390625,1.5146484375,1.47919921875,1.46953125,1.47919921875,1.482421875,1.46953125,1.4759765625,1.51142578125,1.54365234375,1.5404296875,1.52431640625,1.51142578125,1.482421875,1.46953125,1.4953125,1.49208984375,1.42763671875,1.40830078125,1.4759765625,1.52109375,1.4888671875,1.4888671875,1.53720703125,1.52109375,1.41474609375,1.42119140625,1.78857421875,2.51689453125,3.0486328125,2.6296875,1.4759765625,0.7927734375,1.10537109375,1.559765625,1.49853515625,1.327734375,1.41474609375,1.4953125,1.44375,1.44052734375,1.51142578125,1.55654296875,1.58876953125,1.63388671875,1.65322265625,1.65966796875,1.7015625,1.76279296875,1.8111328125,1.83046875,1.84658203125,1.8755859375,1.93037109375,1.9787109375,1.98193359375,1.96259765625,1.946484375,1.920703125,1.85625,1.73701171875,1.611328125,1.51787109375,1.43408203125,1.379296875,1.379296875,1.3921875,1.3599609375,1.33740234375,1.38896484375,1.4501953125,1.44697265625,1.42119140625,1.42763671875,1.456640625,1.45986328125,1.43408203125,1.41796875,1.430859375,1.44052734375,1.42763671875,1.3986328125,1.37607421875,1.3599609375,1.3470703125,1.35673828125,1.36640625,1.3599609375,1.35673828125,1.36962890625,1.379296875,1.38896484375,1.4244140625,1.45986328125,1.4630859375,1.46953125,1.4953125,1.50498046875,1.48564453125,1.48564453125,1.52109375,1.533984375,1.4953125,1.456640625,1.456640625,1.4759765625,1.50498046875,1.546875,1.55009765625,1.50498046875,1.47919921875,1.50498046875,1.5146484375,1.47275390625,1.44697265625,1.44375,1.4373046875,1.44375,1.4759765625,1.51142578125,1.51787109375,1.51787109375,1.52431640625,1.4953125,1.4115234375,1.5017578125,2.09150390625,2.9068359375,3.0099609375,2.02060546875,0.93134765625,0.8056640625,1.32451171875,1.5662109375,1.43408203125,1.38251953125,1.46630859375,1.48564453125,1.4630859375,1.49208984375,1.54365234375,1.5791015625,1.60166015625,1.62744140625,1.67255859375,1.73701171875,1.7724609375,1.76923828125,1.7982421875,1.88203125,1.92392578125,1.9013671875,1.91103515625,1.98515625,2.0173828125,1.97548828125,1.93037109375,1.89169921875,1.8046875,1.68544921875,1.57587890625,1.47919921875,1.3986328125,1.37607421875,1.38896484375,1.39541015625,1.38251953125,1.37607421875,1.38896484375,1.40830078125,1.42119140625,1.43408203125,1.44375,1.44697265625,1.4373046875,1.43408203125,1.44375,1.44052734375,1.405078125,1.38896484375,1.405078125,1.40830078125,1.379296875,1.353515625,1.35029296875,1.35029296875,1.35673828125,1.37607421875,1.39541015625,1.39541015625,1.39541015625,1.41796875,1.4630859375,1.4888671875,1.482421875,1.482421875,1.51787109375,1.53076171875,1.49208984375,1.456640625,1.47275390625,1.508203125,1.5146484375,1.50498046875,1.50498046875,1.52109375,1.53076171875,1.52109375,1.49853515625,1.47275390625,1.44375,1.42763671875,1.44375,1.456640625,1.43408203125,1.41796875,1.4501953125,1.4888671875,1.5017578125,1.49853515625,1.508203125,1.4759765625,1.3986328125,1.51142578125,2.11083984375,2.926171875,3.0357421875,2.049609375,0.95390625,0.83466796875,1.38251953125,1.6048828125,1.41474609375,1.33740234375,1.4501953125,1.482421875,1.43408203125,1.44375,1.52109375,1.58232421875,1.5984375,1.59521484375,1.63388671875,1.69833984375,1.74345703125,1.76279296875,1.791796875,1.83046875,1.869140625,1.9078125,1.946484375,1.95615234375,1.93681640625,1.93681640625,1.94326171875,1.894921875,1.76923828125,1.63388671875,1.5404296875,1.482421875,1.41796875,1.36318359375,1.3470703125,1.353515625,1.35673828125,1.36640625,1.39541015625,1.41796875,1.4115234375,1.41474609375,1.44697265625,1.46953125,1.45986328125,1.45341796875,1.45986328125,1.4501953125,1.430859375,1.4244140625,1.41796875,1.38896484375,1.37607421875,1.3921875,1.38251953125,1.36318359375,1.36640625,1.379296875,1.3728515625,1.3728515625,1.40185546875,1.43408203125,1.456640625,1.4759765625,1.4888671875,1.49853515625,1.508203125,1.51787109375,1.53076171875,1.55009765625,1.53076171875,1.482421875,1.46630859375,1.482421875,1.46953125,1.4501953125,1.4759765625,1.508203125,1.51142578125,1.5275390625,1.56298828125,1.546875,1.48564453125,1.46630859375,1.50498046875,1.5275390625,1.49853515625,1.46630859375,1.4759765625,1.51787109375,1.55654296875,1.559765625,1.533984375,1.50498046875,1.4759765625,1.44052734375,1.585546875,2.152734375,2.88427734375,2.9326171875,1.9658203125,0.9216796875,0.825,1.35673828125,1.5791015625,1.430859375,1.39541015625,1.49208984375,1.5017578125,1.49208984375,1.559765625,1.6177734375,1.62421875,1.637109375,1.67578125,1.7080078125,1.73056640625,1.75634765625,1.7724609375,1.78857421875,1.82080078125,1.869140625,1.91103515625,1.93037109375,1.93359375,1.93037109375,1.92392578125,1.90458984375,1.85947265625,1.77568359375,1.662890625,1.56943359375,1.49853515625,1.4244140625,1.37607421875,1.38896484375,1.41796875,1.4115234375,1.3986328125,1.42119140625,1.430859375,1.405078125,1.39541015625,1.430859375,1.46630859375,1.45341796875,1.41796875,1.40830078125,1.4244140625,1.4244140625,1.3857421875,1.340625,1.33095703125,1.34384765625,1.353515625,1.36640625,1.36640625,1.33740234375,1.3341796875,1.3986328125,1.45986328125,1.45341796875,1.42763671875,1.45986328125,1.51142578125,1.51787109375,1.49208984375,1.482421875,1.482421875,1.482421875,1.482421875,1.482421875,1.482421875,1.4759765625,1.47275390625,1.47275390625,1.49208984375,1.5275390625,1.54365234375,1.51142578125,1.46630859375,1.4630859375,1.4953125,1.50498046875,1.46630859375,1.42119140625,1.42119140625,1.46630859375,1.5017578125,1.508203125,1.49853515625,1.49208984375,1.44697265625,1.38896484375,1.55654296875,2.17529296875,2.9068359375,2.92294921875,1.9400390625,0.89912109375,0.78955078125,1.31484375,1.55009765625,1.40185546875,1.34384765625,1.4373046875,1.4759765625,1.482421875,1.5275390625,1.5533203125,1.56298828125,1.6177734375,1.6693359375,1.66611328125,1.67578125,1.74990234375,1.80791015625,1.7853515625,1.7595703125,1.82080078125,1.9271484375,1.972265625,1.972265625,1.99482421875,2.0109375,1.96904296875,1.89169921875,1.8240234375,1.7208984375,1.58232421875,1.4888671875,1.44375,1.405078125,1.379296875,1.3857421875,1.3921875,1.3986328125,1.41796875,1.42119140625,1.41474609375,1.42763671875,1.44697265625,1.4373046875,1.41474609375,1.4115234375,1.41796875,1.4244140625,1.41474609375,1.3857421875,1.3599609375,1.35029296875,1.35029296875,1.3470703125,1.3470703125,1.340625,1.3341796875,1.36318359375,1.40830078125,1.41796875,1.40830078125,1.44052734375,1.48564453125,1.47919921875,1.4501953125,1.46953125,1.51142578125,1.508203125,1.4759765625,1.482421875,1.4953125,1.4759765625,1.45341796875,1.46953125,1.4953125,1.5017578125,1.5017578125,1.5017578125,1.49208984375,1.46630859375,1.456640625,1.46953125,1.4759765625,1.45341796875,1.430859375,1.44697265625,1.49208984375,1.508203125,1.4888671875,1.482421875,1.48564453125,1.430859375,1.3857421875,1.65322265625,2.358984375,2.98095703125,2.7521484375,1.71123046875,0.87333984375,0.941015625,1.3986328125,1.508203125,1.36640625,1.36962890625,1.456640625,1.45986328125,1.45986328125,1.51787109375,1.5662109375,1.585546875,1.6177734375,1.6564453125,1.68544921875,1.7080078125,1.740234375,1.80146484375,1.85302734375,1.8626953125,1.86591796875,1.9142578125,1.972265625,1.98515625,1.97548828125,1.97548828125,1.946484375,1.85947265625,1.76923828125,1.6951171875,1.60166015625,1.4888671875,1.41474609375,1.38896484375,1.38251953125,1.38251953125,1.40185546875,1.430859375,1.4373046875,1.42763671875,1.44052734375,1.47919921875,1.4953125,1.482421875,1.46953125,1.4759765625,1.47275390625,1.44375,1.4115234375,1.40830078125,1.41796875,1.40830078125,1.38251953125,1.36962890625,1.38251953125,1.3986328125,1.3986328125,1.3857421875,1.38896484375,1.4244140625,1.45986328125,1.47275390625,1.46630859375,1.482421875,1.51142578125,1.533984375,1.55009765625,1.58876953125,1.62421875,1.62421875,1.6048828125,1.59521484375,1.5791015625,1.533984375,1.49853515625,1.48564453125,1.4501953125,1.37607421875,1.34384765625,1.3857421875,1.41796875,1.39541015625,1.38896484375,1.430859375,1.405078125,1.327734375,1.4759765625,2.0947265625,2.8423828125,2.8875,1.9658203125,0.99580078125,0.9216796875,1.4244140625,1.62744140625,1.456640625,1.38251953125
