1.379296875,1.379296875,1.379296875,1.379296875,1.379296875,1.38251953125,1.36640625,1.3728515625,1.37607421875,1.37607421875,1.36962890625,1.36640625,1.36962890625,1.36962890625,1.36318359375,1.36318359375,1.36640625,1.36640625,1.3470703125,1.3599609375,1.3599609375,1.3599609375,1.35673828125,1.36318359375,1.3599609375,1.3599609375,1.353515625,1.36640625,1.3599609375,1.36318359375,1.35673828125,1.3599609375,1.36318359375,1.35029296875,1.35673828125,1.353515625,1.353515625,1.36318359375,1.3599609375,1.3599609375,1.36318359375,1.3599609375,1.36640625,1.35673828125,1.36640625,1.35673828125,1.3599609375,1.3599609375,1.3599609375,1.35673828125,1.353515625,1.36962890625,1.38896484375,1.405078125,1.3986328125,1.42763671875,1.45986328125,1.4759765625,1.44375,1.4373046875,1.42119140625,1.37607421875,1.3599609375,1.353515625,1.340625,1.3470703125,1.34384765625,1.33740234375,1.34384765625,1.34384765625,1.35673828125,1.36962890625,1.44052734375,1.82080078125,2.3138671875,2.1140625,1.50498046875,1.36640625,1.38251953125,1.36318359375,1.353515625,1.3470703125,1.3470703125,1.353515625,1.3470703125,1.35029296875,1.3470703125,1.35029296875,1.3599609375,1.353515625,1.35673828125,1.35673828125,1.35673828125,1.36640625,1.36962890625,1.379296875,1.3857421875,1.3921875,1.40185546875,1.41474609375,1.41474609375,1.44375,1.4501953125,1.47275390625,1.4953125,1.51787109375,1.533984375,1.5533203125,1.55654296875,1.57265625,1.56943359375,1.5533203125,1.5146484375,1.482421875,1.44697265625,1.41474609375,1.405078125,1.3857421875,1.3921875,1.38896484375,1.36640625,1.36962890625,1.36318359375,1.35673828125,1.36318359375,1.36640625,1.3599609375,1.36318359375,1.36318359375,1.36318359375,1.3599609375,1.36640625,1.35673828125,1.36318359375,1.36640625,1.36640625,1.36318359375,1.35673828125,1.36640625,1.35673828125,1.36318359375,1.353515625,1.3599609375,1.3599609375,1.35673828125,1.353515625,1.36318359375,1.353515625,1.34384765625,1.35029296875,1.35673828125,1.35029296875,1.353515625,1.35673828125,1.3470703125,1.34384765625,1.33095703125,1.36318359375,1.34384765625,1.35029296875,1.35029296875,1.35673828125,1.35673828125,1.35029296875,1.35029296875,1.35029296875,1.35029296875,1.35673828125,1.35029296875,1.35673828125,1.35673828125,1.3470703125,1.3470703125,1.3470703125,1.35029296875,1.353515625,1.3470703125,1.35029296875,1.35029296875,1.36318359375,1.379296875,1.3921875,1.39541015625,1.40185546875,1.44375,1.47919921875,1.456640625,1.42119140625,1.41796875,1.379296875,1.3599609375,1.34384765625,1.34384765625,1.340625,1.3341796875,1.33740234375,1.34384765625,1.340625,1.35029296875,1.36962890625,1.3857421875,1.662890625,2.1591796875,2.27197265625,1.6951171875,1.3599609375,1.37607421875,1.36962890625,1.353515625,1.35673828125,1.3470703125,1.340625,1.353515625,1.340625,1.35029296875,1.353515625,1.3470703125,1.35029296875,1.35029296875,1.35673828125,1.36318359375,1.353515625,1.36640625,1.37607421875,1.37607421875,1.3857421875,1.3986328125,1.40185546875,1.41796875,1.43408203125,1.45341796875,1.46630859375,1.49853515625,1.508203125,1.5275390625,1.55654296875,1.56943359375,1.56943359375,1.56943359375,1.54365234375,1.5275390625,1.47919921875,1.45986328125,1.42763671875,1.405078125,1.3857421875,1.38251953125,1.36962890625,1.3599609375,1.36640625,1.3728515625,1.36962890625,1.3599609375,1.36640625,1.36318359375,1.3599609375,1.35673828125,1.36318359375,1.36962890625,1.36962890625,1.36318359375,1.3728515625,1.36318359375,1.36962890625,1.36962890625,1.36318359375,1.36640625,1.36318359375,1.3470703125,1.36640625,1.36318359375,1.3470703125,1.36640625,1.353515625,1.3470703125,1.3599609375,1.35673828125,1.3599609375,1.3470703125,1.353515625,1.35029296875,1.35673828125,1.3599609375,1.353515625,1.35029296875,1.35029296875,1.3599609375,1.353515625,1.35029296875,1.35029296875,1.35673828125,1.36318359375,1.36962890625,1.36962890625,1.35673828125,1.340625,1.3599609375,1.36318359375,1.353515625,1.3470703125,1.35029296875,1.36318359375,1.353515625,1.3599609375,1.35029296875,1.3470703125,1.3470703125,1.36640625,1.36962890625,1.38896484375,1.3986328125,1.405078125,1.44052734375,1.47919921875,1.44052734375,1.4373046875,1.42119140625,1.38251953125,1.353515625,1.3470703125,1.34384765625,1.353515625,1.34384765625,1.34384765625,1.35029296875,1.340625,1.35029296875,1.36962890625,1.38896484375,1.68544921875,2.19462890625,2.25263671875,1.68544921875,1.353515625,1.38896484375,1.36318359375,1.3599609375,1.353515625,1.3470703125,1.340625,1.353515625,1.3470703125,1.35029296875,1.340625,1.340625,1.3470703125,1.353515625,1.353515625,1.35673828125,1.35673828125,1.36318359375,1.3599609375,1.37607421875,1.37607421875,1.3921875,1.405078125,1.4115234375,1.4373046875,1.45341796875,1.46630859375,1.49208984375,1.508203125,1.53076171875,1.55009765625,1.56943359375,1.57265625,1.57587890625,1.5533203125,1.5146484375,1.482421875,1.44697265625,1.42119140625,1.39541015625,1.38896484375,1.379296875,1.37607421875,1.36962890625,1.36640625,1.36318359375,1.36962890625,1.36962890625,1.35673828125,1.36640625,1.35029296875,1.36962890625,1.353515625,1.3599609375,1.35673828125,1.35673828125,1.36318359375,1.3599609375,1.36318359375,1.36318359375,1.36318359375,1.3599609375,1.3599609375,1.353515625,1.3599609375,1.3599609375,1.34384765625,1.35029296875,1.36640625,1.35673828125,1.3599609375,1.3470703125,1.3470703125,1.35673828125,1.3599609375,1.35029296875,1.353515625,1.35029296875,1.3599609375,1.35673828125,1.353515625,1.3599609375,1.353515625,1.35029296875,1.3599609375,1.3470703125,1.35029296875,1.35673828125,1.34384765625,1.353515625,1.36318359375,1.35673828125,1.35673828125,1.36318359375,1.353515625,1.36962890625,1.3599609375,1.36318359375,1.35673828125,1.35673828125,1.36318359375,1.37607421875,1.379296875,1.40185546875,1.3921875,1.43408203125,1.46630859375,1.4501953125,1.430859375,1.4244140625,1.3986328125,1.36318359375,1.35029296875,1.353515625,1.3470703125,1.34384765625,1.34384765625,1.353515625,1.3470703125,1.3470703125,1.36640625,1.38251953125,1.5791015625,2.0302734375,2.31064453125,1.8369140625,1.379296875,1.3857421875,1.379296875,1.36640625,1.35673828125,1.35673828125,1.34384765625,1.3470703125,1.3470703125,1.3470703125,1.35029296875,1.35029296875,1.3599609375,1.35029296875,1.35673828125,1.36318359375,1.36640625,1.36640625,1.36962890625,1.37607421875,1.3857421875,1.3986328125,1.39541015625,1.41796875,1.4244140625,1.44697265625,1.4630859375,1.47919921875,1.5017578125,1.52109375,1.55009765625,1.559765625,1.57265625,1.5662109375,1.5662109375,1.508203125,1.49853515625,1.45341796875,1.42763671875,1.3986328125,1.3857421875,1.38251953125,1.37607421875,1.3728515625,1.36640625,1.36318359375,1.35029296875,1.35673828125,1.35029296875,1.36640625,1.353515625,1.353515625,1.36318359375,1.353515625,1.36962890625,1.34384765625,1.35029296875,1.3599609375,1.36318359375,1.36318359375,1.36318359375,1.36962890625,1.3599609375,1.3728515625,1.3470703125,1.3599609375,1.35029296875,1.36962890625,1.36318359375,1.3470703125,1.3470703125,1.35029296875,1.36640625,1.35673828125,1.35673828125,1.3470703125,1.3599609375,1.340625,1.340625,1.3599609375,1.35029296875,1.353515625,1.353515625,1.3599609375,1.353515625,1.34384765625,1.36640625,1.37607421875,1.35029296875,1.35673828125,1.35673828125,1.36318359375,1.340625,1.36318359375,1.3599609375,1.35029296875,1.36318359375,1.3599609375,1.35673828125,1.3599609375,1.353515625,1.35673828125,1.3599609375,1.3599609375,1.3728515625,1.38896484375,1.39541015625,1.39541015625,1.43408203125,1.46630859375,1.45341796875,1.4244140625,1.42763671875,1.3921875,1.36962890625,1.35673828125,1.33740234375,1.36318359375,1.34384765625,1.353515625,1.3470703125,1.3599609375,1.35673828125,1.379296875,1.3921875,1.637109375,2.08505859375,2.23974609375,1.7208984375,1.3599609375,1.37607421875,1.379296875,1.37607421875,1.35673828125,1.353515625,1.3470703125,1.353515625,1.34384765625,1.3341796875,1.35673828125,1.36318359375,1.36318359375,1.35673828125,1.36962890625,1.36640625,1.36640625,1.36962890625,1.36962890625,1.38251953125,1.38251953125,1.3986328125,1.39541015625,1.42119140625,1.4244140625,1.45341796875,1.45986328125,1.48564453125,1.508203125,1.533984375,1.5533203125,1.5662109375,1.5662109375,1.56298828125,1.55009765625,1.51787109375,1.48564453125,1.44697265625,1.4244140625,1.405078125,1.38251953125,1.37607421875,1.37607421875,1.36318359375,1.36318359375,1.36962890625,1.3599609375,1.36318359375,1.353515625,1.35673828125,1.36640625,1.36318359375,1.35673828125,1.36318359375,1.36640625,1.36640625,1.36640625,1.36318359375,1.36640625,1.36640625,1.36962890625,1.36962890625,1.36640625,1.36962890625,1.36640625,1.35673828125,1.3599609375,1.35673828125,1.3599609375,1.36318359375,1.36318359375,1.35673828125,1.36318359375,1.3470703125,1.353515625,1.36318359375,1.3599609375,1.3599609375,1.3599609375,1.353515625,1.35673828125,1.35673828125,1.3470703125,1.3599609375,1.353515625,1.34384765625,1.36318359375,1.3599609375,1.35673828125,1.35029296875,1.353515625,1.35673828125,1.35029296875,1.35673828125,1.35029296875,1.35673828125,1.34384765625,1.353515625,1.35029296875,1.35673828125,1.36640625,1.36640625,1.379296875,1.40185546875,1.40185546875,1.43408203125,1.47275390625,1.46630859375,1.430859375,1.4244140625,1.38896484375,1.3599609375,1.33740234375,1.35029296875,1.33740234375,1.3341796875,1.33095703125,1.33740234375,1.33740234375,1.33740234375,1.35673828125,1.36640625,1.55009765625,2.023828125,2.36220703125,1.89814453125,1.38251953125,1.3857421875,1.36640625,1.36318359375,1.36318359375,1.35673828125,1.34384765625,1.33095703125,1.3470703125,1.3470703125,1.3470703125,1.34384765625,1.35029296875,1.353515625,1.340625,1.35673828125,1.3599609375,1.36318359375,1.38251953125,1.3599609375,1.38251953125,1.3921875,1.3986328125,1.3986328125,1.4115234375,1.43408203125,1.44052734375,1.47275390625,1.5146484375,1.533984375,1.5533203125,1.5662109375,1.57587890625,1.57587890625,1.55654296875,1.533984375,1.49208984375,1.4501953125,1.42119140625,1.42119140625,1.37607421875,1.38251953125,1.36640625,1.36962890625,1.36318359375,1.3728515625,1.36962890625,1.36640625,1.37607421875,1.353515625,1.340625,1.3599609375,1.353515625,1.36640625,1.36318359375,1.353515625,1.36640625,1.35673828125,1.36318359375,1.35029296875,1.36640625,1.36318359375,1.36640625,1.353515625,1.35673828125,1.35673828125,1.353515625,1.353515625,1.353515625,1.353515625,1.35029296875,1.36640625,1.3599609375,1.3470703125,1.35029296875,1.3599609375,1.35029296875,1.353515625,1.35673828125,1.353515625,1.353515625,1.35029296875,1.34384765625,1.35673828125,1.353515625,1.353515625,1.3599609375,1.36318359375,1.35673828125,1.340625,1.35673828125,1.3599609375,1.35673828125,1.35673828125,1.353515625,1.3728515625,1.36962890625,1.3599609375,1.353515625,1.36318359375,1.35673828125,1.3599609375,1.3599609375,1.3728515625,1.3921875,1.379296875,1.41474609375,1.4630859375,1.4630859375,1.430859375,1.42763671875,1.4115234375,1.353515625,1.3599609375,1.3470703125,1.3470703125,1.35029296875,1.353515625,1.35029296875,1.3470703125,1.340625,1.3728515625,1.379296875,1.51142578125,1.92392578125,2.3138671875,1.9529296875,1.405078125,1.3728515625,1.36640625,1.35673828125,1.36640625,1.35673828125,1.3470703125,1.35029296875,1.35029296875,1.353515625,1.3470703125,1.35029296875,1.3599609375,1.3599609375,1.36318359375,1.36962890625,1.36640625,1.36640625,1.3728515625,1.37607421875,1.38251953125,1.38896484375,1.40185546875,1.41796875,1.4244140625,1.4373046875,1.45341796875,1.482421875,1.48564453125,1.52109375,1.5404296875,1.559765625,1.5662109375,1.57265625,1.55654296875,1.53076171875,1.4953125,1.45986328125,1.43408203125,1.41796875,1.38896484375,1.38251953125,1.36962890625,1.37607421875,1.37607421875,1.3728515625,1.36318359375,1.36962890625,1.36962890625,1.3599609375,1.3599609375,1.36318359375,1.36962890625,1.36962890625,1.36640625,1.3728515625,1.3728515625,1.36962890625,1.36962890625,1.36318359375,1.37607421875,1.36962890625,1.36962890625,1.3728515625,1.36640625,1.3728515625,1.36962890625,1.36640625,1.36640625,1.3728515625,1.36640625,1.36318359375,1.36318359375,1.3599609375,1.3599609375,1.36318359375,1.3599609375,1.36318359375,1.3599609375,1.36640625,1.3599609375,1.353515625,1.3599609375,1.3599609375,1.353515625,1.353515625,1.35029296875,1.353515625,1.3599609375,1.35673828125,1.353515625,1.3599609375,1.3599609375,1.3599609375,1.36318359375,1.3599609375,1.353515625,1.35029296875,1.353515625,1.35673828125,1.3599609375,1.353515625,1.35673828125,1.353515625,1.3470703125,1.35029296875,1.353515625,1.3599609375,1.36318359375,1.38251953125,1.39541015625,1.3921875,1.44052734375,1.46953125,1.4630859375,1.430859375,1.4373046875,1.40830078125,1.3728515625,1.353515625,1.34384765625,1.3341796875,1.33740234375,1.3470703125,1.3470703125,1.34384765625,1.33095703125,1.36318359375,1.37607421875,1.5404296875,2.00771484375,2.3783203125,1.93037109375,1.39541015625,1.379296875,1.37607421875,1.353515625,1.35029296875,1.34384765625,1.340625,1.340625,1.33740234375,1.340625,1.340625,1.34384765625,1.34384765625,1.3470703125,1.353515625,1.35029296875,1.353515625,1.35673828125,1.3599609375,1.36962890625,1.379296875,1.3921875,1.3857421875,1.4115234375,1.42119140625,1.4373046875,1.4501953125,1.48564453125,1.5017578125,1.53076171875,1.55009765625,1.57265625,1.5791015625,1.58232421875,1.56298828125,1.54365234375,1.50498046875,1.47919921875,1.44052734375,1.41796875,1.3986328125,1.39541015625,1.38896484375,1.379296875,1.37607421875,1.3728515625,1.3728515625,1.3728515625,1.36962890625,1.36962890625,1.36318359375,1.36318359375,1.3728515625,1.36962890625,1.36640625,1.36640625,1.36640625,1.36640625,1.36962890625,1.36318359375,1.36962890625,1.36640625,1.36318359375,1.36640625,1.35029296875,1.35029296875,1.36640625,1.353515625,1.353515625,1.36318359375,1.35673828125,1.3599609375,1.3470703125,1.35029296875,1.35029296875,1.35673828125,1.35029296875,1.35673828125,1.35029296875,1.35029296875,1.35673828125,1.353515625,1.35029296875,1.34384765625,1.3470703125,1.35029296875,1.34384765625,1.35673828125,1.35029296875,1.353515625,1.3470703125,1.34384765625,1.35029296875,1.353515625,1.35029296875,1.353515625,1.353515625,1.34384765625,1.353515625,1.3470703125,1.35673828125,1.34384765625,1.34384765625,1.3470703125,1.3470703125,1.3470703125,1.36962890625,1.38251953125,1.39541015625,1.3986328125,1.44375,1.4759765625,1.44375,1.430859375,1.40185546875,1.3728515625,1.353515625,1.3341796875,1.33740234375,1.3341796875,1.33740234375,1.3341796875,1.33740234375,1.33740234375,1.32451171875,1.36962890625,1.3921875,1.69833984375,2.255859375,2.2751953125,1.65966796875,1.36640625,1.3857421875,1.36318359375,1.35029296875,1.34384765625,1.33740234375,1.3470703125,1.3341796875,1.340625,1.353515625,1.35029296875,1.340625,1.353515625,1.35029296875,1.35673828125,1.35029296875,1.3599609375,1.36640625,1.37607421875,1.36640625,1.38896484375,1.39541015625,1.4115234375,1.40830078125,1.43408203125,1.456640625,1.4759765625,1.5017578125,1.51142578125,1.55009765625,1.57265625,1.56943359375,1.58232421875,1.5919921875,1.559765625,1.5404296875,1.4888671875,1.4630859375,1.430859375,1.40830078125,1.39541015625,1.3728515625,1.38251953125,1.36962890625,1.36962890625,1.3728515625,1.36962890625,1.3599609375,1.37607421875,1.36640625,1.36318359375,1.35673828125,1.35029296875,1.36640625,1.36640625,1.35673828125,1.36962890625,1.36640625,1.3599609375,1.36962890625,1.38896484375,1.36318359375,1.36318359375,1.3599609375,1.36640625,1.3728515625,1.37607421875,1.3599609375,1.36318359375,1.35029296875,1.340625,1.36318359375,1.3599609375,1.3728515625,1.35673828125,1.353515625,1.36318359375,1.36640625,1.35673828125,1.3728515625,1.36318359375,1.36962890625,1.36318359375,1.35673828125,1.36962890625,1.3728515625,1.3599609375,1.35029296875,1.36318359375,1.3728515625,1.36962890625,1.36318359375,1.36318359375,1.36318359375,1.36962890625,1.3599609375,1.36962890625,1.36640625,1.36640625,1.36962890625,1.36640625,1.3728515625,1.3857421875,1.39541015625,1.4115234375,1.40185546875,1.44375,1.4759765625,1.456640625,1.4373046875,1.4244140625,1.3921875,1.36962890625,1.3599609375,1.3599609375,1.35673828125,1.35673828125,1.35029296875,1.353515625,1.35029296875,1.353515625,1.3728515625,1.38251953125,1.62421875,2.08505859375,2.22041015625,1.6951171875,1.35029296875,1.36318359375,1.36318359375,1.35029296875,1.340625,1.340625,1.33740234375,1.33740234375,1.33740234375,1.340625,1.340625,1.33740234375,1.33740234375,1.33740234375,1.33740234375,1.340625,1.33740234375,1.34384765625
1.52109375,1.47919921875,1.456640625,1.4373046875,1.41474609375,1.40185546875,1.39541015625,1.38896484375,1.3921875,1.3921875,1.3857421875,1.38251953125,1.37607421875,1.3728515625,1.38251953125,1.38251953125,1.379296875,1.3857421875,1.379296875,1.38251953125,1.3857421875,1.379296875,1.3728515625,1.37607421875,1.38251953125,1.3728515625,1.3921875,1.379296875,1.36962890625,1.379296875,1.36640625,1.3728515625,1.37607421875,1.353515625,1.37607421875,1.36640625,1.379296875,1.36962890625,1.37607421875,1.36640625,1.37607421875,1.36962890625,1.36962890625,1.36640625,1.36318359375,1.36640625,1.35673828125,1.36640625,1.3599609375,1.353515625,1.36962890625,1.3599609375,1.3728515625,1.35673828125,1.35029296875,1.35673828125,1.3599609375,1.36318359375,1.36640625,1.3599609375,1.3599609375,1.36318359375,1.36318359375,1.36318359375,1.36640625,1.3728515625,1.3599609375,1.3599609375,1.35673828125,1.36318359375,1.3728515625,1.38251953125,1.40185546875,1.39541015625,1.41796875,1.4501953125,1.46630859375,1.44052734375,1.44052734375,1.41474609375,1.37607421875,1.353515625,1.3599609375,1.35673828125,1.35029296875,1.3470703125,1.353515625,1.35029296875,1.35673828125,1.36640625,1.36640625,1.43408203125,1.79501953125,2.26875,2.12373046875,1.53720703125,1.36640625,1.3857421875,1.3728515625,1.36318359375,1.353515625,1.3599609375,1.35673828125,1.3470703125,1.35029296875,1.36318359375,1.35673828125,1.35029296875,1.37607421875,1.3599609375,1.3599609375,1.36640625,1.36640625,1.37607421875,1.38251953125,1.379296875,1.38896484375,1.40185546875,1.405078125,1.430859375,1.44052734375,1.4630859375,1.47275390625,1.49853515625,1.52431640625,1.54365234375,1.55654296875,1.56943359375,1.57265625,1.5791015625,1.55654296875,1.5275390625,1.4888671875,1.44697265625,1.4244140625,1.3986328125,1.3921875,1.3857421875,1.37607421875,1.36318359375,1.3728515625,1.36640625,1.36318359375,1.36640625,1.36640625,1.35673828125,1.36962890625,1.36318359375,1.36318359375,1.36640625,1.36318359375,1.36318359375,1.3728515625,1.36640625,1.35029296875,1.3599609375,1.36962890625,1.35673828125,1.3599609375,1.353515625,1.353515625,1.35673828125,1.353515625,1.35673828125,1.353515625,1.35029296875,1.35029296875,1.353515625,1.353515625,1.353515625,1.3470703125,1.353515625,1.3599609375,1.3470703125,1.35029296875,1.35673828125,1.3470703125,1.34384765625,1.35029296875,1.353515625,1.35029296875,1.353515625,1.3470703125,1.35673828125,1.35029296875,1.35029296875,1.35029296875,1.35029296875,1.3470703125,1.3470703125,1.35673828125,1.353515625,1.35029296875,1.35673828125,1.353515625,1.35673828125,1.35673828125,1.35673828125,1.35673828125,1.353515625,1.353515625,1.3470703125,1.353515625,1.36318359375,1.3599609375,1.38251953125,1.3986328125,1.3986328125,1.41474609375,1.456640625,1.4630859375,1.43408203125,1.43408203125,1.41796875,1.379296875,1.353515625,1.3470703125,1.3470703125,1.34384765625,1.3341796875,1.34384765625,1.33740234375,1.34384765625,1.35029296875,1.3728515625,1.41796875,1.74990234375,2.26875,2.204296875,1.6048828125,1.37607421875,1.38251953125,1.36962890625,1.35673828125,1.34384765625,1.3470703125,1.340625,1.35029296875,1.3470703125,1.3470703125,1.34384765625,1.3470703125,1.353515625,1.353515625,1.35673828125,1.35673828125,1.353515625,1.36640625,1.36962890625,1.38251953125,1.379296875,1.3921875,1.3986328125,1.4115234375,1.4244140625,1.44052734375,1.46630859375,1.4888671875,1.5146484375,1.53720703125,1.559765625,1.5662109375,1.57265625,1.5791015625,1.5662109375,1.53720703125,1.4953125,1.45986328125,1.43408203125,1.40830078125,1.39541015625,1.3921875,1.36962890625,1.38251953125,1.36640625,1.36962890625,1.36640625,1.36318359375,1.35029296875,1.36962890625,1.36640625,1.3599609375,1.3599609375,1.36640625,1.36962890625,1.36640625,1.36962890625,1.36962890625,1.36640625,1.36640625,1.36640625,1.36640625,1.35673828125,1.36318359375,1.36640625,1.36318359375,1.36962890625,1.36318359375,1.36962890625,1.36318359375,1.3599609375,1.3599609375,1.3599609375,1.35029296875,1.3599609375,1.36318359375,1.35673828125,1.36640625,1.35673828125,1.353515625,1.35673828125,1.3599609375,1.35673828125,1.353515625,1.35673828125,1.35673828125,1.353515625,1.35029296875,1.36318359375,1.36318359375,1.35029296875,1.353515625,1.353515625,1.353515625,1.353515625,1.36640625,1.3599609375,1.36318359375,1.353515625,1.353515625,1.35029296875,1.36318359375,1.36318359375,1.3599609375,1.36318359375,1.36318359375,1.3599609375,1.36318359375,1.3599609375,1.36318359375,1.3728515625,1.379296875,1.38896484375,1.40830078125,1.40185546875,1.44052734375,1.47275390625,1.47275390625,1.42763671875,1.4373046875,1.3986328125,1.36962890625,1.353515625,1.35029296875,1.35673828125,1.340625,1.35029296875,1.3470703125,1.34384765625,1.3470703125,1.36318359375,1.38251953125,1.5984375,2.09150390625,2.358984375,1.83369140625,1.36640625,1.37607421875,1.36962890625,1.36962890625,1.353515625,1.3470703125,1.34384765625,1.353515625,1.34384765625,1.3470703125,1.3599609375,1.35029296875,1.35029296875,1.36318359375,1.35673828125,1.35673828125,1.3728515625,1.36640625,1.37607421875,1.37607421875,1.38251953125,1.38896484375,1.39541015625,1.41474609375,1.42119140625,1.44052734375,1.4630859375,1.48564453125,1.508203125,1.53076171875,1.55654296875,1.5662109375,1.5791015625,1.585546875,1.57587890625,1.55009765625,1.5146484375,1.4759765625,1.44697265625,1.41474609375,1.40185546875,1.3857421875,1.36962890625,1.36318359375,1.36962890625,1.36640625,1.36640625,1.36640625,1.3599609375,1.35673828125,1.36640625,1.36640625,1.36318359375,1.36318359375,1.36640625,1.3599609375,1.36318359375,1.35673828125,1.36640625,1.36962890625,1.36318359375,1.36318359375,1.35029296875,1.35673828125,1.353515625,1.35029296875,1.353515625,1.35673828125,1.353515625,1.353515625,1.36318359375,1.35029296875,1.353515625,1.3470703125,1.340625,1.34384765625,1.35673828125,1.353515625,1.34384765625,1.353515625,1.35029296875,1.340625,1.353515625,1.353515625,1.353515625,1.35029296875,1.3470703125,1.353515625,1.35029296875,1.35029296875,1.3470703125,1.353515625,1.353515625,1.34384765625,1.35673828125,1.353515625,1.35673828125,1.35029296875,1.35029296875,1.353515625,1.34384765625,1.353515625,1.3599609375,1.3599609375,1.3470703125,1.36318359375,1.36640625,1.353515625,1.353515625,1.35673828125,1.35029296875,1.37607421875,1.39541015625,1.405078125,1.3986328125,1.45986328125,1.4630859375,1.44052734375,1.430859375,1.41474609375,1.379296875,1.36640625,1.353515625,1.353515625,1.35029296875,1.34384765625,1.3470703125,1.34384765625,1.35029296875,1.36640625,1.37607421875,1.41796875,1.74345703125,2.24619140625,2.204296875,1.62744140625,1.36640625,1.379296875,1.379296875,1.353515625,1.353515625,1.35029296875,1.3599609375,1.35029296875,1.353515625,1.36318359375,1.353515625,1.36640625,1.3728515625,1.36640625,1.36640625,1.3599609375,1.37607421875,1.3728515625,1.36962890625,1.3857421875,1.40185546875,1.3986328125,1.3921875,1.44052734375,1.44697265625,1.4630859375,1.46953125,1.4953125,1.51787109375,1.55009765625,1.56943359375,1.5791015625,1.585546875,1.58232421875,1.56298828125,1.53720703125,1.51142578125,1.47275390625,1.430859375,1.4115234375,1.3921875,1.38251953125,1.36640625,1.3599609375,1.37607421875,1.3599609375,1.3599609375,1.3599609375,1.353515625,1.353515625,1.3470703125,1.3599609375,1.35673828125,1.35029296875,1.36640625,1.353515625,1.36318359375,1.36318359375,1.3599609375,1.3599609375,1.35673828125,1.36318359375,1.3599609375,1.3599609375,1.3599609375,1.35673828125,1.34384765625,1.35673828125,1.3599609375,1.35029296875,1.353515625,1.34384765625,1.3470703125,1.35673828125,1.340625,1.3599609375,1.353515625,1.35673828125,1.353515625,1.3470703125,1.35029296875,1.353515625,1.340625,1.35029296875,1.34384765625,1.340625,1.35673828125,1.3470703125,1.35029296875,1.35673828125,1.34384765625,1.35673828125,1.3470703125,1.3599609375,1.353515625,1.35029296875,1.35673828125,1.34384765625,1.353515625,1.3599609375,1.35673828125,1.35673828125,1.35029296875,1.35029296875,1.36640625,1.3599609375,1.38896484375,1.3986328125,1.4115234375,1.4501953125,1.4630859375,1.44052734375,1.42119140625,1.42763671875,1.379296875,1.3599609375,1.353515625,1.340625,1.3470703125,1.340625,1.34384765625,1.34384765625,1.34384765625,1.3599609375,1.37607421875,1.41474609375,1.740234375,2.2494140625,2.1720703125,1.5919921875,1.37607421875,1.379296875,1.36962890625,1.3599609375,1.353515625,1.34384765625,1.34384765625,1.34384765625,1.353515625,1.353515625,1.35673828125,1.35029296875,1.35029296875,1.34384765625,1.36318359375,1.3599609375,1.3599609375,1.36640625,1.36962890625,1.37607421875,1.3728515625,1.39541015625,1.39541015625,1.41796875,1.430859375,1.44052734375,1.456640625,1.49853515625,1.51142578125,1.5404296875,1.5662109375,1.57587890625,1.57587890625,1.5791015625,1.559765625,1.54365234375,1.49208984375,1.4630859375,1.430859375,1.41474609375,1.3986328125,1.3857421875,1.379296875,1.3728515625,1.3599609375,1.379296875,1.36962890625,1.36640625,1.36318359375,1.36640625,1.36318359375,1.3599609375,1.36318359375,1.36640625,1.3728515625,1.36640625,1.3728515625,1.37607421875,1.3599609375,1.36318359375,1.3599609375,1.35673828125,1.36962890625,1.36640625,1.36318359375,1.3599609375,1.36318359375,1.35673828125,1.3470703125,1.3599609375,1.353515625,1.36318359375,1.3599609375,1.3599609375,1.36640625,1.353515625,1.353515625,1.3599609375,1.36318359375,1.353515625,1.35673828125,1.35673828125,1.36318359375,1.3599609375,1.3599609375,1.36318359375,1.35673828125,1.353515625,1.353515625,1.35673828125,1.353515625,1.353515625,1.3599609375,1.35029296875,1.35673828125,1.35673828125,1.34384765625,1.353515625,1.35029296875,1.35029296875,1.353515625,1.3599609375,1.353515625,1.3599609375,1.35029296875,1.353515625,1.35673828125,1.379296875,1.3921875,1.39541015625,1.44052734375,1.4759765625,1.456640625,1.4244140625,1.43408203125,1.39541015625,1.37607421875,1.35029296875,1.340625,1.3341796875,1.33740234375,1.33095703125,1.33740234375,1.3341796875,1.3341796875,1.35029296875,1.3857421875,1.57587890625,2.03671875,2.36220703125,1.869140625,1.3599609375,1.36962890625,1.3728515625,1.36318359375,1.35029296875,1.33740234375,1.3470703125,1.34384765625,1.3341796875,1.3470703125,1.353515625,1.34384765625,1.3470703125,1.353515625,1.34384765625,1.353515625,1.3470703125,1.36318359375,1.3728515625,1.3728515625,1.37607421875,1.39541015625,1.3986328125,1.405078125,1.41796875,1.4373046875,1.45986328125,1.482421875,1.50498046875,1.5275390625,1.546875,1.56298828125,1.5791015625,1.5791015625,1.57587890625,1.5533203125,1.51787109375,1.482421875,1.4373046875,1.4244140625,1.39541015625,1.38896484375,1.37607421875,1.36962890625,1.37607421875,1.36640625,1.36640625,1.36640625,1.36318359375,1.35673828125,1.3599609375,1.36318359375,1.3599609375,1.353515625,1.3599609375,1.35673828125,1.36640625,1.36640625,1.36318359375,1.37607421875,1.36318359375,1.3599609375,1.3599609375,1.379296875,1.35673828125,1.3599609375,1.353515625,1.35673828125,1.353515625,1.34384765625,1.36318359375,1.35029296875,1.3599609375,1.3599609375,1.34384765625,1.36318359375,1.3470703125,1.3470703125,1.35029296875,1.35673828125,1.36640625,1.36318359375,1.3599609375,1.3728515625,1.3599609375,1.36318359375,1.353515625,1.36318359375,1.36640625,1.353515625,1.36640625,1.35029296875,1.340625,1.36640625,1.35673828125,1.35029296875,1.36640625,1.3599609375,1.35029296875,1.3470703125,1.36962890625,1.36962890625,1.36640625,1.37607421875,1.37607421875,1.3986328125,1.38896484375,1.42763671875,1.45341796875,1.4630859375,1.42763671875,1.43408203125,1.40830078125,1.3728515625,1.35673828125,1.35029296875,1.353515625,1.35029296875,1.3470703125,1.35029296875,1.35029296875,1.35029296875,1.36318359375,1.3857421875,1.4888671875,1.88203125,2.255859375,1.93037109375,1.39541015625,1.3728515625,1.38896484375,1.3728515625,1.353515625,1.3599609375,1.35029296875,1.34384765625,1.3470703125,1.353515625,1.3470703125,1.3470703125,1.353515625,1.35029296875,1.35673828125,1.3599609375,1.36318359375,1.36962890625,1.36640625,1.37607421875,1.38896484375,1.3857421875,1.3921875,1.40830078125,1.4244140625,1.43408203125,1.44697265625,1.47275390625,1.49208984375,1.508203125,1.5404296875,1.55654296875,1.56298828125,1.57587890625,1.56943359375,1.5533203125,1.5017578125,1.4759765625,1.44052734375,1.41474609375,1.39541015625,1.38251953125,1.3728515625,1.36962890625,1.36318359375,1.35673828125,1.35673828125,1.35673828125,1.35673828125,1.35673828125,1.353515625,1.35029296875,1.36318359375,1.3470703125,1.36640625,1.36962890625,1.36640625,1.36640625,1.36318359375,1.36318359375,1.36318359375,1.3599609375,1.3599609375,1.36318359375,1.35673828125,1.353515625,1.35673828125,1.3599609375,1.353515625,1.35029296875,1.3470703125,1.3470703125,1.34384765625,1.353515625,1.35673828125,1.353515625,1.3470703125,1.34384765625,1.353515625,1.353515625,1.353515625,1.3470703125,1.35029296875,1.35673828125,1.353515625,1.35029296875,1.353515625,1.353515625,1.3599609375,1.35029296875,1.35673828125,1.35029296875,1.353515625,1.35673828125,1.3470703125,1.35673828125,1.35029296875,1.35029296875,1.353515625,1.36318359375,1.38251953125,1.3921875,1.39541015625,1.43408203125,1.4501953125,1.456640625,1.42119140625,1.42119140625,1.38251953125,1.353515625,1.340625,1.3341796875,1.33740234375,1.34384765625,1.33740234375,1.33740234375,1.3341796875,1.340625,1.36318359375,1.37607421875,1.57587890625,2.023828125,2.307421875,1.843359375,1.37607421875,1.38896484375,1.379296875,1.36318359375,1.3470703125,1.34384765625,1.35029296875,1.340625,1.35029296875,1.3470703125,1.36318359375,1.35673828125,1.353515625,1.3599609375,1.35673828125,1.36318359375,1.3728515625,1.3728515625,1.379296875,1.3857421875,1.39541015625,1.39541015625,1.41474609375,1.41474609375,1.430859375,1.44375,1.46630859375,1.48564453125,1.50498046875,1.5404296875,1.55654296875,1.57587890625,1.585546875,1.585546875,1.56943359375,1.55009765625,1.51142578125,1.482421875,1.45341796875,1.42763671875,1.4115234375,1.39541015625,1.3921875,1.3857421875,1.37607421875,1.37607421875,1.3728515625,1.36962890625,1.36962890625,1.36640625,1.36962890625,1.36640625,1.36640625,1.36318359375,1.36962890625,1.36318359375,1.36640625,1.36318359375,1.3599609375,1.36640625,1.36318359375,1.35673828125,1.3599609375,1.35673828125,1.3599609375,1.353515625,1.35673828125,1.353515625,1.353515625,1.35029296875,1.353515625,1.35029296875,1.353515625,1.3470703125,1.3470703125,1.3470703125,1.3470703125,1.35029296875,1.35029296875,1.35029296875,1.35029296875,1.35029296875,1.3470703125,1.3470703125,1.34384765625,1.3470703125,1.353515625,1.3470703125,1.3599609375,1.35673828125,1.340625,1.35029296875,1.353515625,1.35673828125,1.3470703125,1.353515625,1.33740234375,1.34384765625,1.340625,1.353515625,1.340625,1.35029296875,1.36962890625,1.3921875,1.38896484375,1.42119140625,1.47275390625,1.46630859375,1.4244140625,1.40830078125,1.37607421875,1.3470703125,1.32451171875,1.32451171875,1.327734375,1.33740234375,1.31806640625,1.327734375,1.32451171875,1.32451171875,1.34384765625,1.36640625,1.533984375,2.02060546875,2.358984375,1.89169921875,1.37607421875,1.36962890625,1.36318359375,1.35029296875,1.3341796875,1.3341796875,1.33095703125,1.340625,1.33095703125,1.31806640625,1.34384765625,1.34384765625,1.3341796875,1.340625,1.33740234375,1.35029296875,1.3470703125,1.33740234375,1.353515625,1.3599609375,1.37607421875,1.37607421875,1.379296875,1.40830078125,1.405078125,1.4373046875,1.44697265625,1.4759765625,1.4953125,1.5275390625,1.55009765625,1.559765625,1.5662109375,1.57587890625,1.55654296875,1.53076171875,1.508203125,1.46630859375,1.44697265625,1.42763671875,1.3986328125,1.3986328125,1.38896484375,1.379296875,1.379296875,1.38251953125,1.36640625,1.379296875,1.36640625,1.36962890625,1.353515625,1.3728515625,1.36640625,1.36962890625,1.3728515625,1.37607421875,1.379296875,1.36640625,1.3921875,1.38251953125,1.37607421875,1.3728515625,1.37607421875,1.37607421875,1.37607421875,1.38896484375,1.3728515625,1.379296875,1.379296875,1.37607421875,1.3728515625,1.3728515625,1.36640625,1.36640625,1.3728515625,1.379296875,1.36962890625,1.38251953125,1.3728515625,1.37607421875,1.38251953125,1.38251953125,1.38896484375,1.38251953125,1.38896484375,1.379296875,1.3857421875,1.3728515625,1.38896484375,1.3728515625,1.3857421875,1.3728515625,1.38251953125,1.38251953125,1.3921875,1.3857421875,1.37607421875,1.38251953125,1.38251953125,1.3857421875,1.405078125,1.41796875,1.40830078125,1.44052734375,1.4759765625,1.482421875,1.45986328125,1.4501953125,1.43408203125
1.405078125,1.38896484375,1.3986328125,1.38896484375,1.379296875,1.37607421875,1.38251953125,1.379296875,1.379296875,1.37607421875,1.3728515625,1.36640625,1.379296875,1.36962890625,1.38251953125,1.36962890625,1.37607421875,1.38251953125,1.3728515625,1.379296875,1.36962890625,1.37607421875,1.37607421875,1.3728515625,1.36962890625,1.36962890625,1.36962890625,1.37607421875,1.3599609375,1.36640625,1.36962890625,1.36318359375,1.35673828125,1.35029296875,1.3599609375,1.36640625,1.36640625,1.35673828125,1.37607421875,1.379296875,1.36318359375,1.3728515625,1.36962890625,1.36640625,1.36962890625,1.36318359375,1.35673828125,1.353515625,1.36318359375,1.36962890625,1.36640625,1.36640625,1.3599609375,1.3599609375,1.36962890625,1.36640625,1.3599609375,1.36640625,1.36640625,1.36318359375,1.3599609375,1.36640625,1.36640625,1.3857421875,1.39541015625,1.405078125,1.42763671875,1.45986328125,1.48564453125,1.44697265625,1.43408203125,1.4244140625,1.3857421875,1.36318359375,1.3599609375,1.35029296875,1.35029296875,1.353515625,1.3470703125,1.35029296875,1.353515625,1.3599609375,1.3857421875,1.41796875,1.73056640625,2.2494140625,2.2171875,1.62421875,1.379296875,1.39541015625,1.37607421875,1.36318359375,1.35673828125,1.34384765625,1.353515625,1.34384765625,1.33740234375,1.35029296875,1.3470703125,1.353515625,1.353515625,1.3599609375,1.353515625,1.35673828125,1.35673828125,1.36318359375,1.353515625,1.37607421875,1.3728515625,1.379296875,1.38896484375,1.3986328125,1.42119140625,1.43408203125,1.44697265625,1.4759765625,1.49208984375,1.5146484375,1.546875,1.559765625,1.56298828125,1.57265625,1.5533203125,1.53076171875,1.4953125,1.45986328125,1.4373046875,1.4115234375,1.405078125,1.38251953125,1.379296875,1.3728515625,1.3599609375,1.3728515625,1.3599609375,1.35673828125,1.36318359375,1.36318359375,1.3599609375,1.36318359375,1.36318359375,1.36318359375,1.36318359375,1.3728515625,1.36962890625,1.3599609375,1.3599609375,1.36318359375,1.36640625,1.36318359375,1.35673828125,1.36962890625,1.35673828125,1.353515625,1.353515625,1.353515625,1.3599609375,1.35029296875,1.353515625,1.35673828125,1.3599609375,1.35029296875,1.36318359375,1.35673828125,1.353515625,1.35029296875,1.3470703125,1.3470703125,1.35029296875,1.35673828125,1.35029296875,1.35673828125,1.35673828125,1.34384765625,1.35029296875,1.33740234375,1.35029296875,1.35029296875,1.35673828125,1.353515625,1.353515625,1.3599609375,1.340625,1.35673828125,1.35673828125,1.35673828125,1.35029296875,1.353515625,1.36318359375,1.3728515625,1.3921875,1.3986328125,1.40185546875,1.42763671875,1.46953125,1.45341796875,1.42763671875,1.42119140625,1.379296875,1.35673828125,1.353515625,1.3341796875,1.35029296875,1.340625,1.34384765625,1.34384765625,1.35029296875,1.3599609375,1.36640625,1.38251953125,1.61455078125,2.075390625,2.27197265625,1.74990234375,1.35673828125,1.36640625,1.3728515625,1.3470703125,1.35029296875,1.34384765625,1.3470703125,1.340625,1.3470703125,1.34384765625,1.35029296875,1.353515625,1.33740234375,1.36640625,1.35029296875,1.36318359375,1.3599609375,1.36640625,1.36640625,1.37607421875,1.36962890625,1.3857421875,1.405078125,1.40830078125,1.41474609375,1.4373046875,1.44697265625,1.4888671875,1.49208984375,1.5146484375,1.53076171875,1.55009765625,1.5662109375,1.55009765625,1.5533203125,1.533984375,1.4888671875,1.4630859375,1.42763671875,1.4115234375,1.3986328125,1.38251953125,1.3857421875,1.37607421875,1.36640625,1.36318359375,1.36318359375,1.3599609375,1.36640625,1.36640625,1.36640625,1.3599609375,1.36962890625,1.3728515625,1.3728515625,1.3599609375,1.36640625,1.36640625,1.36318359375,1.36640625,1.36640625,1.353515625,1.35673828125,1.36640625,1.36640625,1.3599609375,1.36318359375,1.3599609375,1.36318359375,1.35029296875,1.35673828125,1.35673828125,1.35673828125,1.35673828125,1.3599609375,1.340625,1.36318359375,1.353515625,1.34384765625,1.353515625,1.353515625,1.3599609375,1.353515625,1.3599609375,1.3470703125,1.36318359375,1.35029296875,1.36962890625,1.35029296875,1.3599609375,1.35673828125,1.36318359375,1.35673828125,1.36318359375,1.35673828125,1.36318359375,1.379296875,1.3986328125,1.39541015625,1.40830078125,1.4373046875,1.45986328125,1.4501953125,1.4244140625,1.40185546875,1.37607421875,1.3470703125,1.34384765625,1.340625,1.34384765625,1.33740234375,1.33095703125,1.33740234375,1.35029296875,1.33740234375,1.3728515625,1.39541015625,1.65966796875,2.1333984375,2.1978515625,1.65966796875,1.36318359375,1.38251953125,1.35673828125,1.35673828125,1.340625,1.340625,1.33740234375,1.33740234375,1.340625,1.3470703125,1.340625,1.35029296875,1.3470703125,1.35029296875,1.35029296875,1.35673828125,1.35029296875,1.36318359375,1.36318359375,1.36962890625,1.3728515625,1.3921875,1.3921875,1.4115234375,1.41796875,1.4373046875,1.4630859375,1.47275390625,1.4953125,1.5275390625,1.5404296875,1.56298828125,1.5662109375,1.57265625,1.546875,1.52109375,1.4953125,1.46953125,1.42763671875,1.41474609375,1.38896484375,1.38251953125,1.36318359375,1.3728515625,1.36318359375,1.36318359375,1.3599609375,1.36318359375,1.36962890625,1.3599609375,1.353515625,1.353515625,1.353515625,1.36318359375,1.3728515625,1.36318359375,1.3728515625,1.3599609375,1.3599609375,1.3599609375,1.35673828125,1.3599609375,1.3599609375,1.3599609375,1.35029296875,1.3599609375,1.3599609375,1.35029296875,1.353515625,1.3470703125,1.35673828125,1.35029296875,1.35673828125,1.35673828125,1.36318359375,1.353515625,1.35673828125,1.35673828125,1.35673828125,1.3470703125,1.3470703125,1.353515625,1.36318359375,1.35673828125,1.3599609375,1.353515625,1.3599609375,1.353515625,1.3599609375,1.35673828125,1.3599609375,1.3599609375,1.3599609375,1.36962890625,1.35029296875,1.36318359375,1.379296875,1.3857421875,1.3986328125,1.38896484375,1.42763671875,1.46630859375,1.47275390625,1.45341796875,1.43408203125,1.41474609375,1.38251953125,1.353515625,1.340625,1.3470703125,1.340625,1.340625,1.3341796875,1.340625,1.33740234375,1.35029296875,1.3728515625,1.4115234375,1.74990234375,2.2623046875,2.1720703125,1.5919921875,1.36962890625,1.3857421875,1.36318359375,1.353515625,1.34384765625,1.34384765625,1.340625,1.35029296875,1.340625,1.340625,1.340625,1.353515625,1.35673828125,1.3470703125,1.353515625,1.3599609375,1.353515625,1.3599609375,1.3599609375,1.379296875,1.379296875,1.38896484375,1.3986328125,1.405078125,1.4244140625,1.4373046875,1.456640625,1.46953125,1.5017578125,1.5146484375,1.546875,1.559765625,1.56943359375,1.559765625,1.55009765625,1.52109375,1.4953125,1.4501953125,1.42119140625,1.40830078125,1.38896484375,1.38251953125,1.37607421875,1.36962890625,1.35673828125,1.36318359375,1.3599609375,1.35673828125,1.3599609375,1.36962890625,1.36318359375,1.353515625,1.3599609375,1.3599609375,1.36318359375,1.36318359375,1.36640625,1.36318359375,1.36318359375,1.3599609375,1.36640625,1.35673828125,1.35029296875,1.35673828125,1.3599609375,1.353515625,1.353515625,1.35673828125,1.3470703125,1.353515625,1.3470703125,1.3470703125,1.34384765625,1.34384765625,1.35029296875,1.35029296875,1.3470703125,1.353515625,1.34384765625,1.353515625,1.35029296875,1.3470703125,1.35029296875,1.36318359375,1.353515625,1.35029296875,1.340625,1.35673828125,1.353515625,1.3470703125,1.35029296875,1.35673828125,1.3470703125,1.340625,1.353515625,1.34384765625,1.353515625,1.37607421875,1.3921875,1.38896484375,1.40830078125,1.44375,1.45341796875,1.44375,1.430859375,1.3921875,1.3728515625,1.35029296875,1.33740234375,1.340625,1.33740234375,1.3341796875,1.340625,1.34384765625,1.3341796875,1.353515625,1.379296875,1.405078125,1.7080078125,2.2107421875,2.20107421875,1.6306640625,1.3599609375,1.38251953125,1.36318359375,1.36640625,1.35029296875,1.353515625,1.340625,1.3470703125,1.3470703125,1.35029296875,1.3470703125,1.3470703125,1.3470703125,1.35029296875,1.3599609375,1.36318359375,1.353515625,1.36962890625,1.38251953125,1.36962890625,1.39541015625,1.3986328125,1.40185546875,1.41796875,1.42119140625,1.45341796875,1.456640625,1.482421875,1.49853515625,1.5275390625,1.546875,1.55009765625,1.55654296875,1.559765625,1.5404296875,1.51142578125,1.4759765625,1.45986328125,1.4244140625,1.4244140625,1.38251953125,1.379296875,1.36962890625,1.3599609375,1.3728515625,1.3599609375,1.353515625,1.3599609375,1.3599609375,1.35673828125,1.3599609375,1.35673828125,1.36640625,1.36962890625,1.37607421875,1.36640625,1.36640625,1.36318359375,1.36962890625,1.36318359375,1.3599609375,1.36962890625,1.36640625,1.36640625,1.36640625,1.35673828125,1.35673828125,1.36640625,1.35673828125,1.36318359375,1.353515625,1.35673828125,1.36318359375,1.36318359375,1.35673828125,1.36640625,1.35673828125,1.36318359375,1.35673828125,1.35673828125,1.35673828125,1.3599609375,1.3599609375,1.35673828125,1.353515625,1.353515625,1.3599609375,1.353515625,1.353515625,1.35673828125,1.353515625,1.36318359375,1.3599609375,1.3599609375,1.3857421875,1.39541015625,1.3986328125,1.43408203125,1.4630859375,1.45341796875,1.41474609375,1.41796875,1.37607421875,1.36318359375,1.34384765625,1.3341796875,1.340625,1.33095703125,1.340625,1.340625,1.3341796875,1.34384765625,1.36640625,1.3728515625,1.585546875,2.023828125,2.25908203125,1.77890625,1.36318359375,1.37607421875,1.3728515625,1.35673828125,1.353515625,1.35029296875,1.3470703125,1.340625,1.3470703125,1.34384765625,1.34384765625,1.3470703125,1.33095703125,1.3470703125,1.3470703125,1.35029296875,1.3470703125,1.36318359375,1.36640625,1.3728515625,1.36962890625,1.3728515625,1.38896484375,1.3921875,1.41474609375,1.42763671875,1.44697265625,1.46630859375,1.49853515625,1.51787109375,1.53076171875,1.55009765625,1.559765625,1.55654296875,1.559765625,1.533984375,1.49853515625,1.45986328125,1.430859375,1.40185546875,1.38896484375,1.38251953125,1.3728515625,1.36962890625,1.37607421875,1.3599609375,1.36640625,1.36318359375,1.35029296875,1.35673828125,1.36318359375,1.353515625,1.36318359375,1.36962890625,1.3728515625,1.36318359375,1.36640625,1.36640625,1.36962890625,1.36318359375,1.3728515625,1.35673828125,1.35673828125,1.36640625,1.36318359375,1.35673828125,1.36318359375,1.35029296875,1.353515625,1.35673828125,1.35029296875,1.35029296875,1.3599609375,1.353515625,1.35673828125,1.35029296875,1.35029296875,1.353515625,1.35029296875,1.35673828125,1.3599609375,1.353515625,1.35673828125,1.353515625,1.35673828125,1.35673828125,1.353515625,1.35673828125,1.3599609375,1.35673828125,1.35673828125,1.34384765625,1.35029296875,1.3599609375,1.33740234375,1.353515625,1.36318359375,1.3728515625,1.3921875,1.40185546875,1.40185546875,1.43408203125,1.47275390625,1.45986328125,1.42119140625,1.42119140625,1.379296875,1.35673828125,1.3470703125,1.3470703125,1.33740234375,1.3341796875,1.3470703125,1.3341796875,1.3341796875,1.33740234375,1.3599609375,1.379296875,1.60810546875,2.09794921875,2.3138671875,1.77568359375,1.36318359375,1.3921875,1.3728515625,1.35673828125,1.353515625,1.34384765625,1.3470703125,1.35029296875,1.353515625,1.33740234375,1.35029296875,1.3470703125,1.3470703125,1.36318359375,1.340625,1.35673828125,1.35673828125,1.3599609375,1.36318359375,1.36640625,1.379296875,1.38896484375,1.3857421875,1.40830078125,1.4115234375,1.4373046875,1.45341796875,1.4759765625,1.4953125,1.52109375,1.5404296875,1.55654296875,1.57587890625,1.57265625,1.56298828125,1.533984375,1.50498046875,1.45986328125,1.4373046875,1.4115234375,1.3986328125,1.38896484375,1.3728515625,1.3857421875,1.36318359375,1.36962890625,1.37607421875,1.36962890625,1.3728515625,1.36318359375,1.37607421875,1.36962890625,1.379296875,1.36640625,1.36962890625,1.36640625,1.36640625,1.36640625,1.36640625,1.3728515625,1.36640625,1.36640625,1.3728515625,1.3599609375,1.3599609375,1.35673828125,1.3599609375,1.3599609375,1.36318359375,1.353515625,1.35673828125,1.36318359375,1.35673828125,1.33740234375,1.35673828125,1.35673828125,1.3470703125,1.35029296875,1.36318359375,1.353515625,1.35029296875,1.353515625,1.3599609375,1.35673828125,1.35673828125,1.35673828125,1.353515625,1.35673828125,1.3599609375,1.35029296875,1.35673828125,1.3599609375,1.34384765625,1.35029296875,1.3599609375,1.3470703125,1.35673828125,1.353515625,1.35673828125,1.353515625,1.36318359375,1.36318359375,1.3728515625,1.3857421875,1.3921875,1.39541015625,1.4373046875,1.4759765625,1.4501953125,1.42763671875,1.42119140625,1.36318359375,1.353515625,1.35029296875,1.34384765625,1.3341796875,1.33740234375,1.3470703125,1.3470703125,1.35029296875,1.34384765625,1.3728515625,1.379296875,1.6177734375,2.08828125,2.307421875,1.766015625,1.35673828125,1.3728515625,1.3728515625,1.36318359375,1.353515625,1.34384765625,1.35673828125,1.3341796875,1.353515625,1.35029296875,1.35029296875,1.353515625,1.35673828125,1.35673828125,1.35673828125,1.36962890625,1.3599609375,1.3599609375,1.3728515625,1.36962890625,1.3857421875,1.38896484375,1.4115234375,1.40185546875,1.42763671875,1.430859375,1.44052734375,1.47919921875,1.4953125,1.5275390625,1.533984375,1.55009765625,1.559765625,1.5662109375,1.56298828125,1.53076171875,1.49853515625,1.45986328125,1.43408203125,1.405078125,1.38896484375,1.3857421875,1.37607421875,1.36318359375,1.36962890625,1.36962890625,1.36318359375,1.353515625,1.3599609375,1.36962890625,1.36640625,1.3599609375,1.3599609375,1.353515625,1.36962890625,1.36318359375,1.3728515625,1.3599609375,1.36640625,1.36962890625,1.36962890625,1.36318359375,1.36640625,1.36962890625,1.353515625,1.35673828125,1.353515625,1.353515625,1.353515625,1.3470703125,1.3599609375,1.35673828125,1.35673828125,1.353515625,1.353515625,1.3599609375,1.35029296875,1.35673828125,1.35029296875,1.3470703125,1.3470703125,1.35029296875,1.3470703125,1.3470703125,1.35029296875,1.35673828125,1.35029296875,1.3599609375,1.353515625,1.35029296875,1.35029296875,1.35029296875,1.36318359375,1.353515625,1.3599609375,1.3599609375,1.36318359375,1.3599609375,1.3599609375,1.353515625,1.36318359375,1.35029296875,1.3728515625,1.38896484375,1.3921875,1.39541015625,1.43408203125,1.4630859375,1.45341796875,1.42763671875,1.41796875,1.3857421875,1.353515625,1.33740234375,1.35029296875,1.3470703125,1.3470703125,1.3341796875,1.35029296875,1.3470703125,1.35029296875,1.36640625,1.3857421875,1.60166015625,2.06572265625,2.27197265625,1.753125,1.3728515625,1.379296875,1.36318359375,1.36318359375,1.35029296875,1.353515625,1.35029296875,1.34384765625,1.340625,1.353515625,1.35029296875,1.35029296875,1.3599609375,1.36318359375,1.36318359375,1.353515625,1.3599609375,1.35673828125,1.36962890625,1.3728515625,1.37607421875,1.3857421875,1.3921875,1.4115234375,1.42119140625,1.43408203125,1.45341796875,1.47919921875,1.49853515625,1.5275390625,1.55009765625,1.56298828125,1.5662109375,1.57265625,1.5662109375,1.54365234375,1.50498046875,1.47275390625,1.44375,1.41474609375,1.40830078125,1.40185546875,1.36640625,1.379296875,1.3728515625,1.36962890625,1.36640625,1.3728515625,1.36640625,1.3728515625,1.36962890625,1.36640625,1.3728515625,1.36962890625,1.38896484375,1.37607421875,1.38251953125,1.3728515625,1.37607421875,1.379296875,1.37607421875,1.37607421875,1.36962890625,1.3728515625,1.36640625,1.3728515625,1.36318359375,1.36640625,1.36640625,1.36640625,1.353515625,1.36962890625,1.36640625,1.36640625,1.36318359375,1.36962890625,1.3599609375,1.36640625,1.36640625,1.3599609375,1.36962890625,1.36318359375,1.36640625,1.3599609375,1.36640625,1.36318359375,1.3599609375,1.36318359375,1.36318359375,1.36318359375,1.35673828125,1.36318359375,1.36962890625,1.36640625,1.36962890625,1.36962890625,1.36318359375,1.36318359375,1.3728515625,1.3599609375,1.36962890625,1.3599609375,1.36640625,1.36962890625,1.36640625,1.3728515625,1.3728515625,1.38251953125,1.40185546875,1.40830078125,1.40830078125,1.4501953125,1.47275390625,1.46630859375,1.43408203125,1.43408203125,1.38896484375,1.37607421875,1.35673828125,1.3470703125,1.3470703125,1.33740234375,1.34384765625,1.3341796875,1.340625,1.3341796875,1.36318359375,1.379296875,1.60166015625,2.08828125,2.3203125,1.77890625,1.36318359375,1.3599609375,1.36318359375,1.34384765625,1.33740234375,1.33095703125,1.327734375,1.3212890625,1.32451171875,1.31484375,1.327734375,1.327734375,1.33095703125,1.3212890625,1.33095703125,1.3341796875,1.327734375,1.33095703125,1.3341796875,1.34384765625,1.353515625,1.353515625,1.3599609375,1.3728515625,1.37607421875,1.39541015625,1.405078125,1.42763671875,1.45341796875,1.46953125,1.49853515625,1.5017578125,1.52109375,1.52109375,1.52109375,1.4888671875,1.44697265625,1.42119140625,1.3857421875,1.35029296875,1.340625,1.3212890625,1.31806640625,1.30517578125,1.301953125
1.56943359375,1.5791015625,1.5791015625,1.5662109375,1.533984375,1.51142578125,1.47275390625,1.44697265625,1.42763671875,1.40830078125,1.39541015625,1.3921875,1.39541015625,1.3921875,1.38251953125,1.38896484375,1.379296875,1.38896484375,1.38251953125,1.3857421875,1.379296875,1.3921875,1.3857421875,1.40185546875,1.3921875,1.3921875,1.37607421875,1.379296875,1.38251953125,1.38251953125,1.379296875,1.3857421875,1.3857421875,1.37607421875,1.36962890625,1.379296875,1.36962890625,1.37607421875,1.3599609375,1.36640625,1.36962890625,1.36640625,1.3599609375,1.36318359375,1.36318359375,1.36962890625,1.36318359375,1.36640625,1.36962890625,1.35673828125,1.3599609375,1.36640625,1.34384765625,1.3728515625,1.36318359375,1.36640625,1.353515625,1.3599609375,1.36318359375,1.35673828125,1.35673828125,1.36962890625,1.36318359375,1.36318359375,1.36318359375,1.36640625,1.36640625,1.3921875,1.40185546875,1.4115234375,1.430859375,1.46630859375,1.47275390625,1.42763671875,1.4244140625,1.379296875,1.36640625,1.35029296875,1.34384765625,1.35029296875,1.3470703125,1.33740234375,1.340625,1.34384765625,1.340625,1.36318359375,1.37607421875,1.5791015625,2.02060546875,2.3009765625,1.8369140625,1.379296875,1.36962890625,1.3728515625,1.3470703125,1.35673828125,1.3470703125,1.35673828125,1.33095703125,1.35029296875,1.34384765625,1.35673828125,1.340625,1.35029296875,1.353515625,1.3599609375,1.3470703125,1.35673828125,1.34384765625,1.36318359375,1.36962890625,1.37607421875,1.36962890625,1.3857421875,1.38896484375,1.41796875,1.41796875,1.44375,1.456640625,1.48564453125,1.50498046875,1.5404296875,1.54365234375,1.55654296875,1.56298828125,1.55009765625,1.5404296875,1.49853515625,1.46953125,1.430859375,1.40830078125,1.3857421875,1.3857421875,1.36962890625,1.35673828125,1.3599609375,1.35673828125,1.35029296875,1.3599609375,1.35673828125,1.353515625,1.35673828125,1.35673828125,1.353515625,1.35029296875,1.353515625,1.36318359375,1.36318359375,1.33740234375,1.3599609375,1.35673828125,1.3599609375,1.36318359375,1.35673828125,1.353515625,1.36318359375,1.353515625,1.35029296875,1.353515625,1.353515625,1.340625,1.3599609375,1.353515625,1.35029296875,1.3599609375,1.35673828125,1.340625,1.35029296875,1.35673828125,1.35029296875,1.3599609375,1.35029296875,1.35673828125,1.3470703125,1.35673828125,1.35673828125,1.35029296875,1.353515625,1.3599609375,1.3470703125,1.35673828125,1.35673828125,1.36318359375,1.3470703125,1.35673828125,1.353515625,1.3470703125,1.35673828125,1.3599609375,1.35673828125,1.36640625,1.38896484375,1.39541015625,1.3986328125,1.42763671875,1.45986328125,1.47275390625,1.44052734375,1.430859375,1.405078125,1.3599609375,1.34384765625,1.35029296875,1.3599609375,1.34384765625,1.3470703125,1.3470703125,1.33740234375,1.3470703125,1.353515625,1.36962890625,1.482421875,1.869140625,2.33642578125,2.05283203125,1.45341796875,1.36318359375,1.3921875,1.353515625,1.36318359375,1.3470703125,1.34384765625,1.35029296875,1.3470703125,1.35029296875,1.34384765625,1.353515625,1.35029296875,1.36318359375,1.35673828125,1.3599609375,1.353515625,1.36318359375,1.36962890625,1.37607421875,1.38251953125,1.38251953125,1.3986328125,1.39541015625,1.4115234375,1.42763671875,1.44375,1.47275390625,1.482421875,1.51142578125,1.54365234375,1.5533203125,1.57265625,1.559765625,1.58232421875,1.56943359375,1.52431640625,1.49208984375,1.45986328125,1.4373046875,1.4115234375,1.3986328125,1.3857421875,1.37607421875,1.37607421875,1.37607421875,1.36640625,1.36640625,1.35029296875,1.36318359375,1.3599609375,1.3599609375,1.36318359375,1.36640625,1.36640625,1.353515625,1.3599609375,1.3599609375,1.36318359375,1.36640625,1.35673828125,1.3599609375,1.36318359375,1.3599609375,1.36318359375,1.3599609375,1.36640625,1.3599609375,1.353515625,1.35029296875,1.35029296875,1.3470703125,1.34384765625,1.340625,1.35673828125,1.36318359375,1.34384765625,1.34384765625,1.3470703125,1.36318359375,1.35673828125,1.35029296875,1.34384765625,1.353515625,1.353515625,1.353515625,1.34384765625,1.34384765625,1.353515625,1.3470703125,1.35673828125,1.3341796875,1.3470703125,1.340625,1.353515625,1.35029296875,1.3470703125,1.3470703125,1.353515625,1.36962890625,1.37607421875,1.3986328125,1.37607421875,1.4115234375,1.45341796875,1.456640625,1.42119140625,1.42119140625,1.38896484375,1.36318359375,1.340625,1.353515625,1.353515625,1.34384765625,1.34384765625,1.340625,1.340625,1.3470703125,1.35673828125,1.38251953125,1.456640625,1.843359375,2.2880859375,2.0044921875,1.4501953125,1.36640625,1.36640625,1.36962890625,1.35673828125,1.35673828125,1.3470703125,1.34384765625,1.3599609375,1.353515625,1.353515625,1.35673828125,1.36640625,1.35029296875,1.3599609375,1.3599609375,1.36640625,1.35673828125,1.36640625,1.36640625,1.38251953125,1.3921875,1.40830078125,1.405078125,1.41796875,1.430859375,1.44375,1.45986328125,1.49853515625,1.50498046875,1.533984375,1.54365234375,1.559765625,1.55654296875,1.5662109375,1.55009765625,1.51787109375,1.48564453125,1.4630859375,1.4244140625,1.405078125,1.3857421875,1.37607421875,1.37607421875,1.3599609375,1.36318359375,1.36962890625,1.3599609375,1.3599609375,1.36318359375,1.3599609375,1.36640625,1.36962890625,1.35673828125,1.36962890625,1.36318359375,1.36640625,1.3599609375,1.36640625,1.36640625,1.36318359375,1.3728515625,1.36318359375,1.36318359375,1.35673828125,1.35673828125,1.36640625,1.353515625,1.35673828125,1.35029296875,1.34384765625,1.35029296875,1.36318359375,1.353515625,1.3599609375,1.34384765625,1.35029296875,1.35029296875,1.35029296875,1.353515625,1.3470703125,1.353515625,1.3470703125,1.3470703125,1.3470703125,1.34384765625,1.353515625,1.35029296875,1.34384765625,1.3470703125,1.35029296875,1.34384765625,1.3470703125,1.35029296875,1.353515625,1.353515625,1.36962890625,1.38896484375,1.3986328125,1.40185546875,1.41796875,1.45986328125,1.46953125,1.4373046875,1.42119140625,1.3857421875,1.35673828125,1.3470703125,1.340625,1.3341796875,1.340625,1.340625,1.340625,1.3470703125,1.3470703125,1.36318359375,1.36640625,1.51787109375,1.93681640625,2.307421875,1.91103515625,1.3921875,1.3728515625,1.37607421875,1.35673828125,1.353515625,1.34384765625,1.353515625,1.3341796875,1.340625,1.35673828125,1.35029296875,1.353515625,1.353515625,1.353515625,1.35673828125,1.35673828125,1.353515625,1.3728515625,1.36962890625,1.37607421875,1.379296875,1.38896484375,1.38896484375,1.40830078125,1.4115234375,1.42763671875,1.44697265625,1.46953125,1.49208984375,1.5146484375,1.53076171875,1.54365234375,1.56298828125,1.56943359375,1.56298828125,1.55009765625,1.52109375,1.4888671875,1.4630859375,1.430859375,1.40830078125,1.3921875,1.3857421875,1.38251953125,1.37607421875,1.37607421875,1.36640625,1.36318359375,1.36962890625,1.36640625,1.36640625,1.36962890625,1.3728515625,1.36318359375,1.353515625,1.36318359375,1.36640625,1.36640625,1.35673828125,1.3599609375,1.353515625,1.353515625,1.3599609375,1.35673828125,1.3599609375,1.353515625,1.35673828125,1.3470703125,1.3599609375,1.353515625,1.35029296875,1.35673828125,1.3470703125,1.353515625,1.35029296875,1.34384765625,1.3470703125,1.3470703125,1.3599609375,1.353515625,1.353515625,1.34384765625,1.34384765625,1.35673828125,1.35029296875,1.35673828125,1.3470703125,1.35029296875,1.35029296875,1.3470703125,1.353515625,1.353515625,1.35029296875,1.353515625,1.3470703125,1.35029296875,1.35029296875,1.36640625,1.3857421875,1.39541015625,1.40185546875,1.42119140625,1.4630859375,1.45341796875,1.42763671875,1.41474609375,1.3857421875,1.353515625,1.33740234375,1.33740234375,1.3341796875,1.33740234375,1.33740234375,1.327734375,1.31806640625,1.327734375,1.35029296875,1.3728515625,1.54365234375,1.98515625,2.32353515625,1.88525390625,1.36640625,1.36318359375,1.379296875,1.35029296875,1.33740234375,1.340625,1.3470703125,1.34384765625,1.3470703125,1.34384765625,1.34384765625,1.35673828125,1.3470703125,1.35673828125,1.340625,1.353515625,1.3599609375,1.36318359375,1.3728515625,1.37607421875,1.3857421875,1.39541015625,1.3921875,1.40830078125,1.4115234375,1.4373046875,1.45341796875,1.46630859375,1.4953125,1.51142578125,1.546875,1.53720703125,1.5662109375,1.58232421875,1.56298828125,1.53720703125,1.508203125,1.48564453125,1.456640625,1.42119140625,1.41796875,1.3728515625,1.38251953125,1.38251953125,1.3728515625,1.3728515625,1.35029296875,1.36962890625,1.36640625,1.36640625,1.3599609375,1.3599609375,1.35673828125,1.3599609375,1.36962890625,1.36962890625,1.3599609375,1.36962890625,1.3599609375,1.36640625,1.35673828125,1.35673828125,1.36640625,1.36318359375,1.36318359375,1.353515625,1.3599609375,1.3599609375,1.353515625,1.35673828125,1.34384765625,1.35029296875,1.35029296875,1.340625,1.353515625,1.353515625,1.340625,1.353515625,1.35029296875,1.3470703125,1.3470703125,1.35673828125,1.35029296875,1.353515625,1.3470703125,1.3470703125,1.35029296875,1.3470703125,1.353515625,1.36640625,1.3857421875,1.39541015625,1.3921875,1.4115234375,1.45341796875,1.44375,1.42763671875,1.40830078125,1.37607421875,1.3470703125,1.3341796875,1.33740234375,1.32451171875,1.33740234375,1.327734375,1.327734375,1.33095703125,1.327734375,1.35673828125,1.36962890625,1.59521484375,2.0625,2.307421875,1.78857421875,1.35029296875,1.36962890625,1.36640625,1.35029296875,1.33740234375,1.3341796875,1.3341796875,1.3341796875,1.33095703125,1.33740234375,1.34384765625,1.33740234375,1.34384765625,1.35029296875,1.35029296875,1.34384765625,1.353515625,1.353515625,1.36318359375,1.37607421875,1.3728515625,1.38251953125,1.38896484375,1.405078125,1.405078125,1.42119140625,1.4501953125,1.46630859375,1.482421875,1.51142578125,1.52431640625,1.54365234375,1.55654296875,1.55654296875,1.55009765625,1.5275390625,1.4888671875,1.4501953125,1.4373046875,1.405078125,1.3921875,1.38251953125,1.37607421875,1.36962890625,1.36640625,1.3599609375,1.3599609375,1.36318359375,1.3599609375,1.36640625,1.36640625,1.3599609375,1.36640625,1.36962890625,1.35673828125,1.36640625,1.36318359375,1.35673828125,1.3599609375,1.36318359375,1.36640625,1.36318359375,1.35673828125,1.36640625,1.353515625,1.353515625,1.3470703125,1.3470703125,1.353515625,1.353515625,1.353515625,1.34384765625,1.353515625,1.34384765625,1.35029296875,1.34384765625,1.3470703125,1.34384765625,1.353515625,1.353515625,1.36318359375,1.35029296875,1.35673828125,1.35029296875,1.34384765625,1.3470703125,1.36318359375,1.36318359375,1.379296875,1.3986328125,1.38251953125,1.41796875,1.45986328125,1.430859375,1.42119140625,1.405078125,1.36318359375,1.33740234375,1.340625,1.34384765625,1.3341796875,1.3341796875,1.33095703125,1.327734375,1.33095703125,1.340625,1.36318359375,1.40830078125,1.77568359375,2.30419921875,2.126953125,1.5146484375,1.36640625,1.36640625,1.36640625,1.35029296875,1.340625,1.33740234375,1.340625,1.34384765625,1.33740234375,1.353515625,1.35029296875,1.3470703125,1.35673828125,1.35673828125,1.3599609375,1.35673828125,1.36640625,1.3728515625,1.35673828125,1.3728515625,1.3728515625,1.3857421875,1.3986328125,1.405078125,1.4244140625,1.44697265625,1.456640625,1.482421875,1.50498046875,1.53076171875,1.55009765625,1.55009765625,1.5662109375,1.5662109375,1.546875,1.5275390625,1.482421875,1.456640625,1.42119140625,1.4115234375,1.3986328125,1.39541015625,1.38896484375,1.379296875,1.36640625,1.3728515625,1.36640625,1.37607421875,1.36962890625,1.379296875,1.36962890625,1.36962890625,1.36962890625,1.36962890625,1.3728515625,1.3728515625,1.36640625,1.36318359375,1.36962890625,1.36962890625,1.36318359375,1.36962890625,1.36640625,1.3599609375,1.36318359375,1.36962890625,1.36318359375,1.353515625,1.353515625,1.36318359375,1.35029296875,1.35029296875,1.353515625,1.353515625,1.353515625,1.3470703125,1.35029296875,1.353515625,1.35029296875,1.35029296875,1.34384765625,1.35673828125,1.34384765625,1.340625,1.353515625,1.353515625,1.3470703125,1.340625,1.340625,1.34384765625,1.353515625,1.36318359375,1.37607421875,1.3921875,1.379296875,1.40185546875,1.44052734375,1.46630859375,1.43408203125,1.41796875,1.3921875,1.3599609375,1.340625,1.33095703125,1.340625,1.3212890625,1.32451171875,1.32451171875,1.3341796875,1.31806640625,1.340625,1.36318359375,1.39541015625,1.7080078125,2.2236328125,2.178515625,1.6177734375,1.353515625,1.3599609375,1.35673828125,1.35029296875,1.3341796875,1.33095703125,1.33095703125,1.3470703125,1.3341796875,1.340625,1.34384765625,1.3470703125,1.34384765625,1.340625,1.34384765625,1.353515625,1.3599609375,1.36962890625,1.35673828125,1.38251953125,1.36962890625,1.37607421875,1.38896484375,1.40185546875,1.4115234375,1.430859375,1.44697265625,1.45986328125,1.4888671875,1.52109375,1.52431640625,1.54365234375,1.54365234375,1.54365234375,1.53720703125,1.50498046875,1.47919921875,1.44697265625,1.4244140625,1.39541015625,1.3857421875,1.379296875,1.36640625,1.37607421875,1.353515625,1.36318359375,1.35673828125,1.36318359375,1.35673828125,1.36318359375,1.36962890625,1.36318359375,1.36640625,1.36962890625,1.37607421875,1.35673828125,1.36640625,1.36640625,1.35673828125,1.35673828125,1.35673828125,1.35029296875,1.36318359375,1.35029296875,1.353515625,1.35673828125,1.35673828125,1.35029296875,1.35673828125,1.34384765625,1.35029296875,1.35029296875,1.3599609375,1.35029296875,1.35029296875,1.36318359375,1.3599609375,1.3599609375,1.3470703125,1.3470703125,1.36962890625,1.35673828125,1.3599609375,1.35673828125,1.36640625,1.35673828125,1.3599609375,1.34384765625,1.353515625,1.3599609375,1.3599609375,1.3728515625,1.3986328125,1.3921875,1.3986328125,1.43408203125,1.46953125,1.47275390625,1.43408203125,1.405078125,1.38896484375,1.36962890625,1.3470703125,1.35673828125,1.3470703125,1.3470703125,1.340625,1.340625,1.34384765625,1.35673828125,1.36318359375,1.379296875,1.5404296875,1.97548828125,2.307421875,1.88203125,1.379296875,1.3728515625,1.379296875,1.36640625,1.35673828125,1.35673828125,1.35029296875,1.353515625,1.34384765625,1.36640625,1.34384765625,1.353515625,1.35673828125,1.3599609375,1.36318359375,1.353515625,1.36318359375,1.36640625,1.353515625,1.37607421875,1.38251953125,1.39541015625,1.39541015625,1.4115234375,1.42119140625,1.430859375,1.4501953125,1.47919921875,1.50498046875,1.5146484375,1.533984375,1.55654296875,1.559765625,1.56298828125,1.5533203125,1.5404296875,1.51142578125,1.4759765625,1.44375,1.41796875,1.40185546875,1.3921875,1.379296875,1.37607421875,1.379296875,1.36318359375,1.36962890625,1.36962890625,1.36640625,1.36318359375,1.36318359375,1.3728515625,1.36640625,1.36962890625,1.36318359375,1.37607421875,1.3728515625,1.3599609375,1.36318359375,1.36962890625,1.36640625,1.35673828125,1.36962890625,1.3728515625,1.35673828125,1.353515625,1.3599609375,1.35673828125,1.3599609375,1.353515625,1.35673828125,1.35029296875,1.353515625,1.35029296875,1.35029296875,1.35673828125,1.35673828125,1.3470703125,1.35673828125,1.353515625,1.340625,1.35029296875,1.3470703125,1.3470703125,1.353515625,1.353515625,1.3470703125,1.35029296875,1.3470703125,1.3470703125,1.340625,1.3470703125,1.3470703125,1.34384765625,1.3470703125,1.340625,1.353515625,1.3599609375,1.379296875,1.3857421875,1.3921875,1.4115234375,1.45986328125,1.46630859375,1.44375,1.41796875,1.38251953125,1.3599609375,1.33095703125,1.34384765625,1.340625,1.3341796875,1.3341796875,1.3341796875,1.327734375,1.33095703125,1.340625,1.3599609375,1.42763671875,1.80791015625,2.29453125,2.09150390625,1.48564453125,1.3599609375,1.36962890625,1.35673828125,1.340625,1.3341796875,1.327734375,1.3341796875,1.3212890625,1.327734375,1.3341796875,1.340625,1.33095703125,1.3341796875,1.34384765625,1.33740234375,1.340625,1.340625,1.353515625,1.36318359375,1.3599609375,1.37607421875,1.3857421875,1.38896484375,1.3986328125,1.41474609375,1.42763671875,1.44697265625,1.46953125,1.49208984375,1.51142578125,1.52109375,1.55654296875,1.54365234375,1.55654296875,1.533984375,1.508203125,1.47919921875,1.456640625,1.42119140625,1.3986328125,1.38896484375,1.379296875,1.36962890625,1.36962890625,1.3599609375,1.36640625,1.3599609375,1.3599609375,1.353515625,1.353515625,1.36962890625,1.36318359375,1.3599609375,1.36640625,1.36318359375,1.36962890625,1.36318359375,1.3599609375,1.37607421875,1.3728515625,1.36640625,1.37607421875,1.37607421875,1.36640625,1.36962890625,1.36962890625,1.37607421875,1.37607421875,1.3728515625,1.37607421875,1.379296875,1.38896484375,1.3857421875,1.38896484375,1.3986328125,1.405078125,1.40185546875,1.4115234375,1.40830078125,1.40830078125,1.41474609375,1.42763671875,1.42763671875,1.4244140625,1.43408203125,1.44052734375
1.3599609375,1.36640625,1.3470703125,1.36318359375,1.3599609375,1.36318359375,1.37607421875,1.3728515625,1.3728515625,1.38251953125,1.37607421875,1.3857421875,1.41474609375,1.41474609375,1.42119140625,1.430859375,1.44697265625,1.45986328125,1.48564453125,1.51142578125,1.5275390625,1.5533203125,1.559765625,1.56298828125,1.57265625,1.55654296875,1.52431640625,1.51142578125,1.46630859375,1.45341796875,1.41474609375,1.40830078125,1.40185546875,1.3921875,1.379296875,1.379296875,1.36962890625,1.38251953125,1.37607421875,1.3728515625,1.379296875,1.3728515625,1.379296875,1.37607421875,1.3728515625,1.36962890625,1.36640625,1.3728515625,1.3728515625,1.3728515625,1.3728515625,1.379296875,1.36962890625,1.38251953125,1.36962890625,1.37607421875,1.36318359375,1.36640625,1.35673828125,1.36318359375,1.36640625,1.3599609375,1.36318359375,1.35029296875,1.36318359375,1.36318359375,1.36318359375,1.36640625,1.36640625,1.3728515625,1.353515625,1.3599609375,1.36640625,1.36640625,1.353515625,1.353515625,1.36640625,1.3599609375,1.36318359375,1.3599609375,1.35673828125,1.35673828125,1.36640625,1.3728515625,1.353515625,1.3599609375,1.36640625,1.39541015625,1.3921875,1.3921875,1.42119140625,1.45986328125,1.45986328125,1.4244140625,1.41796875,1.38251953125,1.36318359375,1.35029296875,1.3341796875,1.3341796875,1.33095703125,1.340625,1.33095703125,1.340625,1.3470703125,1.353515625,1.36962890625,1.482421875,1.88525390625,2.28486328125,1.93359375,1.40185546875,1.353515625,1.36318359375,1.35673828125,1.353515625,1.34384765625,1.34384765625,1.340625,1.34384765625,1.3470703125,1.33740234375,1.35673828125,1.35029296875,1.35029296875,1.3470703125,1.36318359375,1.35029296875,1.353515625,1.3599609375,1.36640625,1.379296875,1.3728515625,1.38251953125,1.40185546875,1.4115234375,1.430859375,1.44375,1.47275390625,1.4888671875,1.51142578125,1.5275390625,1.546875,1.559765625,1.56943359375,1.56298828125,1.54365234375,1.5146484375,1.482421875,1.44697265625,1.43408203125,1.38896484375,1.38896484375,1.379296875,1.3728515625,1.36318359375,1.36640625,1.36318359375,1.35673828125,1.35673828125,1.36640625,1.353515625,1.35673828125,1.35673828125,1.36318359375,1.3599609375,1.37607421875,1.36640625,1.36640625,1.36640625,1.36318359375,1.36640625,1.36962890625,1.35673828125,1.3599609375,1.36318359375,1.3599609375,1.35673828125,1.35029296875,1.353515625,1.35029296875,1.34384765625,1.35029296875,1.3470703125,1.35673828125,1.35673828125,1.3470703125,1.34384765625,1.35029296875,1.353515625,1.34384765625,1.35029296875,1.340625,1.3599609375,1.35029296875,1.35029296875,1.35029296875,1.353515625,1.353515625,1.35673828125,1.34384765625,1.353515625,1.35673828125,1.340625,1.35673828125,1.35673828125,1.36318359375,1.353515625,1.35029296875,1.353515625,1.3728515625,1.3986328125,1.3986328125,1.405078125,1.44697265625,1.4759765625,1.45341796875,1.42763671875,1.41796875,1.37607421875,1.353515625,1.35029296875,1.33740234375,1.34384765625,1.3470703125,1.33095703125,1.34384765625,1.340625,1.327734375,1.36640625,1.3857421875,1.62744140625,2.09794921875,2.3009765625,1.76923828125,1.36640625,1.37607421875,1.36962890625,1.3470703125,1.3599609375,1.35029296875,1.35029296875,1.33740234375,1.34384765625,1.353515625,1.35029296875,1.3470703125,1.35673828125,1.36640625,1.353515625,1.3599609375,1.36640625,1.3599609375,1.36962890625,1.379296875,1.38251953125,1.39541015625,1.405078125,1.4115234375,1.41474609375,1.45341796875,1.45986328125,1.47275390625,1.50498046875,1.51787109375,1.5404296875,1.55654296875,1.559765625,1.58232421875,1.559765625,1.54365234375,1.508203125,1.47919921875,1.44375,1.43408203125,1.4115234375,1.39541015625,1.38251953125,1.36318359375,1.36640625,1.36640625,1.36962890625,1.3728515625,1.3599609375,1.3599609375,1.3599609375,1.3599609375,1.379296875,1.36962890625,1.36318359375,1.3599609375,1.36640625,1.3599609375,1.36318359375,1.3599609375,1.36318359375,1.35673828125,1.3599609375,1.353515625,1.3599609375,1.35673828125,1.353515625,1.35673828125,1.353515625,1.34384765625,1.35029296875,1.35673828125,1.353515625,1.353515625,1.353515625,1.353515625,1.353515625,1.35029296875,1.35673828125,1.3470703125,1.36318359375,1.35673828125,1.34384765625,1.35673828125,1.36318359375,1.353515625,1.36318359375,1.35673828125,1.340625,1.353515625,1.36318359375,1.36318359375,1.35029296875,1.35029296875,1.35029296875,1.35673828125,1.34384765625,1.3470703125,1.35673828125,1.379296875,1.3986328125,1.38896484375,1.42119140625,1.47275390625,1.47275390625,1.42763671875,1.41796875,1.38251953125,1.36318359375,1.35029296875,1.3341796875,1.3212890625,1.3341796875,1.340625,1.33740234375,1.340625,1.33095703125,1.35673828125,1.36962890625,1.52109375,1.96904296875,2.34609375,1.9013671875,1.36962890625,1.36318359375,1.36640625,1.35029296875,1.353515625,1.33740234375,1.340625,1.35029296875,1.340625,1.35029296875,1.3341796875,1.3470703125,1.34384765625,1.353515625,1.340625,1.3470703125,1.36318359375,1.36640625,1.3599609375,1.3857421875,1.3728515625,1.36962890625,1.3921875,1.405078125,1.4115234375,1.430859375,1.44697265625,1.46630859375,1.48564453125,1.5146484375,1.53720703125,1.55009765625,1.559765625,1.559765625,1.56298828125,1.5404296875,1.5017578125,1.46630859375,1.44052734375,1.42119140625,1.38896484375,1.39541015625,1.37607421875,1.36962890625,1.36318359375,1.3599609375,1.36962890625,1.3599609375,1.36318359375,1.35673828125,1.35673828125,1.36640625,1.36318359375,1.353515625,1.37607421875,1.35029296875,1.35673828125,1.3728515625,1.36640625,1.35673828125,1.35673828125,1.36318359375,1.353515625,1.36640625,1.35673828125,1.3728515625,1.3599609375,1.35029296875,1.35673828125,1.35673828125,1.34384765625,1.35673828125,1.36640625,1.36318359375,1.35673828125,1.35673828125,1.36318359375,1.35673828125,1.35673828125,1.35029296875,1.3599609375,1.36318359375,1.35673828125,1.36318359375,1.35673828125,1.35673828125,1.36318359375,1.3599609375,1.35673828125,1.36318359375,1.36318359375,1.3599609375,1.35673828125,1.3599609375,1.36962890625,1.3599609375,1.36640625,1.379296875,1.40185546875,1.3728515625,1.41796875,1.4501953125,1.4630859375,1.44052734375,1.430859375,1.41796875,1.37607421875,1.36962890625,1.35673828125,1.353515625,1.33740234375,1.35029296875,1.353515625,1.3470703125,1.34384765625,1.35029296875,1.37607421875,1.40830078125,1.67255859375,2.126953125,2.16884765625,1.64033203125,1.36640625,1.37607421875,1.36318359375,1.35673828125,1.35029296875,1.353515625,1.34384765625,1.33740234375,1.3470703125,1.3599609375,1.34384765625,1.3470703125,1.3470703125,1.353515625,1.35029296875,1.35029296875,1.3599609375,1.35673828125,1.36962890625,1.3728515625,1.36962890625,1.39541015625,1.3921875,1.40185546875,1.42763671875,1.43408203125,1.4501953125,1.46630859375,1.4888671875,1.5275390625,1.53720703125,1.55654296875,1.55654296875,1.559765625,1.5404296875,1.52431640625,1.4953125,1.45341796875,1.44052734375,1.4115234375,1.40185546875,1.38251953125,1.38251953125,1.37607421875,1.3599609375,1.36318359375,1.36318359375,1.36318359375,1.36640625,1.36962890625,1.3470703125,1.353515625,1.3728515625,1.36962890625,1.36962890625,1.3728515625,1.36962890625,1.36962890625,1.36962890625,1.37607421875,1.36962890625,1.36962890625,1.36318359375,1.3728515625,1.35673828125,1.36318359375,1.36318359375,1.36640625,1.35673828125,1.3728515625,1.3599609375,1.353515625,1.36318359375,1.3470703125,1.3599609375,1.36318359375,1.3599609375,1.35029296875,1.3599609375,1.36318359375,1.35673828125,1.36962890625,1.3470703125,1.3599609375,1.353515625,1.3599609375,1.35673828125,1.35673828125,1.3599609375,1.353515625,1.3599609375,1.35673828125,1.36962890625,1.34384765625,1.3599609375,1.35029296875,1.36962890625,1.353515625,1.36640625,1.35673828125,1.35673828125,1.3599609375,1.38251953125,1.40185546875,1.3921875,1.4115234375,1.4501953125,1.45986328125,1.44052734375,1.42119140625,1.41474609375,1.36962890625,1.353515625,1.35029296875,1.340625,1.33740234375,1.34384765625,1.340625,1.33740234375,1.33740234375,1.3470703125,1.3728515625,1.40830078125,1.7080078125,2.22041015625,2.20751953125,1.62421875,1.35673828125,1.3857421875,1.36640625,1.353515625,1.3470703125,1.3470703125,1.34384765625,1.340625,1.3470703125,1.35673828125,1.340625,1.3470703125,1.35673828125,1.35673828125,1.3599609375,1.3470703125,1.35029296875,1.36640625,1.36962890625,1.3728515625,1.37607421875,1.3921875,1.3921875,1.40830078125,1.4244140625,1.42763671875,1.45341796875,1.48564453125,1.49853515625,1.51787109375,1.5404296875,1.55654296875,1.56943359375,1.56298828125,1.5533203125,1.533984375,1.5017578125,1.46630859375,1.430859375,1.41796875,1.405078125,1.39541015625,1.37607421875,1.3728515625,1.36962890625,1.3728515625,1.35029296875,1.3599609375,1.35673828125,1.36318359375,1.353515625,1.36318359375,1.35673828125,1.3599609375,1.36318359375,1.36318359375,1.36318359375,1.35673828125,1.3599609375,1.36962890625,1.3599609375,1.35673828125,1.353515625,1.3599609375,1.353515625,1.35673828125,1.3599609375,1.3599609375,1.36640625,1.3470703125,1.353515625,1.36318359375,1.35673828125,1.36318359375,1.35029296875,1.353515625,1.353515625,1.3470703125,1.35673828125,1.35673828125,1.35673828125,1.36318359375,1.3599609375,1.34384765625,1.3599609375,1.3470703125,1.3599609375,1.353515625,1.35029296875,1.35673828125,1.353515625,1.353515625,1.3470703125,1.37607421875,1.35673828125,1.35029296875,1.36318359375,1.35029296875,1.3599609375,1.35029296875,1.353515625,1.3599609375,1.37607421875,1.3986328125,1.3921875,1.405078125,1.44697265625,1.482421875,1.4373046875,1.43408203125,1.4115234375,1.3728515625,1.35673828125,1.3470703125,1.35029296875,1.3470703125,1.34384765625,1.34384765625,1.34384765625,1.33740234375,1.353515625,1.3728515625,1.41796875,1.73701171875,2.2494140625,2.17529296875,1.5919921875,1.36318359375,1.3921875,1.36962890625,1.36640625,1.35673828125,1.35673828125,1.34384765625,1.35029296875,1.3599609375,1.35029296875,1.3599609375,1.36318359375,1.3599609375,1.36640625,1.36318359375,1.36640625,1.36640625,1.35673828125,1.37607421875,1.3921875,1.3921875,1.39541015625,1.40830078125,1.41474609375,1.41796875,1.43408203125,1.4501953125,1.482421875,1.51142578125,1.51787109375,1.53076171875,1.55009765625,1.55654296875,1.559765625,1.53720703125,1.52109375,1.48564453125,1.456640625,1.43408203125,1.40830078125,1.3986328125,1.3921875,1.36640625,1.379296875,1.3599609375,1.353515625,1.36962890625,1.3599609375,1.36318359375,1.353515625,1.35029296875,1.36318359375,1.36962890625,1.36962890625,1.35673828125,1.36962890625,1.36962890625,1.36962890625,1.353515625,1.36318359375,1.35673828125,1.36640625,1.353515625,1.353515625,1.35673828125,1.3470703125,1.353515625,1.3599609375,1.35029296875,1.353515625,1.353515625,1.353515625,1.353515625,1.3470703125,1.36640625,1.353515625,1.3599609375,1.36318359375,1.353515625,1.3599609375,1.36318359375,1.35673828125,1.3599609375,1.3470703125,1.35029296875,1.35029296875,1.35029296875,1.3599609375,1.35673828125,1.35673828125,1.3599609375,1.3599609375,1.3599609375,1.36318359375,1.35029296875,1.3470703125,1.36318359375,1.35673828125,1.353515625,1.36640625,1.379296875,1.3986328125,1.39541015625,1.41796875,1.456640625,1.456640625,1.43408203125,1.42763671875,1.38896484375,1.3599609375,1.340625,1.3470703125,1.3470703125,1.340625,1.340625,1.3470703125,1.35029296875,1.33740234375,1.353515625,1.3728515625,1.4373046875,1.766015625,2.230078125,2.0689453125,1.50498046875,1.35673828125,1.38251953125,1.35673828125,1.353515625,1.34384765625,1.3470703125,1.34384765625,1.340625,1.35029296875,1.3470703125,1.353515625,1.35673828125,1.35029296875,1.3470703125,1.353515625,1.35673828125,1.36962890625,1.36640625,1.36962890625,1.38251953125,1.38896484375,1.3857421875,1.39541015625,1.42119140625,1.4115234375,1.4373046875,1.4630859375,1.4888671875,1.5017578125,1.533984375,1.54365234375,1.559765625,1.56298828125,1.56298828125,1.546875,1.53076171875,1.47919921875,1.4630859375,1.43408203125,1.4115234375,1.3921875,1.3857421875,1.379296875,1.37607421875,1.36640625,1.36962890625,1.36640625,1.35673828125,1.3599609375,1.36962890625,1.36318359375,1.3728515625,1.35673828125,1.36640625,1.37607421875,1.36640625,1.36962890625,1.36962890625,1.36962890625,1.3599609375,1.36962890625,1.35673828125,1.36318359375,1.36962890625,1.36318359375,1.35673828125,1.36318359375,1.3599609375,1.35673828125,1.3599609375,1.36318359375,1.3599609375,1.35673828125,1.353515625,1.3599609375,1.35673828125,1.3599609375,1.37607421875,1.36640625,1.36318359375,1.35029296875,1.3599609375,1.35673828125,1.35673828125,1.353515625,1.36640625,1.35673828125,1.35673828125,1.35673828125,1.36318359375,1.35029296875,1.353515625,1.36640625,1.35673828125,1.35673828125,1.3599609375,1.36318359375,1.3470703125,1.35673828125,1.3599609375,1.3599609375,1.38251953125,1.379296875,1.39541015625,1.3921875,1.44052734375,1.46630859375,1.46953125,1.4373046875,1.41796875,1.39541015625,1.36962890625,1.3470703125,1.340625,1.34384765625,1.353515625,1.340625,1.33740234375,1.35029296875,1.33740234375,1.3599609375,1.3728515625,1.4888671875,1.9013671875,2.3396484375,2.0044921875,1.430859375,1.36962890625,1.3728515625,1.3599609375,1.353515625,1.35029296875,1.353515625,1.35029296875,1.34384765625,1.353515625,1.340625,1.35029296875,1.35673828125,1.34384765625,1.35029296875,1.3599609375,1.353515625,1.35673828125,1.3599609375,1.3728515625,1.38251953125,1.38251953125,1.39541015625,1.3986328125,1.405078125,1.42119140625,1.4501953125,1.4630859375,1.482421875,1.51142578125,1.5275390625,1.55009765625,1.56298828125,1.56943359375,1.57587890625,1.5533203125,1.52431640625,1.4888671875,1.44375,1.430859375,1.4115234375,1.3921875,1.38896484375,1.38251953125,1.379296875,1.3728515625,1.36640625,1.36640625,1.3728515625,1.36962890625,1.36318359375,1.36640625,1.36318359375,1.36640625,1.36640625,1.37607421875,1.36962890625,1.35673828125,1.36640625,1.36640625,1.3599609375,1.36318359375,1.3599609375,1.353515625,1.36640625,1.36640625,1.35029296875,1.35029296875,1.3470703125,1.36640625,1.353515625,1.36318359375,1.33740234375,1.34384765625,1.35029296875,1.3599609375,1.35029296875,1.3470703125,1.353515625,1.35029296875,1.35029296875,1.340625,1.34384765625,1.35029296875,1.353515625,1.340625,1.3470703125,1.35673828125,1.34384765625,1.3470703125,1.3470703125,1.35029296875,1.3599609375,1.3470703125,1.35673828125,1.353515625,1.3470703125,1.35673828125,1.35673828125,1.3470703125,1.353515625,1.353515625,1.3599609375,1.3857421875,1.38896484375,1.379296875,1.42763671875,1.456640625,1.46630859375,1.430859375,1.42763671875,1.40185546875,1.3599609375,1.3599609375,1.34384765625,1.34384765625,1.34384765625,1.3470703125,1.33740234375,1.33740234375,1.340625,1.3599609375,1.3599609375,1.44375,1.8046875,2.281640625,2.049609375,1.456640625,1.35029296875,1.36962890625,1.35029296875,1.35673828125,1.34384765625,1.340625,1.340625,1.35029296875,1.353515625,1.34384765625,1.340625,1.3599609375,1.340625,1.36318359375,1.35029296875,1.36318359375,1.35673828125,1.3728515625,1.36962890625,1.3728515625,1.379296875,1.40830078125,1.405078125,1.41796875,1.430859375,1.44697265625,1.46953125,1.48564453125,1.5146484375,1.52431640625,1.533984375,1.55654296875,1.5533203125,1.56298828125,1.55654296875,1.52109375,1.47275390625,1.45986328125,1.43408203125,1.4115234375,1.3986328125,1.379296875,1.38251953125,1.3728515625,1.379296875,1.36962890625,1.36318359375,1.37607421875,1.36640625,1.36962890625,1.379296875,1.3728515625,1.36962890625,1.3728515625,1.37607421875,1.3728515625,1.379296875,1.379296875,1.38251953125,1.37607421875,1.38251953125,1.37607421875,1.3728515625,1.37607421875,1.37607421875,1.3728515625,1.3728515625,1.36962890625,1.36640625,1.3728515625,1.36640625,1.36962890625,1.3728515625,1.36318359375,1.36318359375,1.36640625,1.36640625,1.3599609375,1.36640625,1.36640625,1.35029296875,1.37607421875,1.36318359375,1.36640625,1.353515625,1.3728515625,1.37607421875,1.36962890625,1.36318359375,1.36318359375,1.36318359375,1.3728515625,1.3728515625,1.36640625,1.36640625,1.36640625,1.36640625,1.3728515625,1.3728515625,1.39541015625,1.3921875,1.3986328125,1.430859375,1.46953125,1.45341796875,1.44052734375,1.4244140625,1.39541015625,1.3599609375,1.353515625,1.33740234375,1.33740234375,1.33740234375,1.33740234375,1.3341796875,1.3341796875,1.33740234375,1.35029296875,1.36640625,1.482421875,1.894921875,2.281640625,1.9142578125,1.38896484375,1.34384765625,1.353515625,1.3341796875,1.33095703125,1.33740234375,1.327734375,1.3212890625,1.32451171875,1.31806640625,1.31806640625,1.327734375,1.3083984375,1.31162109375
1.456640625,1.456640625,1.4373046875,1.43408203125,1.44697265625,1.44697265625,1.45341796875,1.430859375,1.44052734375,1.44052734375,1.430859375,1.4373046875,1.43408203125,1.41796875,1.430859375,1.42763671875,1.42119140625,1.42119140625,1.43408203125,1.40185546875,1.42119140625,1.4373046875,1.39541015625,1.43408203125,1.41474609375,1.42763671875,1.40830078125,1.405078125,1.40185546875,1.42119140625,1.4115234375,1.41796875,1.41796875,1.42763671875,1.40185546875,1.405078125,1.3986328125,1.4115234375,1.3986328125,1.3921875,1.41796875,1.39541015625,1.3986328125,1.379296875,1.405078125,1.38251953125,1.40185546875,1.39541015625,1.3921875,1.38251953125,1.3857421875,1.3857421875,1.40830078125,1.38251953125,1.3857421875,1.379296875,1.3921875,1.3728515625,1.3921875,1.39541015625,1.36318359375,1.38251953125,1.38896484375,1.3857421875,1.379296875,1.37607421875,1.36962890625,1.3921875,1.36318359375,1.38251953125,1.3986328125,1.39541015625,1.3986328125,1.41796875,1.47275390625,1.4630859375,1.45986328125,1.44697265625,1.4373046875,1.3986328125,1.36640625,1.33740234375,1.36962890625,1.36318359375,1.3470703125,1.340625,1.35673828125,1.3599609375,1.34384765625,1.35673828125,1.46953125,1.82724609375,2.22685546875,1.9787109375,1.47919921875,1.379296875,1.37607421875,1.353515625,1.33095703125,1.327734375,1.34384765625,1.353515625,1.327734375,1.340625,1.35029296875,1.3470703125,1.34384765625,1.33740234375,1.3599609375,1.33740234375,1.35029296875,1.36640625,1.340625,1.35029296875,1.3599609375,1.37607421875,1.36962890625,1.36962890625,1.3921875,1.41474609375,1.41474609375,1.430859375,1.45341796875,1.47919921875,1.49208984375,1.49853515625,1.5146484375,1.52431640625,1.5275390625,1.52431640625,1.508203125,1.46630859375,1.4373046875,1.42119140625,1.38896484375,1.36640625,1.3857421875,1.3599609375,1.36962890625,1.3470703125,1.37607421875,1.36640625,1.3728515625,1.353515625,1.340625,1.3599609375,1.36640625,1.35673828125,1.38251953125,1.379296875,1.327734375,1.35673828125,1.3921875,1.340625,1.38896484375,1.35029296875,1.379296875,1.379296875,1.36962890625,1.36640625,1.38251953125,1.379296875,1.36318359375,1.36962890625,1.35029296875,1.37607421875,1.37607421875,1.3599609375,1.36962890625,1.34384765625,1.36318359375,1.38251953125,1.3470703125,1.35673828125,1.36318359375,1.38251953125,1.36962890625,1.3599609375,1.36640625,1.3857421875,1.36640625,1.3921875,1.3728515625,1.36640625,1.37607421875,1.36318359375,1.36962890625,1.3728515625,1.36318359375,1.3728515625,1.35673828125,1.36318359375,1.3728515625,1.36640625,1.36640625,1.37607421875,1.36318359375,1.3728515625,1.36640625,1.36640625,1.36962890625,1.3599609375,1.340625,1.379296875,1.3857421875,1.41796875,1.39541015625,1.405078125,1.44697265625,1.4759765625,1.45341796875,1.4373046875,1.4244140625,1.38896484375,1.36318359375,1.3599609375,1.3599609375,1.353515625,1.34384765625,1.36640625,1.35673828125,1.3470703125,1.36640625,1.3857421875,1.44052734375,1.77568359375,2.19462890625,2.0044921875,1.51142578125,1.38896484375,1.38251953125,1.36318359375,1.3599609375,1.353515625,1.3470703125,1.340625,1.35029296875,1.34384765625,1.34384765625,1.33740234375,1.3470703125,1.3599609375,1.3599609375,1.34384765625,1.36962890625,1.3599609375,1.3728515625,1.353515625,1.379296875,1.37607421875,1.39541015625,1.379296875,1.41796875,1.430859375,1.456640625,1.44052734375,1.45986328125,1.47919921875,1.5017578125,1.5275390625,1.53720703125,1.5146484375,1.53076171875,1.5404296875,1.482421875,1.46953125,1.456640625,1.42763671875,1.41796875,1.40830078125,1.379296875,1.379296875,1.38251953125,1.37607421875,1.36640625,1.3857421875,1.3470703125,1.3599609375,1.37607421875,1.36640625,1.37607421875,1.3728515625,1.36640625,1.36318359375,1.353515625,1.37607421875,1.36318359375,1.3728515625,1.36962890625,1.36318359375,1.3728515625,1.35673828125,1.3857421875,1.3470703125,1.379296875,1.36318359375,1.353515625,1.3599609375,1.379296875,1.3599609375,1.35673828125,1.35673828125,1.3921875,1.3470703125,1.36640625,1.379296875,1.353515625,1.353515625,1.353515625,1.3728515625,1.3728515625,1.36318359375,1.35673828125,1.353515625,1.35673828125,1.35673828125,1.36318359375,1.35673828125,1.35673828125,1.36318359375,1.35029296875,1.36962890625,1.35029296875,1.36318359375,1.3728515625,1.36962890625,1.3599609375,1.36962890625,1.3470703125,1.35673828125,1.36962890625,1.37607421875,1.3599609375,1.35673828125,1.3857421875,1.40185546875,1.4115234375,1.4244140625,1.4373046875,1.47275390625,1.4630859375,1.430859375,1.42119140625,1.38251953125,1.3857421875,1.3470703125,1.3470703125,1.3599609375,1.34384765625,1.3470703125,1.353515625,1.35673828125,1.36640625,1.3857421875,1.44697265625,1.78857421875,2.2365234375,2.0625,1.508203125,1.37607421875,1.36318359375,1.3599609375,1.35029296875,1.340625,1.327734375,1.353515625,1.3470703125,1.3470703125,1.353515625,1.3599609375,1.35029296875,1.36318359375,1.3470703125,1.36962890625,1.379296875,1.3599609375,1.37607421875,1.38251953125,1.37607421875,1.40185546875,1.3986328125,1.39541015625,1.40830078125,1.41796875,1.430859375,1.44052734375,1.456640625,1.47275390625,1.50498046875,1.508203125,1.52109375,1.53720703125,1.5404296875,1.508203125,1.5404296875,1.4953125,1.45986328125,1.44375,1.41474609375,1.41474609375,1.40830078125,1.3921875,1.3728515625,1.38251953125,1.3921875,1.37607421875,1.36318359375,1.36640625,1.37607421875,1.3728515625,1.379296875,1.35673828125,1.3728515625,1.38251953125,1.3857421875,1.36962890625,1.353515625,1.37607421875,1.35673828125,1.36962890625,1.36962890625,1.379296875,1.3470703125,1.36640625,1.36318359375,1.3728515625,1.37607421875,1.36318359375,1.3470703125,1.36318359375,1.35673828125,1.3599609375,1.36962890625,1.35673828125,1.3599609375,1.37607421875,1.353515625,1.36318359375,1.36640625,1.35029296875,1.35673828125,1.3599609375,1.36640625,1.3599609375,1.379296875,1.340625,1.36962890625,1.34384765625,1.340625,1.3728515625,1.3728515625,1.36640625,1.36962890625,1.34384765625,1.3599609375,1.35673828125,1.340625,1.36318359375,1.3599609375,1.36318359375,1.36962890625,1.3857421875,1.38251953125,1.40830078125,1.4373046875,1.45341796875,1.4501953125,1.42763671875,1.405078125,1.379296875,1.35029296875,1.340625,1.35673828125,1.353515625,1.33095703125,1.3470703125,1.353515625,1.3470703125,1.36962890625,1.38251953125,1.47919921875,1.8626953125,2.1978515625,1.843359375,1.405078125,1.3728515625,1.36318359375,1.3470703125,1.340625,1.3470703125,1.327734375,1.3341796875,1.340625,1.3470703125,1.3599609375,1.340625,1.35029296875,1.34384765625,1.35029296875,1.3599609375,1.35673828125,1.35673828125,1.37607421875,1.36640625,1.36962890625,1.38251953125,1.3986328125,1.3986328125,1.405078125,1.40830078125,1.430859375,1.456640625,1.4373046875,1.48564453125,1.5017578125,1.5146484375,1.5017578125,1.53076171875,1.5275390625,1.51142578125,1.482421875,1.508203125,1.4373046875,1.4373046875,1.39541015625,1.38896484375,1.38896484375,1.3341796875,1.38251953125,1.379296875,1.36962890625,1.3599609375,1.379296875,1.36962890625,1.37607421875,1.353515625,1.35029296875,1.36318359375,1.3599609375,1.36318359375,1.38896484375,1.379296875,1.405078125,1.38251953125,1.38251953125,1.36318359375,1.3986328125,1.38251953125,1.3921875,1.36640625,1.3986328125,1.3728515625,1.38251953125,1.3599609375,1.379296875,1.36962890625,1.38251953125,1.379296875,1.3728515625,1.36318359375,1.36640625,1.36318359375,1.3728515625,1.379296875,1.340625,1.3728515625,1.3599609375,1.36318359375,1.35673828125,1.35029296875,1.3599609375,1.35029296875,1.353515625,1.3599609375,1.3470703125,1.36318359375,1.3599609375,1.3728515625,1.36640625,1.36640625,1.36640625,1.37607421875,1.37607421875,1.40185546875,1.40185546875,1.405078125,1.44375,1.456640625,1.46630859375,1.430859375,1.41796875,1.37607421875,1.379296875,1.3470703125,1.353515625,1.3341796875,1.36318359375,1.33740234375,1.36962890625,1.35673828125,1.37607421875,1.38251953125,1.4501953125,1.77890625,2.18818359375,2.00126953125,1.5146484375,1.36962890625,1.379296875,1.3599609375,1.35029296875,1.33740234375,1.327734375,1.3470703125,1.340625,1.33740234375,1.33095703125,1.34384765625,1.340625,1.36640625,1.35029296875,1.3728515625,1.35673828125,1.3728515625,1.36318359375,1.37607421875,1.38251953125,1.38896484375,1.3986328125,1.4115234375,1.41474609375,1.42119140625,1.456640625,1.44375,1.456640625,1.4759765625,1.4953125,1.5017578125,1.52431640625,1.52431640625,1.52109375,1.5017578125,1.508203125,1.45986328125,1.4630859375,1.42763671875,1.41474609375,1.38896484375,1.3921875,1.3986328125,1.379296875,1.36640625,1.36640625,1.37607421875,1.36962890625,1.36640625,1.35673828125,1.35673828125,1.36318359375,1.3599609375,1.36318359375,1.36640625,1.35029296875,1.36640625,1.36640625,1.36318359375,1.35673828125,1.379296875,1.36318359375,1.36318359375,1.35673828125,1.3599609375,1.36640625,1.36962890625,1.35673828125,1.36640625,1.353515625,1.36640625,1.3599609375,1.37607421875,1.35673828125,1.3470703125,1.3599609375,1.379296875,1.3599609375,1.36318359375,1.35673828125,1.36640625,1.36318359375,1.36318359375,1.353515625,1.3599609375,1.36640625,1.36962890625,1.35673828125,1.33740234375,1.36962890625,1.35029296875,1.35673828125,1.35029296875,1.35029296875,1.36318359375,1.37607421875,1.379296875,1.3986328125,1.39541015625,1.42119140625,1.430859375,1.46630859375,1.44375,1.4244140625,1.43408203125,1.38251953125,1.34384765625,1.340625,1.33740234375,1.32451171875,1.36640625,1.327734375,1.35029296875,1.32451171875,1.36318359375,1.36640625,1.48564453125,1.85302734375,2.23330078125,1.93681640625,1.4373046875,1.379296875,1.36640625,1.35673828125,1.35029296875,1.327734375,1.34384765625,1.35029296875,1.33740234375,1.35029296875,1.33740234375,1.3341796875,1.33740234375,1.353515625,1.35029296875,1.36640625,1.353515625,1.36640625,1.36318359375,1.36640625,1.3728515625,1.38251953125,1.3857421875,1.3921875,1.41474609375,1.41474609375,1.44697265625,1.44697265625,1.456640625,1.49208984375,1.50498046875,1.5146484375,1.52109375,1.52431640625,1.533984375,1.51142578125,1.51787109375,1.46953125,1.44375,1.40830078125,1.41474609375,1.3921875,1.3857421875,1.37607421875,1.38896484375,1.379296875,1.39541015625,1.36640625,1.36640625,1.36318359375,1.36640625,1.36962890625,1.37607421875,1.3728515625,1.3728515625,1.36962890625,1.37607421875,1.36640625,1.3470703125,1.3728515625,1.3599609375,1.379296875,1.36318359375,1.3921875,1.353515625,1.3599609375,1.36962890625,1.36962890625,1.3470703125,1.3728515625,1.36318359375,1.36640625,1.3599609375,1.35673828125,1.36640625,1.36318359375,1.36318359375,1.36640625,1.35029296875,1.353515625,1.36318359375,1.35673828125,1.35673828125,1.36318359375,1.36962890625,1.35029296875,1.3728515625,1.35029296875,1.35673828125,1.340625,1.35673828125,1.379296875,1.37607421875,1.36318359375,1.36962890625,1.3728515625,1.39541015625,1.379296875,1.405078125,1.41796875,1.4373046875,1.46630859375,1.4373046875,1.42763671875,1.41474609375,1.36962890625,1.34384765625,1.35029296875,1.33740234375,1.34384765625,1.33740234375,1.353515625,1.3341796875,1.34384765625,1.3728515625,1.379296875,1.62099609375,2.04638671875,2.16240234375,1.68544921875,1.38251953125,1.35029296875,1.36640625,1.36962890625,1.33740234375,1.3341796875,1.34384765625,1.34384765625,1.34384765625,1.3470703125,1.340625,1.34384765625,1.353515625,1.340625,1.3599609375,1.35673828125,1.3728515625,1.37607421875,1.36640625,1.38251953125,1.3728515625,1.3921875,1.40830078125,1.42119140625,1.42119140625,1.42763671875,1.4373046875,1.46953125,1.46953125,1.4953125,1.53076171875,1.52109375,1.533984375,1.53720703125,1.53720703125,1.51142578125,1.48564453125,1.45341796875,1.430859375,1.41796875,1.38896484375,1.38896484375,1.3857421875,1.37607421875,1.3470703125,1.379296875,1.3921875,1.37607421875,1.3470703125,1.379296875,1.3599609375,1.36962890625,1.353515625,1.379296875,1.36640625,1.379296875,1.3728515625,1.3728515625,1.36962890625,1.3728515625,1.36962890625,1.353515625,1.353515625,1.3599609375,1.37607421875,1.3599609375,1.3728515625,1.340625,1.3728515625,1.35029296875,1.36640625,1.35673828125,1.3599609375,1.35029296875,1.36640625,1.340625,1.3599609375,1.36318359375,1.3728515625,1.35673828125,1.3599609375,1.36640625,1.36318359375,1.36318359375,1.36962890625,1.36318359375,1.36962890625,1.3728515625,1.36318359375,1.3470703125,1.36640625,1.3599609375,1.35029296875,1.3599609375,1.36962890625,1.38251953125,1.38896484375,1.40185546875,1.3986328125,1.4501953125,1.4630859375,1.44052734375,1.430859375,1.430859375,1.38251953125,1.36640625,1.3599609375,1.3470703125,1.34384765625,1.3470703125,1.3341796875,1.3470703125,1.33095703125,1.35673828125,1.36962890625,1.43408203125,1.80146484375,2.230078125,1.99482421875,1.5017578125,1.38251953125,1.35673828125,1.3599609375,1.34384765625,1.33740234375,1.33095703125,1.353515625,1.34384765625,1.34384765625,1.35029296875,1.353515625,1.340625,1.34384765625,1.35029296875,1.36318359375,1.353515625,1.36962890625,1.3470703125,1.36640625,1.37607421875,1.3728515625,1.379296875,1.40830078125,1.38896484375,1.430859375,1.430859375,1.44052734375,1.47275390625,1.47919921875,1.5017578125,1.508203125,1.51787109375,1.52109375,1.53720703125,1.51142578125,1.50498046875,1.4630859375,1.44697265625,1.41474609375,1.430859375,1.39541015625,1.40185546875,1.3857421875,1.36962890625,1.36962890625,1.36962890625,1.379296875,1.35673828125,1.36640625,1.353515625,1.36318359375,1.3599609375,1.36640625,1.36318359375,1.3728515625,1.36640625,1.36962890625,1.36318359375,1.379296875,1.3470703125,1.36640625,1.3599609375,1.36318359375,1.353515625,1.3599609375,1.3599609375,1.36318359375,1.36318359375,1.353515625,1.36318359375,1.36318359375,1.353515625,1.35029296875,1.36318359375,1.3599609375,1.3599609375,1.35673828125,1.36640625,1.36640625,1.36640625,1.34384765625,1.3728515625,1.36318359375,1.36318359375,1.33740234375,1.36318359375,1.35673828125,1.3599609375,1.353515625,1.35029296875,1.3599609375,1.3728515625,1.36962890625,1.353515625,1.36318359375,1.340625,1.36640625,1.37607421875,1.39541015625,1.40830078125,1.42763671875,1.42119140625,1.47275390625,1.4373046875,1.4373046875,1.41796875,1.379296875,1.36318359375,1.3599609375,1.33740234375,1.340625,1.3470703125,1.35673828125,1.35029296875,1.3470703125,1.3470703125,1.36318359375,1.41474609375,1.7595703125,2.23974609375,2.09794921875,1.57265625,1.36962890625,1.36640625,1.35673828125,1.34384765625,1.36640625,1.3470703125,1.34384765625,1.353515625,1.340625,1.35029296875,1.3470703125,1.35029296875,1.3599609375,1.34384765625,1.353515625,1.35029296875,1.353515625,1.36640625,1.36318359375,1.379296875,1.36318359375,1.379296875,1.3986328125,1.4115234375,1.42763671875,1.42763671875,1.44697265625,1.4501953125,1.482421875,1.508203125,1.508203125,1.5017578125,1.533984375,1.5275390625,1.51787109375,1.49853515625,1.4759765625,1.44697265625,1.42763671875,1.41474609375,1.39541015625,1.3921875,1.37607421875,1.3728515625,1.38251953125,1.36962890625,1.36962890625,1.36318359375,1.36962890625,1.3728515625,1.36318359375,1.3728515625,1.3470703125,1.36640625,1.36318359375,1.36962890625,1.3599609375,1.36318359375,1.3728515625,1.3921875,1.36640625,1.3728515625,1.3857421875,1.3599609375,1.36318359375,1.3728515625,1.37607421875,1.3728515625,1.379296875,1.36962890625,1.3728515625,1.37607421875,1.38251953125,1.36640625,1.3728515625,1.36962890625,1.379296875,1.379296875,1.36962890625,1.35673828125,1.3857421875,1.36640625,1.379296875,1.38251953125,1.38896484375,1.35673828125,1.37607421875,1.36640625,1.3728515625,1.3728515625,1.36318359375,1.379296875,1.3857421875,1.36962890625,1.36318359375,1.36640625,1.37607421875,1.37607421875,1.3728515625,1.37607421875,1.3728515625,1.39541015625,1.39541015625,1.41474609375,1.40830078125,1.44697265625,1.47275390625,1.482421875,1.44052734375,1.44375,1.3921875,1.36962890625,1.353515625,1.36318359375,1.3599609375,1.3470703125,1.35673828125,1.35673828125,1.353515625,1.353515625,1.38251953125,1.3986328125,1.66611328125,2.13662109375,2.1462890625,1.6435546875,1.36962890625,1.3599609375,1.35029296875,1.33740234375,1.3599609375,1.340625,1.34384765625,1.327734375,1.33740234375,1.32451171875,1.340625,1.3212890625,1.33095703125,1.32451171875,1.32451171875,1.33095703125,1.327734375,1.33095703125,1.3212890625,1.33740234375,1.34384765625,1.35673828125,1.34384765625,1.36962890625,1.36318359375,1.3857421875,1.379296875,1.40830078125,1.4115234375,1.42763671875,1.45341796875,1.456640625,1.4630859375,1.45986328125,1.44052734375
1.43408203125,1.45986328125,1.46630859375,1.45341796875,1.44052734375,1.44697265625,1.4501953125,1.42763671875,1.44697265625,1.44052734375,1.45341796875,1.4373046875,1.456640625,1.43408203125,1.430859375,1.43408203125,1.44375,1.405078125,1.43408203125,1.430859375,1.430859375,1.41796875,1.41796875,1.41796875,1.41474609375,1.42119140625,1.40830078125,1.41474609375,1.3986328125,1.39541015625,1.3921875,1.42763671875,1.40185546875,1.4115234375,1.40185546875,1.4115234375,1.39541015625,1.3986328125,1.40185546875,1.40830078125,1.39541015625,1.40830078125,1.36640625,1.405078125,1.38251953125,1.40185546875,1.3921875,1.38896484375,1.40830078125,1.4115234375,1.43408203125,1.42763671875,1.4630859375,1.47275390625,1.482421875,1.45341796875,1.44697265625,1.405078125,1.38896484375,1.36962890625,1.36962890625,1.37607421875,1.36640625,1.37607421875,1.38896484375,1.36318359375,1.39541015625,1.39541015625,1.51142578125,1.843359375,2.18173828125,1.87880859375,1.456640625,1.4115234375,1.3921875,1.37607421875,1.3921875,1.3728515625,1.35673828125,1.3728515625,1.36318359375,1.36318359375,1.36318359375,1.353515625,1.3470703125,1.36962890625,1.36318359375,1.36962890625,1.3470703125,1.36962890625,1.3470703125,1.36640625,1.36640625,1.379296875,1.36962890625,1.39541015625,1.3986328125,1.4244140625,1.3986328125,1.430859375,1.44052734375,1.45341796875,1.4630859375,1.4759765625,1.4888671875,1.4759765625,1.4630859375,1.46953125,1.430859375,1.430859375,1.38896484375,1.36962890625,1.379296875,1.34384765625,1.33740234375,1.33740234375,1.340625,1.33095703125,1.33095703125,1.33740234375,1.340625,1.340625,1.3341796875,1.33740234375,1.340625,1.33095703125,1.33740234375,1.33095703125,1.34384765625,1.33095703125,1.32451171875,1.34384765625,1.3341796875,1.3470703125,1.33095703125,1.33740234375,1.33095703125,1.3341796875,1.34384765625,1.35673828125,1.33740234375,1.34384765625,1.3341796875,1.33740234375,1.340625,1.33095703125,1.3470703125,1.35673828125,1.327734375,1.353515625,1.33740234375,1.36318359375,1.34384765625,1.379296875,1.35673828125,1.35673828125,1.35673828125,1.3470703125,1.3599609375,1.3599609375,1.36318359375,1.36640625,1.3599609375,1.3470703125,1.3599609375,1.36962890625,1.36318359375,1.36962890625,1.39541015625,1.38896484375,1.3986328125,1.430859375,1.46953125,1.46953125,1.4244140625,1.42763671875,1.38896484375,1.3599609375,1.36640625,1.37607421875,1.340625,1.3599609375,1.36640625,1.35029296875,1.3599609375,1.36640625,1.38896484375,1.4244140625,1.7466796875,2.19140625,2.0431640625,1.55654296875,1.3857421875,1.3857421875,1.38896484375,1.38251953125,1.3599609375,1.36640625,1.36640625,1.3921875,1.3728515625,1.38896484375,1.38251953125,1.3728515625,1.37607421875,1.3921875,1.3921875,1.37607421875,1.38896484375,1.3728515625,1.39541015625,1.3921875,1.40185546875,1.40830078125,1.430859375,1.41474609375,1.43408203125,1.430859375,1.456640625,1.4888671875,1.4888671875,1.46953125,1.508203125,1.52109375,1.5146484375,1.52431640625,1.4953125,1.48564453125,1.44375,1.44052734375,1.40830078125,1.40830078125,1.36962890625,1.3728515625,1.3728515625,1.37607421875,1.353515625,1.3857421875,1.3470703125,1.38251953125,1.37607421875,1.3728515625,1.3599609375,1.39541015625,1.36962890625,1.36640625,1.379296875,1.36962890625,1.36640625,1.3728515625,1.36318359375,1.36318359375,1.36318359375,1.36318359375,1.3599609375,1.35673828125,1.36640625,1.353515625,1.35673828125,1.35673828125,1.36318359375,1.35029296875,1.36640625,1.353515625,1.3728515625,1.36318359375,1.36640625,1.353515625,1.36318359375,1.353515625,1.36640625,1.36318359375,1.3599609375,1.3599609375,1.36962890625,1.35673828125,1.3599609375,1.36318359375,1.35673828125,1.36962890625,1.3599609375,1.37607421875,1.353515625,1.37607421875,1.3728515625,1.38896484375,1.41474609375,1.44375,1.44697265625,1.430859375,1.430859375,1.42763671875,1.379296875,1.3470703125,1.36318359375,1.3599609375,1.3470703125,1.3599609375,1.340625,1.34384765625,1.3341796875,1.36640625,1.379296875,1.52431640625,1.869140625,2.126953125,1.7595703125,1.38251953125,1.38896484375,1.3599609375,1.3599609375,1.353515625,1.35673828125,1.34384765625,1.353515625,1.35029296875,1.3470703125,1.353515625,1.35029296875,1.35673828125,1.36318359375,1.353515625,1.36318359375,1.3728515625,1.3728515625,1.36962890625,1.3857421875,1.38251953125,1.379296875,1.3857421875,1.40185546875,1.405078125,1.430859375,1.4373046875,1.4501953125,1.4759765625,1.45986328125,1.5017578125,1.4953125,1.5275390625,1.51142578125,1.49208984375,1.5017578125,1.4759765625,1.4501953125,1.44052734375,1.41474609375,1.3921875,1.39541015625,1.37607421875,1.37607421875,1.379296875,1.37607421875,1.37607421875,1.37607421875,1.3728515625,1.36318359375,1.36318359375,1.37607421875,1.36640625,1.3857421875,1.36640625,1.3728515625,1.3857421875,1.3728515625,1.36640625,1.38251953125,1.36318359375,1.3728515625,1.37607421875,1.36640625,1.3728515625,1.36318359375,1.36640625,1.38251953125,1.36640625,1.3599609375,1.3728515625,1.353515625,1.379296875,1.36318359375,1.353515625,1.3599609375,1.36318359375,1.3599609375,1.36318359375,1.3599609375,1.379296875,1.35029296875,1.36318359375,1.35029296875,1.36962890625,1.36318359375,1.36318359375,1.3728515625,1.36318359375,1.36640625,1.3599609375,1.379296875,1.379296875,1.40185546875,1.3857421875,1.40185546875,1.44052734375,1.45986328125,1.43408203125,1.43408203125,1.405078125,1.379296875,1.35029296875,1.3599609375,1.353515625,1.35673828125,1.35029296875,1.3341796875,1.353515625,1.35029296875,1.37607421875,1.3857421875,1.59521484375,1.998046875,2.11083984375,1.67578125,1.38896484375,1.38896484375,1.36640625,1.35029296875,1.3470703125,1.34384765625,1.3470703125,1.353515625,1.33740234375,1.33740234375,1.3470703125,1.353515625,1.3470703125,1.3470703125,1.3599609375,1.35673828125,1.3599609375,1.35673828125,1.36962890625,1.36640625,1.38251953125,1.379296875,1.3921875,1.39541015625,1.405078125,1.42119140625,1.4373046875,1.44052734375,1.4501953125,1.47275390625,1.48564453125,1.49853515625,1.4888671875,1.4888671875,1.49208984375,1.49853515625,1.4630859375,1.44375,1.4244140625,1.4115234375,1.38896484375,1.38251953125,1.38251953125,1.38251953125,1.36962890625,1.37607421875,1.36962890625,1.379296875,1.36962890625,1.37607421875,1.36640625,1.3728515625,1.36640625,1.3599609375,1.36640625,1.3599609375,1.3599609375,1.37607421875,1.36640625,1.35673828125,1.37607421875,1.353515625,1.36962890625,1.36318359375,1.36318359375,1.36640625,1.3728515625,1.379296875,1.36640625,1.353515625,1.36318359375,1.3728515625,1.3728515625,1.36640625,1.3728515625,1.353515625,1.36640625,1.35673828125,1.36318359375,1.3728515625,1.34384765625,1.35673828125,1.3728515625,1.3599609375,1.35029296875,1.34384765625,1.36640625,1.36640625,1.36962890625,1.36318359375,1.36640625,1.41474609375,1.39541015625,1.3857421875,1.43408203125,1.4759765625,1.4630859375,1.4373046875,1.44052734375,1.40185546875,1.3728515625,1.36640625,1.35673828125,1.35029296875,1.35029296875,1.3341796875,1.35673828125,1.32451171875,1.35673828125,1.3599609375,1.39541015625,1.64033203125,2.06572265625,2.0689453125,1.6048828125,1.38251953125,1.37607421875,1.3599609375,1.36318359375,1.33740234375,1.34384765625,1.353515625,1.353515625,1.35673828125,1.340625,1.3470703125,1.35029296875,1.36318359375,1.35673828125,1.3599609375,1.36318359375,1.3599609375,1.36962890625,1.3728515625,1.3728515625,1.3857421875,1.3921875,1.40185546875,1.40830078125,1.42763671875,1.43408203125,1.44052734375,1.4630859375,1.48564453125,1.49208984375,1.52431640625,1.5017578125,1.5275390625,1.52431640625,1.508203125,1.49208984375,1.47275390625,1.43408203125,1.42763671875,1.41474609375,1.38896484375,1.38896484375,1.379296875,1.3921875,1.36962890625,1.38251953125,1.38251953125,1.379296875,1.36640625,1.3857421875,1.3857421875,1.379296875,1.38251953125,1.37607421875,1.36640625,1.3728515625,1.36318359375,1.36640625,1.3728515625,1.3599609375,1.36640625,1.3728515625,1.353515625,1.36962890625,1.36962890625,1.35029296875,1.36318359375,1.340625,1.36640625,1.3599609375,1.36318359375,1.353515625,1.3470703125,1.35029296875,1.36640625,1.35029296875,1.36962890625,1.3599609375,1.36640625,1.35673828125,1.35673828125,1.36640625,1.36640625,1.353515625,1.3599609375,1.3728515625,1.36318359375,1.36640625,1.353515625,1.36640625,1.3599609375,1.379296875,1.405078125,1.40830078125,1.43408203125,1.47919921875,1.456640625,1.45341796875,1.4501953125,1.405078125,1.37607421875,1.353515625,1.35029296875,1.35029296875,1.34384765625,1.35029296875,1.34384765625,1.3470703125,1.35029296875,1.36318359375,1.41474609375,1.66611328125,2.09150390625,2.049609375,1.55654296875,1.36962890625,1.3728515625,1.34384765625,1.35029296875,1.34384765625,1.340625,1.32451171875,1.3470703125,1.3341796875,1.3341796875,1.3341796875,1.340625,1.340625,1.35673828125,1.3470703125,1.36318359375,1.340625,1.36640625,1.379296875,1.3728515625,1.36962890625,1.37607421875,1.40185546875,1.4115234375,1.42119140625,1.40185546875,1.456640625,1.45341796875,1.47919921875,1.4888671875,1.508203125,1.5017578125,1.52431640625,1.51142578125,1.51142578125,1.48564453125,1.47275390625,1.44052734375,1.42119140625,1.405078125,1.39541015625,1.3857421875,1.3728515625,1.3728515625,1.37607421875,1.36962890625,1.3728515625,1.3599609375,1.36640625,1.35673828125,1.35029296875,1.379296875,1.3599609375,1.36640625,1.3599609375,1.36640625,1.35029296875,1.36640625,1.340625,1.3728515625,1.3599609375,1.36640625,1.353515625,1.36640625,1.3728515625,1.3599609375,1.35029296875,1.35029296875,1.36318359375,1.353515625,1.35673828125,1.3470703125,1.35029296875,1.35673828125,1.3599609375,1.34384765625,1.35029296875,1.35029296875,1.35673828125,1.35029296875,1.35673828125,1.353515625,1.36962890625,1.340625,1.36318359375,1.353515625,1.36640625,1.35673828125,1.3599609375,1.379296875,1.3986328125,1.3986328125,1.41474609375,1.4244140625,1.4630859375,1.4630859375,1.43408203125,1.41796875,1.3728515625,1.35673828125,1.3341796875,1.35029296875,1.340625,1.35029296875,1.3470703125,1.340625,1.3341796875,1.36640625,1.36318359375,1.44375,1.7724609375,2.2107421875,1.98515625,1.4759765625,1.36318359375,1.37607421875,1.36318359375,1.35673828125,1.340625,1.340625,1.35029296875,1.34384765625,1.35029296875,1.33740234375,1.35673828125,1.3470703125,1.36962890625,1.35673828125,1.36962890625,1.36640625,1.3728515625,1.35673828125,1.3921875,1.38251953125,1.40185546875,1.40185546875,1.405078125,1.39541015625,1.43408203125,1.44052734375,1.45986328125,1.47919921875,1.49208984375,1.5017578125,1.5146484375,1.52109375,1.53076171875,1.51787109375,1.4953125,1.482421875,1.45986328125,1.44375,1.41796875,1.3986328125,1.3921875,1.38896484375,1.3857421875,1.379296875,1.38251953125,1.379296875,1.36640625,1.37607421875,1.379296875,1.3857421875,1.3728515625,1.36640625,1.35673828125,1.37607421875,1.37607421875,1.3728515625,1.36318359375,1.379296875,1.36318359375,1.36318359375,1.3728515625,1.36962890625,1.36962890625,1.3470703125,1.3728515625,1.36318359375,1.36962890625,1.379296875,1.35673828125,1.35673828125,1.3728515625,1.3599609375,1.36318359375,1.36318359375,1.3599609375,1.35673828125,1.3728515625,1.3470703125,1.37607421875,1.37607421875,1.36318359375,1.3599609375,1.3728515625,1.353515625,1.353515625,1.3728515625,1.36640625,1.39541015625,1.3857421875,1.4115234375,1.42119140625,1.4501953125,1.44052734375,1.44697265625,1.3921875,1.37607421875,1.34384765625,1.3599609375,1.340625,1.3470703125,1.34384765625,1.3470703125,1.3470703125,1.35673828125,1.340625,1.36640625,1.44052734375,1.78857421875,2.14306640625,1.8498046875,1.3857421875,1.3470703125,1.36640625,1.3470703125,1.35673828125,1.3341796875,1.3470703125,1.35029296875,1.34384765625,1.353515625,1.36640625,1.340625,1.3599609375,1.353515625,1.3599609375,1.3599609375,1.3728515625,1.36962890625,1.379296875,1.37607421875,1.379296875,1.38251953125,1.38896484375,1.41474609375,1.42119140625,1.430859375,1.44375,1.45986328125,1.46953125,1.4888671875,1.4953125,1.52109375,1.52109375,1.533984375,1.51142578125,1.508203125,1.4759765625,1.44697265625,1.42763671875,1.41474609375,1.38896484375,1.37607421875,1.36962890625,1.35673828125,1.36640625,1.36962890625,1.35029296875,1.36640625,1.36962890625,1.36318359375,1.36640625,1.353515625,1.36640625,1.35673828125,1.3599609375,1.34384765625,1.36640625,1.35029296875,1.3728515625,1.3341796875,1.36318359375,1.35673828125,1.35673828125,1.35029296875,1.353515625,1.35029296875,1.35673828125,1.34384765625,1.34384765625,1.3599609375,1.353515625,1.3599609375,1.36640625,1.3599609375,1.35673828125,1.35029296875,1.340625,1.36318359375,1.3470703125,1.353515625,1.3470703125,1.36640625,1.353515625,1.35673828125,1.35029296875,1.36318359375,1.3599609375,1.379296875,1.379296875,1.405078125,1.39541015625,1.41474609375,1.456640625,1.45341796875,1.43408203125,1.430859375,1.37607421875,1.353515625,1.34384765625,1.353515625,1.340625,1.33740234375,1.3470703125,1.34384765625,1.353515625,1.35029296875,1.38251953125,1.3857421875,1.6306640625,2.0818359375,2.152734375,1.65322265625,1.3857421875,1.37607421875,1.36962890625,1.340625,1.34384765625,1.3599609375,1.34384765625,1.35029296875,1.340625,1.3470703125,1.353515625,1.3470703125,1.3470703125,1.35029296875,1.35673828125,1.36318359375,1.35673828125,1.37607421875,1.36962890625,1.38896484375,1.38896484375,1.3986328125,1.40185546875,1.41796875,1.42763671875,1.44697265625,1.4501953125,1.4630859375,1.4888671875,1.5017578125,1.50498046875,1.52431640625,1.5275390625,1.5275390625,1.51142578125,1.4953125,1.46630859375,1.4244140625,1.41474609375,1.405078125,1.3986328125,1.38251953125,1.3857421875,1.37607421875,1.3921875,1.37607421875,1.36318359375,1.36640625,1.38896484375,1.39541015625,1.37607421875,1.36962890625,1.38251953125,1.36640625,1.3728515625,1.38251953125,1.38251953125,1.3599609375,1.35673828125,1.38251953125,1.3728515625,1.36318359375,1.36962890625,1.3728515625,1.35029296875,1.36962890625,1.3470703125,1.3728515625,1.353515625,1.3599609375,1.35029296875,1.37607421875,1.35029296875,1.36962890625,1.353515625,1.3599609375,1.35029296875,1.3599609375,1.36640625,1.36318359375,1.36318359375,1.35673828125,1.3470703125,1.353515625,1.34384765625,1.3599609375,1.36962890625,1.36962890625,1.379296875,1.3857421875,1.405078125,1.43408203125,1.45341796875,1.42763671875,1.4244140625,1.379296875,1.37607421875,1.3341796875,1.3470703125,1.34384765625,1.3470703125,1.35029296875,1.3470703125,1.340625,1.35029296875,1.36962890625,1.379296875,1.55654296875,1.95615234375,2.126953125,1.7015625,1.35029296875,1.36318359375,1.33095703125,1.3470703125,1.33740234375,1.33095703125,1.3212890625,1.32451171875,1.33095703125,1.33095703125,1.33740234375,1.3341796875,1.36640625,1.35029296875,1.3599609375,1.353515625,1.36640625,1.36318359375,1.37607421875,1.36640625,1.3857421875,1.3921875,1.40830078125,1.40185546875,1.41474609375,1.44375,1.44052734375,1.47275390625,1.46630859375,1.5017578125,1.50498046875,1.508203125,1.5146484375,1.53076171875,1.5146484375,1.50498046875,1.45986328125,1.44052734375,1.42119140625,1.40830078125,1.37607421875,1.3857421875,1.36640625,1.3857421875,1.36640625,1.3728515625,1.36962890625,1.379296875,1.37607421875,1.36962890625,1.36640625,1.37607421875,1.379296875,1.36962890625,1.36640625,1.3728515625,1.37607421875,1.37607421875,1.379296875,1.36318359375,1.38896484375,1.36962890625,1.37607421875,1.36318359375,1.36640625,1.379296875,1.37607421875,1.36640625,1.36318359375,1.3728515625,1.38251953125,1.37607421875,1.36962890625,1.3728515625,1.36962890625,1.3728515625,1.379296875,1.36962890625,1.35673828125,1.38251953125,1.36962890625,1.37607421875,1.36640625,1.38251953125,1.3728515625,1.36962890625,1.36318359375,1.36962890625,1.3728515625,1.39541015625,1.3857421875,1.41474609375,1.3986328125,1.4373046875,1.46953125,1.46953125,1.44375,1.42763671875,1.39541015625,1.379296875,1.3599609375,1.35673828125,1.34384765625,1.3470703125,1.34384765625,1.33095703125,1.35673828125,1.3470703125,1.379296875,1.379296875,1.5984375,2.0302734375,2.165625,1.7080078125,1.379296875,1.3857421875,1.35029296875,1.3470703125,1.33095703125,1.33740234375,1.33740234375,1.3341796875,1.34384765625,1.3341796875,1.327734375,1.3212890625,1.33740234375,1.33740234375,1.32451171875,1.33095703125,1.3341796875,1.3470703125,1.3341796875,1.3470703125,1.3470703125,1.36640625,1.35029296875,1.3728515625,1.36962890625,1.3857421875,1.3921875,1.405078125,1.41474609375,1.430859375,1.44697265625,1.4501953125,1.456640625,1.4501953125,1.43408203125,1.40185546875
