1.39677419354839,1.41290322580645,1.42903225806452,1.44193548387097,1.45161290322581,1.45483870967742,1.44193548387097,1.42903225806452,1.41935483870968,1.4,1.39677419354839,1.38709677419355,1.37741935483871,1.38387096774194,1.38064516129032,1.3741935483871,1.38064516129032,1.38064516129032,1.38387096774194,1.38387096774194,1.38064516129032,1.37741935483871,1.37096774193548,1.37096774193548,1.37741935483871,1.37741935483871,1.3741935483871,1.38387096774194,1.37741935483871,1.38709677419355,1.38387096774194,1.39354838709677,1.39032258064516,1.39032258064516,1.39354838709677,1.39032258064516,1.39677419354839,1.39032258064516,1.38387096774194,1.38064516129032,1.37741935483871,1.3741935483871,1.37741935483871,1.37741935483871,1.3741935483871,1.37741935483871,1.37741935483871,1.37096774193548,1.37741935483871,1.37741935483871,1.37096774193548,1.3741935483871,1.37741935483871,1.37096774193548,1.38064516129032,1.37741935483871,1.38387096774194,1.38064516129032,1.37741935483871,1.38387096774194,1.37741935483871,1.37741935483871,1.38387096774194,1.39354838709677,1.38709677419355,1.38064516129032,1.39354838709677,1.39354838709677,1.39677419354839,1.40645161290323,1.40967741935484,1.43225806451613,1.44516129032258,1.44516129032258,1.44193548387097,1.45161290322581,1.45161290322581,1.42903225806452,1.41935483870968,1.40322580645161,1.38709677419355,1.38709677419355,1.37741935483871,1.37741935483871,1.38064516129032,1.37096774193548,1.3741935483871,1.37096774193548,1.37741935483871,1.36774193548387,1.36451612903226,1.34838709677419,1.35161290322581,1.44516129032258,1.69677419354839,2.02903225806452,2.31612903225806,2.04516129032258,1.57741935483871,1.4,1.33870967741935,1.35483870967742,1.35806451612903,1.35161290322581,1.34838709677419,1.34193548387097,1.35161290322581,1.35483870967742,1.35483870967742,1.36129032258065,1.35483870967742,1.35806451612903,1.35806451612903,1.36129032258065,1.36129032258065,1.35806451612903,1.35806451612903,1.35806451612903,1.35483870967742,1.35806451612903,1.35161290322581,1.35806451612903,1.35483870967742,1.35483870967742,1.35806451612903,1.35483870967742,1.36774193548387,1.38064516129032,1.38709677419355,1.4,1.41290322580645,1.4258064516129,1.44193548387097,1.44838709677419,1.44838709677419,1.44193548387097,1.42258064516129,1.4,1.39354838709677,1.38709677419355,1.38709677419355,1.38064516129032,1.36451612903226,1.37096774193548,1.37096774193548,1.36451612903226,1.36774193548387,1.35483870967742,1.35806451612903,1.36129032258065,1.36451612903226,1.36774193548387,1.36451612903226,1.36129032258065,1.37096774193548,1.36774193548387,1.37096774193548,1.36774193548387,1.3741935483871,1.37096774193548,1.3741935483871,1.36451612903226,1.36774193548387,1.37096774193548,1.36451612903226,1.36129032258065,1.36774193548387,1.36774193548387,1.36451612903226,1.36451612903226,1.36774193548387,1.36774193548387,1.3741935483871,1.37096774193548,1.36451612903226,1.3741935483871,1.3741935483871,1.37096774193548,1.3741935483871,1.3741935483871,1.3741935483871,1.37096774193548,1.3741935483871,1.3741935483871,1.36774193548387,1.37741935483871,1.37741935483871,1.37096774193548,1.37096774193548,1.3741935483871,1.3741935483871,1.37096774193548,1.37741935483871,1.38387096774194,1.38064516129032,1.38064516129032,1.38064516129032,1.37741935483871,1.38709677419355,1.4,1.39677419354839,1.40967741935484,1.43225806451613,1.42258064516129,1.43870967741935,1.43870967741935,1.43870967741935,1.42258064516129,1.39677419354839,1.39032258064516,1.37741935483871,1.36774193548387,1.36774193548387,1.35161290322581,1.36129032258065,1.35806451612903,1.34838709677419,1.34193548387097,1.34838709677419,1.35483870967742,1.34838709677419,1.32258064516129,1.35161290322581,1.43870967741935,1.66451612903226,1.99354838709677,2.25161290322581,1.95483870967742,1.49032258064516,1.34838709677419,1.31290322580645,1.34193548387097,1.34838709677419,1.34193548387097,1.35483870967742,1.35806451612903,1.35483870967742,1.36774193548387,1.35806451612903,1.35806451612903,1.36129032258065,1.35806451612903,1.36451612903226,1.37741935483871,1.38064516129032,1.37096774193548,1.36774193548387,1.36774193548387,1.37741935483871,1.37741935483871,1.38064516129032,1.38387096774194,1.38387096774194,1.38387096774194,1.39354838709677,1.40645161290323,1.40322580645161,1.42258064516129,1.42903225806452,1.44516129032258,1.45161290322581,1.47096774193548,1.4741935483871,1.47741935483871,1.48709677419355,1.47096774193548,1.44838709677419,1.43225806451613,1.42258064516129,1.40645161290323,1.40645161290323,1.40645161290323,1.40645161290323,1.40322580645161,1.39032258064516,1.38709677419355,1.40322580645161,1.40322580645161,1.4,1.39354838709677,1.39354838709677,1.38709677419355,1.38709677419355,1.39354838709677,1.4,1.40645161290323,1.40645161290323,1.41290322580645,1.40967741935484,1.40645161290323,1.4,1.40967741935484,1.39354838709677,1.39677419354839,1.4,1.39677419354839,1.39354838709677,1.39032258064516,1.39032258064516,1.38387096774194,1.39354838709677,1.39354838709677,1.38064516129032,1.38387096774194,1.38064516129032,1.38064516129032,1.38064516129032,1.38387096774194,1.3741935483871,1.3741935483871,1.37096774193548,1.36774193548387,1.36129032258065,1.35483870967742,1.35161290322581,1.35483870967742,1.35806451612903,1.36451612903226,1.36774193548387,1.37741935483871,1.37741935483871,1.37741935483871,1.36774193548387,1.36129032258065,1.36129032258065,1.36774193548387,1.36129032258065,1.36451612903226,1.38709677419355,1.40967741935484,1.42258064516129,1.41612903225806,1.42258064516129,1.41612903225806,1.41935483870968,1.38709677419355,1.36774193548387,1.35161290322581,1.35161290322581,1.34516129032258,1.34193548387097,1.34193548387097,1.34838709677419,1.33870967741935,1.34516129032258,1.33548387096774,1.34516129032258,1.32903225806452,1.3258064516129,1.31290322580645,1.36451612903226,1.52903225806452,1.81935483870968,2.15483870967742,2.15806451612903,1.60967741935484,1.42258064516129,1.32903225806452,1.34516129032258,1.36774193548387,1.35161290322581,1.34838709677419,1.34838709677419,1.34516129032258,1.34838709677419,1.34516129032258,1.34838709677419,1.34516129032258,1.34516129032258,1.34838709677419,1.35161290322581,1.35161290322581,1.35161290322581,1.35806451612903,1.35483870967742,1.35161290322581,1.37096774193548,1.36774193548387,1.37096774193548,1.37096774193548,1.3741935483871,1.37096774193548,1.38064516129032,1.37741935483871,1.39032258064516,1.4,1.41290322580645,1.42903225806452,1.44193548387097,1.44838709677419,1.45806451612903,1.45806451612903,1.44838709677419,1.43548387096774,1.41935483870968,1.40322580645161,1.39677419354839,1.38709677419355,1.37741935483871,1.37096774193548,1.36129032258065,1.37096774193548,1.37096774193548,1.3741935483871,1.37096774193548,1.36774193548387,1.36451612903226,1.36774193548387,1.36774193548387,1.3741935483871,1.3741935483871,1.3741935483871,1.38064516129032,1.36774193548387,1.36774193548387,1.3741935483871,1.37741935483871,1.38387096774194,1.38387096774194,1.38387096774194,1.3741935483871,1.3741935483871,1.36774193548387,1.37096774193548,1.37096774193548,1.36774193548387,1.37741935483871,1.37741935483871,1.38387096774194,1.38709677419355,1.38709677419355,1.38709677419355,1.39354838709677,1.38387096774194,1.39032258064516,1.39354838709677,1.39354838709677,1.38709677419355,1.39677419354839,1.38709677419355,1.38709677419355,1.39354838709677,1.38709677419355,1.38387096774194,1.38709677419355,1.38709677419355,1.38709677419355,1.39032258064516,1.39032258064516,1.39354838709677,1.39354838709677,1.39354838709677,1.39677419354839,1.40322580645161,1.40645161290323,1.4,1.41935483870968,1.43870967741935,1.46129032258065,1.45161290322581,1.45483870967742,1.46774193548387,1.47096774193548,1.44193548387097,1.42258064516129,1.4,1.39032258064516,1.39032258064516,1.38064516129032,1.38387096774194,1.37741935483871,1.3741935483871,1.36774193548387,1.36774193548387,1.36774193548387,1.37096774193548,1.36774193548387,1.34193548387097,1.34838709677419,1.44516129032258,1.69032258064516,2.03870967741935,2.30967741935484,2.01935483870968,1.57741935483871,1.38709677419355,1.33225806451613,1.35161290322581,1.35806451612903,1.34516129032258,1.33870967741935,1.34838709677419,1.34516129032258,1.34838709677419,1.34516129032258,1.33870967741935,1.33548387096774,1.33870967741935,1.33870967741935,1.34193548387097,1.34516129032258,1.35161290322581,1.34516129032258,1.35806451612903,1.35483870967742,1.35161290322581,1.36129032258065,1.36129032258065,1.36774193548387,1.35483870967742,1.37096774193548,1.37096774193548,1.3741935483871,1.37741935483871,1.39354838709677,1.40967741935484,1.4258064516129,1.44193548387097,1.44193548387097,1.44838709677419,1.46129032258065,1.44193548387097,1.43870967741935,1.41935483870968,1.40645161290323,1.39032258064516,1.39032258064516,1.38709677419355,1.38387096774194,1.38064516129032,1.39032258064516,1.38064516129032,1.37096774193548,1.38064516129032,1.3741935483871,1.37741935483871,1.38064516129032,1.38064516129032,1.38064516129032,1.37741935483871,1.37096774193548,1.3741935483871,1.3741935483871,1.37096774193548,1.37096774193548,1.37096774193548,1.37096774193548,1.37741935483871,1.3741935483871,1.37741935483871,1.38387096774194,1.3741935483871,1.36774193548387,1.37096774193548,1.37096774193548,1.36774193548387,1.36774193548387,1.37741935483871,1.38064516129032,1.3741935483871,1.37741935483871,1.37096774193548,1.37741935483871,1.36451612903226,1.35806451612903,1.35806451612903,1.35483870967742,1.35806451612903,1.36451612903226,1.37096774193548,1.36451612903226,1.35806451612903,1.36451612903226,1.36451612903226,1.36774193548387,1.37096774193548,1.36774193548387,1.36774193548387,1.36774193548387,1.38064516129032,1.3741935483871,1.38064516129032,1.38064516129032,1.38387096774194,1.40645161290323,1.42903225806452,1.44193548387097,1.43548387096774,1.42903225806452,1.43548387096774,1.44516129032258,1.40967741935484,1.39354838709677,1.37741935483871,1.37096774193548,1.36129032258065,1.35806451612903,1.36451612903226,1.36129032258065,1.36451612903226,1.35161290322581,1.36129032258065,1.36129032258065,1.36129032258065,1.35483870967742,1.33870967741935,1.3741935483871,1.49354838709677,1.7741935483871,2.12903225806452,2.25161290322581,1.73225806451613,1.43548387096774,1.3258064516129,1.3258064516129,1.36129032258065,1.34516129032258,1.34516129032258,1.34516129032258,1.34193548387097,1.33870967741935,1.34838709677419,1.35161290322581,1.35161290322581,1.34838709677419,1.36129032258065,1.34838709677419,1.35161290322581,1.35161290322581,1.34838709677419,1.35806451612903,1.35806451612903,1.35161290322581,1.36451612903226,1.36129032258065,1.36129032258065,1.37741935483871,1.37096774193548,1.38064516129032,1.39677419354839,1.39032258064516,1.4,1.41290322580645,1.4258064516129,1.43870967741935,1.44838709677419,1.46774193548387,1.45806451612903,1.44838709677419,1.44516129032258,1.4258064516129,1.42258064516129,1.41290322580645,1.40322580645161,1.4,1.39354838709677,1.39354838709677,1.39677419354839,1.40322580645161,1.40322580645161,1.38064516129032,1.40322580645161,1.39354838709677,1.39677419354839,1.39354838709677,1.39354838709677,1.40322580645161,1.39677419354839,1.4,1.40322580645161,1.40967741935484,1.40645161290323,1.39354838709677,1.4,1.40645161290323,1.4,1.38709677419355,1.4,1.38387096774194,1.38387096774194,1.39032258064516,1.3741935483871,1.3741935483871,1.3741935483871,1.37096774193548,1.3741935483871,1.37096774193548,1.37096774193548,1.37096774193548,1.36451612903226,1.36451612903226,1.36451612903226,1.36451612903226,1.36129032258065,1.37096774193548,1.37096774193548,1.37741935483871,1.37096774193548,1.3741935483871,1.36774193548387,1.37741935483871,1.37741935483871,1.38064516129032,1.37741935483871,1.38064516129032,1.37741935483871,1.37741935483871,1.3741935483871,1.3741935483871,1.38064516129032,1.38064516129032,1.39354838709677,1.41935483870968,1.43548387096774,1.42903225806452,1.43225806451613,1.44193548387097,1.43548387096774,1.43225806451613,1.40322580645161,1.38709677419355,1.37741935483871,1.36774193548387,1.36774193548387,1.37096774193548,1.36451612903226,1.36451612903226,1.36774193548387,1.37096774193548,1.36774193548387,1.36774193548387,1.37096774193548,1.35806451612903,1.35806451612903,1.43548387096774,1.64193548387097,1.94193548387097,2.21612903225806,2.00645161290323,1.52258064516129,1.3741935483871,1.33225806451613,1.36451612903226,1.37741935483871,1.37096774193548,1.35806451612903,1.37096774193548,1.36774193548387,1.36774193548387,1.36129032258065,1.36129032258065,1.36129032258065,1.35483870967742,1.34516129032258,1.35161290322581,1.35483870967742,1.35161290322581,1.35161290322581,1.35483870967742,1.35806451612903,1.36129032258065,1.36129032258065,1.36451612903226,1.36774193548387,1.36129032258065,1.36129032258065,1.36774193548387,1.3741935483871,1.39032258064516,1.40322580645161,1.41935483870968,1.41935483870968,1.43548387096774,1.44193548387097,1.45483870967742,1.45806451612903,1.44516129032258,1.43548387096774,1.41935483870968,1.40322580645161,1.39032258064516,1.38709677419355,1.37741935483871,1.37741935483871,1.38064516129032,1.3741935483871,1.37096774193548,1.3741935483871,1.38387096774194,1.38064516129032,1.38064516129032,1.38064516129032,1.38709677419355,1.39032258064516,1.37741935483871,1.38709677419355,1.39032258064516,1.38709677419355,1.39032258064516,1.38709677419355,1.38709677419355,1.39032258064516,1.38709677419355,1.39677419354839,1.39677419354839,1.39032258064516,1.38387096774194,1.38387096774194,1.37741935483871,1.37096774193548,1.37096774193548,1.37096774193548,1.37096774193548,1.3741935483871,1.36774193548387,1.3741935483871,1.3741935483871,1.38064516129032,1.38064516129032,1.37096774193548,1.36774193548387,1.36774193548387,1.36774193548387,1.36129032258065,1.36451612903226,1.36774193548387,1.36774193548387,1.36129032258065,1.37096774193548,1.37096774193548,1.36774193548387,1.37096774193548,1.36451612903226,1.36129032258065,1.35806451612903,1.35483870967742,1.35483870967742,1.35483870967742,1.36129032258065,1.36774193548387,1.36129032258065,1.38709677419355,1.40645161290323,1.41612903225806,1.40967741935484,1.41935483870968,1.4258064516129,1.42903225806452,1.40322580645161,1.37741935483871,1.36451612903226,1.35806451612903,1.35161290322581,1.34516129032258,1.35161290322581,1.34193548387097,1.34516129032258,1.33870967741935,1.34516129032258,1.34838709677419,1.35483870967742,1.35161290322581,1.31935483870968,1.35161290322581,1.46774193548387,1.75161290322581,2.10967741935484,2.30322580645161,1.86451612903226,1.52903225806452,1.37096774193548,1.33548387096774,1.37096774193548,1.35483870967742,1.35806451612903,1.34838709677419,1.34516129032258,1.35483870967742,1.34838709677419,1.35806451612903,1.36451612903226,1.36129032258065,1.37096774193548,1.36774193548387,1.36451612903226,1.37096774193548,1.36451612903226,1.36774193548387,1.3741935483871,1.37096774193548,1.37741935483871,1.37741935483871,1.3741935483871,1.37741935483871,1.38387096774194,1.38064516129032,1.38709677419355,1.39354838709677,1.40322580645161,1.41935483870968,1.42903225806452,1.44193548387097,1.45806451612903,1.46774193548387,1.48064516129032,1.4741935483871,1.47096774193548,1.45483870967742,1.44838709677419,1.43870967741935,1.43548387096774,1.42258064516129,1.41290322580645,1.40645161290323,1.40645161290323,1.40322580645161,1.40322580645161,1.41290322580645,1.40322580645161,1.39677419354839,1.39677419354839,1.40322580645161,1.39354838709677,1.39677419354839,1.4,1.4,1.40322580645161,1.4,1.40322580645161,1.4,1.4,1.40322580645161,1.40645161290323,1.40322580645161,1.40322580645161,1.40645161290323,1.4,1.4,1.4,1.38709677419355,1.39032258064516,1.38387096774194,1.38709677419355,1.37741935483871,1.38387096774194,1.3741935483871,1.36774193548387,1.3741935483871,1.37096774193548,1.36774193548387,1.37096774193548,1.35806451612903,1.35806451612903,1.35161290322581,1.36451612903226,1.35161290322581,1.35161290322581,1.34838709677419,1.34516129032258,1.35161290322581,1.35806451612903,1.34838709677419,1.34838709677419,1.34838709677419,1.34516129032258,1.34193548387097,1.35806451612903,1.35806451612903,1.36774193548387,1.3741935483871,1.38709677419355,1.40967741935484,1.40645161290323,1.41290322580645,1.4,1.39354838709677,1.38387096774194,1.35806451612903,1.34516129032258,1.32903225806452,1.32903225806452,1.3258064516129,1.33225806451613,1.3258064516129,1.32903225806452,1.33548387096774,1.32903225806452,1.33870967741935,1.33548387096774,1.34516129032258,1.33225806451613,1.33225806451613,1.40322580645161,1.6,1.9,2.24516129032258,2.1258064516129,1.55161290322581,1.39354838709677,1.3258064516129,1.34516129032258,1.35483870967742,1.34193548387097,1.34516129032258,1.34516129032258,1.35161290322581,1.34516129032258,1.34516129032258,1.34193548387097,1.35806451612903,1.36129032258065,1.37096774193548,1.36774193548387,1.37096774193548,1.37741935483871,1.38064516129032,1.37741935483871,1.3741935483871,1.36774193548387,1.3741935483871,1.38064516129032,1.37741935483871,1.38064516129032,1.39032258064516,1.4,1.4,1.41290322580645,1.41612903225806,1.43225806451613,1.44516129032258,1.46451612903226,1.46129032258065,1.4741935483871,1.4741935483871,1.47096774193548,1.44193548387097,1.43870967741935,1.43225806451613,1.40322580645161,1.4,1.4,1.39677419354839,1.4,1.38709677419355,1.38709677419355,1.37741935483871,1.38387096774194,1.39032258064516,1.39032258064516,1.39354838709677,1.39032258064516,1.40322580645161,1.40322580645161,1.40645161290323,1.40967741935484,1.4,1.40645161290323,1.40322580645161,1.40645161290323,1.4,1.4,1.40645161290323,1.40967741935484,1.40322580645161,1.39677419354839,1.38387096774194,1.39032258064516,1.38709677419355,1.38709677419355,1.38387096774194,1.38387096774194,1.38387096774194,1.39032258064516,1.38387096774194,1.38064516129032,1.38387096774194,1.3741935483871,1.36774193548387,1.36451612903226,1.37096774193548,1.36451612903226,1.37096774193548,1.36774193548387,1.36129032258065,1.36774193548387,1.37741935483871,1.37096774193548,1.36774193548387,1.36451612903226,1.35806451612903,1.35806451612903,1.36129032258065,1.34838709677419,1.37096774193548,1.36129032258065,1.37096774193548,1.37096774193548,1.36774193548387,1.39032258064516,1.41290322580645,1.41612903225806,1.41290322580645,1.41935483870968,1.40967741935484,1.40645161290323,1.38064516129032,1.36774193548387,1.35806451612903,1.35806451612903,1.35483870967742,1.36129032258065,1.35161290322581,1.36129032258065,1.34838709677419,1.35161290322581,1.33870967741935,1.34838709677419,1.34838709677419,1.33870967741935,1.33870967741935,1.39032258064516,1.54838709677419,1.82258064516129,2.13870967741935,2.10322580645161,1.57096774193548,1.4,1.31612903225806,1.33870967741935,1.36451612903226,1.36129032258065,1.36129032258065,1.36129032258065,1.36129032258065,1.37096774193548,1.36774193548387,1.37741935483871,1.3741935483871,1.37096774193548,1.3741935483871,1.38064516129032,1.3741935483871,1.37741935483871,1.38064516129032,1.37741935483871,1.37741935483871,1.38064516129032,1.37741935483871,1.37096774193548,1.36774193548387,1.36774193548387,1.3741935483871,1.3741935483871,1.38387096774194,1.39354838709677,1.40322580645161,1.41290322580645,1.4258064516129,1.43225806451613,1.44838709677419,1.45806451612903,1.45483870967742,1.45483870967742,1.45483870967742,1.44193548387097,1.4258064516129,1.40645161290323,1.4,1.39354838709677,1.38709677419355,1.38064516129032,1.38387096774194,1.38064516129032,1.38387096774194,1.38387096774194,1.38064516129032,1.38709677419355,1.39032258064516,1.38387096774194,1.39677419354839,1.39354838709677,1.38709677419355,1.39032258064516,1.37741935483871,1.37741935483871,1.38064516129032,1.38387096774194,1.37741935483871,1.38064516129032,1.38064516129032,1.38064516129032,1.37741935483871,1.38064516129032,1.38064516129032,1.38709677419355,1.39032258064516,1.38387096774194,1.38387096774194,1.38387096774194,1.38064516129032,1.38387096774194,1.38387096774194,1.37741935483871,1.37741935483871,1.38387096774194,1.38709677419355,1.39032258064516,1.38709677419355,1.38709677419355,1.40322580645161,1.40322580645161,1.40322580645161,1.4,1.40322580645161,1.40967741935484,1.4,1.40322580645161,1.39354838709677,1.39677419354839,1.39677419354839,1.39677419354839,1.39677419354839,1.40322580645161,1.40645161290323,1.40645161290323,1.41290322580645,1.41612903225806,1.41935483870968,1.43225806451613,1.43548387096774,1.45161290322581,1.46451612903226,1.45806451612903,1.46774193548387,1.46451612903226,1.46129032258065,1.43225806451613,1.4258064516129,1.40322580645161,1.4,1.39354838709677,1.38387096774194,1.3741935483871,1.3741935483871,1.3741935483871,1.36774193548387,1.3741935483871,1.38064516129032,1.3741935483871,1.36451612903226
1.37096774193548,1.3741935483871,1.36451612903226,1.35806451612903,1.36451612903226,1.36451612903226,1.36451612903226,1.36129032258065,1.36774193548387,1.36774193548387,1.3741935483871,1.3741935483871,1.37741935483871,1.37741935483871,1.37096774193548,1.3741935483871,1.38064516129032,1.38387096774194,1.4,1.41290322580645,1.42903225806452,1.42903225806452,1.44516129032258,1.45483870967742,1.46451612903226,1.47096774193548,1.45483870967742,1.44516129032258,1.42903225806452,1.41290322580645,1.40322580645161,1.39677419354839,1.38709677419355,1.38709677419355,1.39354838709677,1.38387096774194,1.38064516129032,1.38387096774194,1.39354838709677,1.39032258064516,1.39032258064516,1.39032258064516,1.39677419354839,1.39677419354839,1.38709677419355,1.39354838709677,1.4,1.39354838709677,1.4,1.39677419354839,1.39354838709677,1.39677419354839,1.39677419354839,1.40322580645161,1.40645161290323,1.39677419354839,1.39032258064516,1.39032258064516,1.38387096774194,1.37741935483871,1.37741935483871,1.37741935483871,1.37741935483871,1.38064516129032,1.3741935483871,1.38064516129032,1.38064516129032,1.38709677419355,1.38709677419355,1.37741935483871,1.3741935483871,1.37096774193548,1.3741935483871,1.36451612903226,1.37096774193548,1.3741935483871,1.37096774193548,1.36451612903226,1.3741935483871,1.37741935483871,1.37096774193548,1.37741935483871,1.37096774193548,1.36451612903226,1.36129032258065,1.35806451612903,1.35806451612903,1.35806451612903,1.36451612903226,1.37096774193548,1.36451612903226,1.39032258064516,1.40967741935484,1.41612903225806,1.41290322580645,1.41935483870968,1.42903225806452,1.42903225806452,1.40645161290323,1.38064516129032,1.36451612903226,1.35806451612903,1.35161290322581,1.34838709677419,1.35161290322581,1.34516129032258,1.34516129032258,1.33870967741935,1.34838709677419,1.34838709677419,1.35483870967742,1.35483870967742,1.31935483870968,1.35161290322581,1.46774193548387,1.75483870967742,2.10967741935484,2.30322580645161,1.86451612903226,1.52903225806452,1.37096774193548,1.33548387096774,1.37096774193548,1.35483870967742,1.35806451612903,1.34838709677419,1.34516129032258,1.35483870967742,1.34838709677419,1.35806451612903,1.36129032258065,1.36129032258065,1.36774193548387,1.36451612903226,1.36451612903226,1.36774193548387,1.36129032258065,1.36451612903226,1.3741935483871,1.37096774193548,1.3741935483871,1.37741935483871,1.37096774193548,1.3741935483871,1.38064516129032,1.37741935483871,1.38387096774194,1.39032258064516,1.40322580645161,1.41612903225806,1.42903225806452,1.43870967741935,1.45483870967742,1.46451612903226,1.47741935483871,1.47096774193548,1.47096774193548,1.45161290322581,1.44516129032258,1.43548387096774,1.43225806451613,1.41935483870968,1.40967741935484,1.40322580645161,1.40322580645161,1.4,1.4,1.40967741935484,1.4,1.39354838709677,1.39354838709677,1.4,1.39032258064516,1.39354838709677,1.39677419354839,1.39677419354839,1.4,1.39677419354839,1.4,1.39677419354839,1.39677419354839,1.4,1.40322580645161,1.4,1.4,1.40322580645161,1.39677419354839,1.39677419354839,1.39677419354839,1.38387096774194,1.38709677419355,1.38064516129032,1.38387096774194,1.3741935483871,1.38064516129032,1.37096774193548,1.36451612903226,1.37096774193548,1.36774193548387,1.36451612903226,1.36774193548387,1.35483870967742,1.35483870967742,1.34838709677419,1.36129032258065,1.34838709677419,1.34838709677419,1.34516129032258,1.34193548387097,1.34838709677419,1.35483870967742,1.34516129032258,1.34516129032258,1.34516129032258,1.34193548387097,1.33870967741935,1.35483870967742,1.35483870967742,1.36451612903226,1.37096774193548,1.38387096774194,1.40645161290323,1.40322580645161,1.40967741935484,1.39677419354839,1.39032258064516,1.38387096774194,1.35483870967742,1.34193548387097,1.3258064516129,1.3258064516129,1.3258064516129,1.32903225806452,1.32258064516129,1.3258064516129,1.33225806451613,1.32903225806452,1.33548387096774,1.33548387096774,1.34193548387097,1.32903225806452,1.32903225806452,1.4,1.6,1.89677419354839,2.24516129032258,2.12258064516129,1.55161290322581,1.39032258064516,1.3258064516129,1.34516129032258,1.35483870967742,1.34193548387097,1.34193548387097,1.34516129032258,1.35161290322581,1.34193548387097,1.34516129032258,1.34193548387097,1.35806451612903,1.36129032258065,1.37096774193548,1.36774193548387,1.37096774193548,1.37741935483871,1.38064516129032,1.37741935483871,1.37741935483871,1.36774193548387,1.3741935483871,1.38064516129032,1.37741935483871,1.38387096774194,1.39032258064516,1.4,1.4,1.41290322580645,1.41612903225806,1.43548387096774,1.44838709677419,1.46451612903226,1.46129032258065,1.47741935483871,1.47741935483871,1.47096774193548,1.44516129032258,1.43870967741935,1.43225806451613,1.40645161290323,1.40322580645161,1.4,1.4,1.4,1.39032258064516,1.39032258064516,1.38064516129032,1.38709677419355,1.39354838709677,1.39354838709677,1.39677419354839,1.39354838709677,1.40645161290323,1.40645161290323,1.40967741935484,1.41290322580645,1.40645161290323,1.40967741935484,1.40645161290323,1.41290322580645,1.40322580645161,1.40322580645161,1.40967741935484,1.41290322580645,1.40645161290323,1.4,1.39032258064516,1.39354838709677,1.39354838709677,1.39354838709677,1.39032258064516,1.39032258064516,1.39032258064516,1.39677419354839,1.39032258064516,1.38709677419355,1.38709677419355,1.37741935483871,1.3741935483871,1.36774193548387,1.3741935483871,1.37096774193548,1.3741935483871,1.3741935483871,1.36774193548387,1.3741935483871,1.38387096774194,1.3741935483871,1.3741935483871,1.37096774193548,1.36451612903226,1.36451612903226,1.36774193548387,1.35483870967742,1.3741935483871,1.36774193548387,1.37741935483871,1.37741935483871,1.3741935483871,1.39677419354839,1.41935483870968,1.42258064516129,1.41612903225806,1.4258064516129,1.41612903225806,1.40967741935484,1.38709677419355,1.3741935483871,1.36451612903226,1.36451612903226,1.36129032258065,1.36451612903226,1.35806451612903,1.36451612903226,1.35161290322581,1.35483870967742,1.34516129032258,1.35483870967742,1.35161290322581,1.34193548387097,1.34193548387097,1.39354838709677,1.55161290322581,1.8258064516129,2.14193548387097,2.10645161290323,1.5741935483871,1.40322580645161,1.31612903225806,1.34193548387097,1.36774193548387,1.36129032258065,1.36451612903226,1.36129032258065,1.36129032258065,1.3741935483871,1.36774193548387,1.38064516129032,1.3741935483871,1.37096774193548,1.3741935483871,1.38064516129032,1.3741935483871,1.37741935483871,1.38064516129032,1.3741935483871,1.3741935483871,1.37741935483871,1.3741935483871,1.37096774193548,1.36451612903226,1.36451612903226,1.37096774193548,1.37096774193548,1.38064516129032,1.38709677419355,1.39677419354839,1.40967741935484,1.41935483870968,1.4258064516129,1.44193548387097,1.45161290322581,1.44516129032258,1.44516129032258,1.44516129032258,1.43225806451613,1.41612903225806,1.39677419354839,1.39032258064516,1.38387096774194,1.37741935483871,1.37096774193548,1.3741935483871,1.37096774193548,1.37096774193548,1.3741935483871,1.36774193548387,1.3741935483871,1.37741935483871,1.37096774193548,1.38064516129032,1.37741935483871,1.37096774193548,1.3741935483871,1.36129032258065,1.36129032258065,1.36451612903226,1.36774193548387,1.36129032258065,1.36451612903226,1.36129032258065,1.36451612903226,1.36129032258065,1.36129032258065,1.36451612903226,1.36774193548387,1.3741935483871,1.36774193548387,1.36451612903226,1.36774193548387,1.36129032258065,1.36451612903226,1.36451612903226,1.35806451612903,1.35806451612903,1.36451612903226,1.36774193548387,1.37096774193548,1.36774193548387,1.36774193548387,1.38064516129032,1.38387096774194,1.38387096774194,1.38064516129032,1.38387096774194,1.39032258064516,1.38064516129032,1.38064516129032,1.3741935483871,1.37741935483871,1.37741935483871,1.38064516129032,1.38064516129032,1.38387096774194,1.38709677419355,1.39032258064516,1.39677419354839,1.4,1.40322580645161,1.41612903225806,1.42258064516129,1.43548387096774,1.44838709677419,1.44516129032258,1.45483870967742,1.45161290322581,1.45161290322581,1.42258064516129,1.41612903225806,1.39354838709677,1.39032258064516,1.38709677419355,1.37741935483871,1.37096774193548,1.37096774193548,1.3741935483871,1.36774193548387,1.3741935483871,1.38387096774194,1.37741935483871,1.37096774193548,1.35161290322581,1.38709677419355,1.53870967741935,1.8258064516129,2.18709677419355,2.31290322580645,1.77741935483871,1.49354838709677,1.36129032258065,1.35161290322581,1.37741935483871,1.36451612903226,1.36451612903226,1.35806451612903,1.35483870967742,1.36129032258065,1.36774193548387,1.36129032258065,1.35806451612903,1.36129032258065,1.36129032258065,1.35806451612903,1.36129032258065,1.36129032258065,1.36129032258065,1.35483870967742,1.36129032258065,1.35806451612903,1.35806451612903,1.36451612903226,1.36451612903226,1.36451612903226,1.36774193548387,1.36451612903226,1.36774193548387,1.37096774193548,1.37096774193548,1.38387096774194,1.39677419354839,1.41612903225806,1.42903225806452,1.44516129032258,1.45161290322581,1.44193548387097,1.43870967741935,1.4258064516129,1.42258064516129,1.40645161290323,1.4,1.39354838709677,1.38709677419355,1.37741935483871,1.37741935483871,1.38064516129032,1.37741935483871,1.3741935483871,1.36774193548387,1.37096774193548,1.36451612903226,1.36774193548387,1.36774193548387,1.36451612903226,1.36774193548387,1.36774193548387,1.37096774193548,1.36774193548387,1.36129032258065,1.36129032258065,1.35806451612903,1.35806451612903,1.36129032258065,1.34838709677419,1.34838709677419,1.35161290322581,1.34516129032258,1.34838709677419,1.36129032258065,1.35161290322581,1.35161290322581,1.35161290322581,1.35806451612903,1.35483870967742,1.36451612903226,1.36774193548387,1.36774193548387,1.36129032258065,1.38064516129032,1.38064516129032,1.38064516129032,1.38064516129032,1.37741935483871,1.38064516129032,1.38064516129032,1.39032258064516,1.39354838709677,1.38387096774194,1.39032258064516,1.39677419354839,1.40322580645161,1.40322580645161,1.40645161290323,1.40967741935484,1.40322580645161,1.4,1.4,1.40645161290323,1.41612903225806,1.40322580645161,1.40322580645161,1.41935483870968,1.43870967741935,1.44193548387097,1.42903225806452,1.44838709677419,1.44193548387097,1.45483870967742,1.40967741935484,1.39032258064516,1.37741935483871,1.37741935483871,1.3741935483871,1.36129032258065,1.35806451612903,1.35806451612903,1.34516129032258,1.34516129032258,1.35483870967742,1.35483870967742,1.35483870967742,1.35161290322581,1.33870967741935,1.38387096774194,1.54838709677419,1.85161290322581,2.22258064516129,2.24516129032258,1.65483870967742,1.43548387096774,1.32903225806452,1.34193548387097,1.36129032258065,1.34838709677419,1.34193548387097,1.33548387096774,1.33548387096774,1.33225806451613,1.33870967741935,1.33548387096774,1.33548387096774,1.34193548387097,1.33225806451613,1.33548387096774,1.32258064516129,1.32903225806452,1.33225806451613,1.3258064516129,1.33870967741935,1.33870967741935,1.34193548387097,1.34516129032258,1.35483870967742,1.35806451612903,1.35806451612903,1.35161290322581,1.37096774193548,1.38064516129032,1.38387096774194,1.39354838709677,1.40645161290323,1.42903225806452,1.43548387096774,1.44516129032258,1.45806451612903,1.45483870967742,1.44516129032258,1.42903225806452,1.41612903225806,1.40322580645161,1.39354838709677,1.38387096774194,1.3741935483871,1.38709677419355,1.37741935483871,1.38064516129032,1.38387096774194,1.3741935483871,1.3741935483871,1.3741935483871,1.3741935483871,1.39032258064516,1.39032258064516,1.39354838709677,1.40322580645161,1.39677419354839,1.40967741935484,1.41290322580645,1.40967741935484,1.40967741935484,1.41935483870968,1.4258064516129,1.40645161290323,1.41290322580645,1.41935483870968,1.40322580645161,1.40645161290323,1.40322580645161,1.40645161290323,1.40967741935484,1.40322580645161,1.41935483870968,1.40967741935484,1.40967741935484,1.40967741935484,1.39677419354839,1.39677419354839,1.39677419354839,1.39354838709677,1.39677419354839,1.39354838709677,1.39032258064516,1.39677419354839,1.39354838709677,1.40322580645161,1.4,1.39677419354839,1.38387096774194,1.3741935483871,1.37741935483871,1.36451612903226,1.3741935483871,1.36774193548387,1.36451612903226,1.3741935483871,1.38709677419355,1.3741935483871,1.3741935483871,1.38064516129032,1.40645161290323,1.42258064516129,1.42258064516129,1.41612903225806,1.41935483870968,1.40967741935484,1.39677419354839,1.38387096774194,1.36774193548387,1.35806451612903,1.35483870967742,1.35161290322581,1.34838709677419,1.35483870967742,1.34516129032258,1.34193548387097,1.35161290322581,1.34516129032258,1.35483870967742,1.35483870967742,1.34193548387097,1.35161290322581,1.42258064516129,1.6258064516129,1.93548387096774,2.20967741935484,1.98387096774194,1.5,1.35161290322581,1.31612903225806,1.35161290322581,1.36774193548387,1.35483870967742,1.34838709677419,1.35161290322581,1.35483870967742,1.35483870967742,1.34838709677419,1.35483870967742,1.35483870967742,1.35806451612903,1.35483870967742,1.35161290322581,1.35483870967742,1.36129032258065,1.36129032258065,1.37096774193548,1.36129032258065,1.36451612903226,1.36774193548387,1.3741935483871,1.37741935483871,1.3741935483871,1.38064516129032,1.38709677419355,1.38709677419355,1.4,1.41290322580645,1.4258064516129,1.44193548387097,1.45161290322581,1.46129032258065,1.46774193548387,1.46129032258065,1.45161290322581,1.44193548387097,1.42903225806452,1.41612903225806,1.40322580645161,1.39677419354839,1.39354838709677,1.39032258064516,1.38709677419355,1.37741935483871,1.38064516129032,1.37096774193548,1.37096774193548,1.3741935483871,1.3741935483871,1.37741935483871,1.3741935483871,1.3741935483871,1.38064516129032,1.38064516129032,1.37741935483871,1.38064516129032,1.38064516129032,1.37096774193548,1.36774193548387,1.36129032258065,1.36129032258065,1.36451612903226,1.36774193548387,1.36774193548387,1.36451612903226,1.37096774193548,1.37096774193548,1.36774193548387,1.36774193548387,1.36451612903226,1.3741935483871,1.38064516129032,1.38064516129032,1.3741935483871,1.37741935483871,1.38387096774194,1.38064516129032,1.37741935483871,1.37741935483871,1.38064516129032,1.37741935483871,1.37741935483871,1.38064516129032,1.38387096774194,1.38387096774194,1.38387096774194,1.38064516129032,1.3741935483871,1.37741935483871,1.37741935483871,1.3741935483871,1.37096774193548,1.37096774193548,1.3741935483871,1.37741935483871,1.38387096774194,1.36774193548387,1.39032258064516,1.40645161290323,1.42258064516129,1.42903225806452,1.4258064516129,1.43225806451613,1.41935483870968,1.41935483870968,1.4,1.38064516129032,1.36451612903226,1.36451612903226,1.36774193548387,1.35806451612903,1.35161290322581,1.34838709677419,1.35483870967742,1.35161290322581,1.35483870967742,1.35483870967742,1.34838709677419,1.33548387096774,1.33548387096774,1.40645161290323,1.60967741935484,1.90967741935484,2.23225806451613,2.13870967741935,1.59354838709677,1.41612903225806,1.33870967741935,1.35161290322581,1.3741935483871,1.36129032258065,1.35483870967742,1.35806451612903,1.35806451612903,1.35806451612903,1.36451612903226,1.36774193548387,1.36129032258065,1.36451612903226,1.36129032258065,1.35806451612903,1.35483870967742,1.35483870967742,1.35161290322581,1.34838709677419,1.35161290322581,1.35161290322581,1.34838709677419,1.36129032258065,1.35806451612903,1.36129032258065,1.36129032258065,1.37096774193548,1.37096774193548,1.38387096774194,1.39677419354839,1.40645161290323,1.41935483870968,1.43225806451613,1.43870967741935,1.45161290322581,1.44838709677419,1.44838709677419,1.43225806451613,1.42258064516129,1.40322580645161,1.4,1.40645161290323,1.40645161290323,1.40645161290323,1.41612903225806,1.40645161290323,1.40645161290323,1.40322580645161,1.40645161290323,1.4,1.39032258064516,1.39032258064516,1.38387096774194,1.38387096774194,1.38709677419355,1.38064516129032,1.38387096774194,1.38709677419355,1.38709677419355,1.39354838709677,1.39032258064516,1.39677419354839,1.4,1.39677419354839,1.39354838709677,1.39354838709677,1.39354838709677,1.39677419354839,1.39354838709677,1.39354838709677,1.39354838709677,1.39032258064516,1.39032258064516,1.38709677419355,1.38387096774194,1.38709677419355,1.37741935483871,1.38709677419355,1.37741935483871,1.38064516129032,1.37096774193548,1.37741935483871,1.38064516129032,1.38387096774194,1.38709677419355,1.38387096774194,1.39032258064516,1.39032258064516,1.39032258064516,1.39354838709677,1.38387096774194,1.38709677419355,1.38064516129032,1.37741935483871,1.3741935483871,1.38387096774194,1.37096774193548,1.37741935483871,1.38709677419355,1.38064516129032,1.39032258064516,1.41612903225806,1.4258064516129,1.43548387096774,1.42903225806452,1.43225806451613,1.43225806451613,1.4258064516129,1.40645161290323,1.38064516129032,1.36451612903226,1.35806451612903,1.35161290322581,1.34193548387097,1.33548387096774,1.34838709677419,1.34193548387097,1.33870967741935,1.33870967741935,1.33548387096774,1.33870967741935,1.32903225806452,1.30967741935484,1.3741935483871,1.55806451612903,1.86774193548387,2.2258064516129,2.21612903225806,1.62258064516129,1.42258064516129,1.31612903225806,1.33870967741935,1.36129032258065,1.33548387096774,1.33225806451613,1.34193548387097,1.34516129032258,1.34516129032258,1.34838709677419,1.34193548387097,1.34838709677419,1.35161290322581,1.34516129032258,1.35161290322581,1.35161290322581,1.34838709677419,1.35483870967742,1.35483870967742,1.35806451612903,1.34516129032258,1.35161290322581,1.35806451612903,1.36774193548387,1.36774193548387,1.36774193548387,1.37096774193548,1.37741935483871,1.39677419354839,1.40322580645161,1.41612903225806,1.43225806451613,1.44516129032258,1.45483870967742,1.46451612903226,1.46774193548387,1.45806451612903,1.44516129032258,1.43548387096774,1.41935483870968,1.40645161290323,1.40322580645161,1.39354838709677,1.38387096774194,1.38387096774194,1.38064516129032,1.3741935483871,1.36774193548387,1.3741935483871,1.37741935483871,1.37741935483871,1.37741935483871,1.37096774193548,1.38064516129032,1.37741935483871,1.37741935483871,1.38064516129032,1.3741935483871,1.3741935483871,1.36774193548387,1.3741935483871,1.3741935483871,1.36774193548387,1.38387096774194,1.39032258064516,1.39677419354839,1.37741935483871,1.39354838709677,1.38709677419355,1.38387096774194,1.38709677419355,1.39677419354839,1.39677419354839,1.39354838709677,1.38709677419355,1.38387096774194,1.38709677419355,1.38709677419355,1.38387096774194,1.38709677419355,1.38709677419355,1.37741935483871,1.38064516129032,1.37741935483871,1.38064516129032,1.38387096774194,1.38387096774194,1.36451612903226,1.36774193548387,1.36451612903226,1.36774193548387,1.3741935483871,1.37096774193548,1.37741935483871,1.37741935483871,1.3741935483871,1.38064516129032,1.39677419354839,1.38709677419355,1.39354838709677,1.41612903225806,1.43548387096774,1.43548387096774,1.43870967741935,1.43548387096774,1.43870967741935,1.43225806451613,1.40322580645161,1.38064516129032,1.3741935483871,1.37096774193548,1.35483870967742,1.34838709677419,1.34516129032258,1.34838709677419,1.34516129032258,1.34516129032258,1.35806451612903,1.35483870967742,1.36451612903226,1.35161290322581,1.34838709677419,1.40967741935484,1.59677419354839,1.89354838709677,2.2258064516129,2.12258064516129,1.54516129032258,1.38709677419355,1.32903225806452,1.34516129032258,1.36129032258065,1.34193548387097,1.34193548387097,1.33870967741935,1.34193548387097,1.34516129032258,1.34838709677419,1.33870967741935,1.34193548387097,1.33870967741935,1.34516129032258,1.35161290322581,1.33870967741935,1.33870967741935,1.34193548387097,1.33870967741935,1.34838709677419,1.34193548387097,1.34516129032258,1.35161290322581,1.35161290322581,1.35806451612903,1.36774193548387,1.37741935483871,1.38387096774194,1.39354838709677,1.40322580645161,1.41935483870968,1.43548387096774,1.44838709677419,1.46129032258065,1.46451612903226,1.46451612903226,1.45806451612903,1.44838709677419,1.42903225806452,1.4258064516129,1.41612903225806,1.41935483870968,1.40645161290323,1.40322580645161,1.39677419354839,1.39354838709677,1.38709677419355,1.38387096774194,1.38387096774194,1.38387096774194,1.38709677419355,1.38709677419355,1.38709677419355,1.38709677419355,1.38709677419355,1.38387096774194,1.39032258064516,1.39677419354839,1.4,1.4,1.40322580645161,1.40322580645161,1.39354838709677,1.38709677419355,1.38709677419355,1.38709677419355,1.38387096774194,1.39354838709677,1.39354838709677,1.38709677419355,1.39354838709677,1.39354838709677,1.39032258064516,1.39032258064516,1.39354838709677,1.39354838709677,1.39677419354839,1.4,1.39032258064516,1.38387096774194,1.39032258064516,1.39032258064516,1.39032258064516,1.39354838709677,1.39032258064516,1.39032258064516,1.38387096774194,1.39032258064516,1.40322580645161,1.4,1.4,1.4,1.4,1.4,1.41290322580645,1.40645161290323,1.41612903225806,1.43225806451613,1.45161290322581,1.45483870967742
1.35483870967742,1.3741935483871,1.3741935483871,1.3741935483871,1.3741935483871,1.40322580645161,1.43225806451613,1.4258064516129,1.43548387096774,1.43548387096774,1.44193548387097,1.43548387096774,1.4,1.39354838709677,1.38064516129032,1.37741935483871,1.38064516129032,1.36774193548387,1.37096774193548,1.36451612903226,1.36451612903226,1.36451612903226,1.36129032258065,1.3741935483871,1.37741935483871,1.37096774193548,1.36451612903226,1.42258064516129,1.58709677419355,1.88709677419355,2.24193548387097,2.24193548387097,1.64516129032258,1.43548387096774,1.33870967741935,1.35483870967742,1.37741935483871,1.35806451612903,1.33870967741935,1.34516129032258,1.35806451612903,1.34193548387097,1.34193548387097,1.34838709677419,1.34838709677419,1.34838709677419,1.34838709677419,1.34193548387097,1.33870967741935,1.34193548387097,1.35161290322581,1.34516129032258,1.34838709677419,1.35161290322581,1.34838709677419,1.35483870967742,1.35161290322581,1.36129032258065,1.35806451612903,1.36451612903226,1.36774193548387,1.38064516129032,1.39032258064516,1.40322580645161,1.41935483870968,1.4258064516129,1.43870967741935,1.45161290322581,1.46129032258065,1.44838709677419,1.43870967741935,1.41935483870968,1.41612903225806,1.39677419354839,1.38387096774194,1.37741935483871,1.37741935483871,1.36774193548387,1.37741935483871,1.35806451612903,1.37096774193548,1.36774193548387,1.3741935483871,1.37096774193548,1.38064516129032,1.37096774193548,1.38709677419355,1.38387096774194,1.37096774193548,1.38387096774194,1.38064516129032,1.38709677419355,1.38709677419355,1.38709677419355,1.39032258064516,1.38387096774194,1.38709677419355,1.38064516129032,1.38387096774194,1.37741935483871,1.38064516129032,1.39677419354839,1.38064516129032,1.38709677419355,1.38064516129032,1.37096774193548,1.38064516129032,1.38064516129032,1.3741935483871,1.3741935483871,1.38064516129032,1.38709677419355,1.38387096774194,1.38709677419355,1.38064516129032,1.38709677419355,1.38064516129032,1.38387096774194,1.38709677419355,1.39032258064516,1.37741935483871,1.38064516129032,1.38064516129032,1.38709677419355,1.38709677419355,1.39032258064516,1.4,1.3741935483871,1.38387096774194,1.37096774193548,1.37741935483871,1.37741935483871,1.38387096774194,1.39032258064516,1.39354838709677,1.40322580645161,1.42258064516129,1.42903225806452,1.4258064516129,1.42903225806452,1.43225806451613,1.43225806451613,1.40967741935484,1.38709677419355,1.38387096774194,1.37096774193548,1.36451612903226,1.35806451612903,1.35483870967742,1.35806451612903,1.35161290322581,1.34838709677419,1.34193548387097,1.34516129032258,1.34838709677419,1.34516129032258,1.33225806451613,1.36129032258065,1.48387096774194,1.73870967741935,2.07741935483871,2.21612903225806,1.74516129032258,1.44193548387097,1.31935483870968,1.32258064516129,1.35806451612903,1.35161290322581,1.34193548387097,1.34193548387097,1.34838709677419,1.34838709677419,1.35161290322581,1.34516129032258,1.34838709677419,1.34516129032258,1.34838709677419,1.35483870967742,1.35806451612903,1.36451612903226,1.36451612903226,1.35806451612903,1.36129032258065,1.35806451612903,1.36774193548387,1.36451612903226,1.3741935483871,1.37741935483871,1.38387096774194,1.38709677419355,1.38064516129032,1.38709677419355,1.4,1.41290322580645,1.4258064516129,1.44516129032258,1.45161290322581,1.46774193548387,1.46774193548387,1.45483870967742,1.44838709677419,1.42903225806452,1.41935483870968,1.41290322580645,1.39677419354839,1.39354838709677,1.39354838709677,1.39354838709677,1.38064516129032,1.3741935483871,1.38064516129032,1.38064516129032,1.37741935483871,1.37741935483871,1.38064516129032,1.38387096774194,1.38064516129032,1.38387096774194,1.37741935483871,1.37741935483871,1.38387096774194,1.39677419354839,1.38387096774194,1.38064516129032,1.38064516129032,1.38064516129032,1.38064516129032,1.38064516129032,1.38387096774194,1.38387096774194,1.38709677419355,1.38709677419355,1.38709677419355,1.38387096774194,1.39032258064516,1.38709677419355,1.39032258064516,1.39032258064516,1.38709677419355,1.39677419354839,1.40322580645161,1.40322580645161,1.39677419354839,1.39677419354839,1.39354838709677,1.40645161290323,1.39354838709677,1.39354838709677,1.39354838709677,1.39677419354839,1.38709677419355,1.39354838709677,1.39032258064516,1.39354838709677,1.39032258064516,1.38709677419355,1.38064516129032,1.38387096774194,1.38064516129032,1.39032258064516,1.37741935483871,1.37096774193548,1.38064516129032,1.38064516129032,1.38387096774194,1.37741935483871,1.39032258064516,1.40967741935484,1.4258064516129,1.42258064516129,1.42258064516129,1.42903225806452,1.41935483870968,1.41290322580645,1.38709677419355,1.36774193548387,1.35483870967742,1.35161290322581,1.34838709677419,1.34193548387097,1.34193548387097,1.33870967741935,1.34516129032258,1.34838709677419,1.34516129032258,1.34516129032258,1.34193548387097,1.32258064516129,1.32258064516129,1.39677419354839,1.60645161290323,1.91612903225806,2.24516129032258,2.14838709677419,1.58387096774194,1.41290322580645,1.33225806451613,1.34516129032258,1.36129032258065,1.35161290322581,1.35161290322581,1.35806451612903,1.36129032258065,1.36129032258065,1.36451612903226,1.36451612903226,1.36129032258065,1.36129032258065,1.37096774193548,1.36774193548387,1.36451612903226,1.36774193548387,1.35806451612903,1.36129032258065,1.36774193548387,1.37096774193548,1.37096774193548,1.38064516129032,1.37096774193548,1.3741935483871,1.36774193548387,1.37096774193548,1.37741935483871,1.38387096774194,1.4,1.40967741935484,1.41935483870968,1.42903225806452,1.44516129032258,1.45806451612903,1.46129032258065,1.45806451612903,1.45161290322581,1.43225806451613,1.41612903225806,1.40645161290323,1.39354838709677,1.39032258064516,1.38387096774194,1.37741935483871,1.38387096774194,1.37096774193548,1.37741935483871,1.37741935483871,1.36774193548387,1.37741935483871,1.38064516129032,1.3741935483871,1.37096774193548,1.3741935483871,1.37741935483871,1.37741935483871,1.37096774193548,1.37096774193548,1.36774193548387,1.37096774193548,1.37741935483871,1.37741935483871,1.38387096774194,1.36774193548387,1.37741935483871,1.37741935483871,1.38064516129032,1.3741935483871,1.38387096774194,1.39032258064516,1.38064516129032,1.39354838709677,1.39677419354839,1.38387096774194,1.38709677419355,1.39032258064516,1.38064516129032,1.38387096774194,1.38064516129032,1.38709677419355,1.38709677419355,1.39032258064516,1.39032258064516,1.39032258064516,1.38064516129032,1.3741935483871,1.36774193548387,1.35806451612903,1.36451612903226,1.36129032258065,1.35161290322581,1.36451612903226,1.36129032258065,1.37096774193548,1.37096774193548,1.36451612903226,1.37741935483871,1.37096774193548,1.3741935483871,1.37096774193548,1.37096774193548,1.38064516129032,1.39354838709677,1.41935483870968,1.41935483870968,1.41612903225806,1.41935483870968,1.41935483870968,1.42903225806452,1.4,1.39032258064516,1.37096774193548,1.36451612903226,1.36129032258065,1.35483870967742,1.35806451612903,1.35483870967742,1.34516129032258,1.34838709677419,1.36129032258065,1.35161290322581,1.36451612903226,1.34516129032258,1.33870967741935,1.39677419354839,1.57096774193548,1.87741935483871,2.24516129032258,2.24516129032258,1.65483870967742,1.42903225806452,1.33870967741935,1.35161290322581,1.3741935483871,1.35806451612903,1.34838709677419,1.35483870967742,1.34838709677419,1.35483870967742,1.35161290322581,1.35483870967742,1.36129032258065,1.36451612903226,1.37096774193548,1.3741935483871,1.38064516129032,1.38064516129032,1.36774193548387,1.37096774193548,1.38064516129032,1.37741935483871,1.37096774193548,1.37741935483871,1.37741935483871,1.38387096774194,1.38387096774194,1.38064516129032,1.39677419354839,1.4,1.40645161290323,1.4258064516129,1.43548387096774,1.43870967741935,1.46129032258065,1.46774193548387,1.46774193548387,1.46774193548387,1.44516129032258,1.43225806451613,1.41612903225806,1.40322580645161,1.39677419354839,1.39032258064516,1.38387096774194,1.37741935483871,1.39032258064516,1.38709677419355,1.37741935483871,1.38709677419355,1.38709677419355,1.38387096774194,1.38387096774194,1.38709677419355,1.38064516129032,1.38709677419355,1.38387096774194,1.39354838709677,1.39032258064516,1.38709677419355,1.38709677419355,1.39032258064516,1.39354838709677,1.39354838709677,1.39354838709677,1.39032258064516,1.38387096774194,1.37741935483871,1.38387096774194,1.36774193548387,1.38064516129032,1.36451612903226,1.37096774193548,1.36129032258065,1.35806451612903,1.35483870967742,1.35483870967742,1.34838709677419,1.34838709677419,1.34838709677419,1.35161290322581,1.34838709677419,1.35161290322581,1.35806451612903,1.34838709677419,1.35806451612903,1.35161290322581,1.35483870967742,1.35483870967742,1.35161290322581,1.35806451612903,1.34838709677419,1.35161290322581,1.35483870967742,1.35806451612903,1.35483870967742,1.35483870967742,1.35483870967742,1.36129032258065,1.35806451612903,1.36774193548387,1.37096774193548,1.3741935483871,1.38064516129032,1.4,1.41612903225806,1.40967741935484,1.41935483870968,1.41935483870968,1.4258064516129,1.40322580645161,1.38064516129032,1.3741935483871,1.3741935483871,1.36129032258065,1.36451612903226,1.36451612903226,1.37096774193548,1.35806451612903,1.36129032258065,1.34838709677419,1.35161290322581,1.3741935483871,1.36129032258065,1.34838709677419,1.38064516129032,1.51612903225806,1.78709677419355,2.1258064516129,2.2258064516129,1.71290322580645,1.45161290322581,1.33870967741935,1.34516129032258,1.38387096774194,1.37096774193548,1.37096774193548,1.36774193548387,1.35806451612903,1.36774193548387,1.37096774193548,1.3741935483871,1.37096774193548,1.36774193548387,1.3741935483871,1.38387096774194,1.38387096774194,1.38064516129032,1.38387096774194,1.38064516129032,1.38387096774194,1.38387096774194,1.39032258064516,1.38387096774194,1.37741935483871,1.38709677419355,1.38709677419355,1.38387096774194,1.38064516129032,1.39677419354839,1.40322580645161,1.40967741935484,1.41935483870968,1.43548387096774,1.43225806451613,1.44838709677419,1.45161290322581,1.44516129032258,1.43225806451613,1.42258064516129,1.4,1.4,1.39677419354839,1.39677419354839,1.39354838709677,1.39032258064516,1.39677419354839,1.39354838709677,1.39677419354839,1.39677419354839,1.4,1.4,1.39677419354839,1.4,1.4,1.40322580645161,1.40645161290323,1.4,1.40322580645161,1.40322580645161,1.39677419354839,1.39677419354839,1.4,1.40322580645161,1.39677419354839,1.38387096774194,1.38387096774194,1.38387096774194,1.38387096774194,1.38064516129032,1.38387096774194,1.38709677419355,1.38387096774194,1.38387096774194,1.38387096774194,1.38387096774194,1.38387096774194,1.37741935483871,1.37741935483871,1.38709677419355,1.38387096774194,1.36774193548387,1.37741935483871,1.37741935483871,1.37741935483871,1.37741935483871,1.37741935483871,1.37096774193548,1.36774193548387,1.36129032258065,1.36129032258065,1.35806451612903,1.36129032258065,1.35806451612903,1.36129032258065,1.35483870967742,1.36129032258065,1.37096774193548,1.36774193548387,1.37096774193548,1.3741935483871,1.38709677419355,1.38064516129032,1.38387096774194,1.40645161290323,1.42903225806452,1.43225806451613,1.43548387096774,1.43870967741935,1.43870967741935,1.42258064516129,1.4,1.38064516129032,1.36451612903226,1.36129032258065,1.35806451612903,1.35483870967742,1.35161290322581,1.35806451612903,1.35483870967742,1.35161290322581,1.35161290322581,1.35806451612903,1.36451612903226,1.35161290322581,1.35161290322581,1.40645161290323,1.58709677419355,1.89354838709677,2.22258064516129,2.18709677419355,1.61935483870968,1.43870967741935,1.35161290322581,1.35806451612903,1.38064516129032,1.35806451612903,1.35161290322581,1.35806451612903,1.35483870967742,1.35483870967742,1.35806451612903,1.35161290322581,1.34838709677419,1.35161290322581,1.35161290322581,1.34516129032258,1.34838709677419,1.34516129032258,1.34193548387097,1.34193548387097,1.33870967741935,1.34193548387097,1.35161290322581,1.34516129032258,1.34516129032258,1.35161290322581,1.35806451612903,1.35806451612903,1.3741935483871,1.3741935483871,1.38387096774194,1.39677419354839,1.40967741935484,1.41935483870968,1.43870967741935,1.44516129032258,1.44516129032258,1.44516129032258,1.42903225806452,1.41612903225806,1.40967741935484,1.4,1.38387096774194,1.37741935483871,1.37741935483871,1.38064516129032,1.38064516129032,1.38387096774194,1.37741935483871,1.38387096774194,1.3741935483871,1.38064516129032,1.38709677419355,1.38387096774194,1.38064516129032,1.37741935483871,1.38064516129032,1.38709677419355,1.3741935483871,1.37741935483871,1.38064516129032,1.39354838709677,1.39354838709677,1.39032258064516,1.4,1.39677419354839,1.39032258064516,1.39354838709677,1.39354838709677,1.38064516129032,1.39032258064516,1.38387096774194,1.37096774193548,1.38064516129032,1.3741935483871,1.36129032258065,1.36774193548387,1.36129032258065,1.36129032258065,1.35806451612903,1.36129032258065,1.35483870967742,1.36129032258065,1.36129032258065,1.35483870967742,1.35161290322581,1.35483870967742,1.36129032258065,1.36129032258065,1.36451612903226,1.36129032258065,1.37096774193548,1.36129032258065,1.35806451612903,1.36129032258065,1.36774193548387,1.36774193548387,1.36774193548387,1.36774193548387,1.38064516129032,1.39032258064516,1.39354838709677,1.39677419354839,1.42258064516129,1.44193548387097,1.44193548387097,1.44193548387097,1.44193548387097,1.43870967741935,1.44193548387097,1.40967741935484,1.39354838709677,1.38387096774194,1.3741935483871,1.37741935483871,1.37741935483871,1.37741935483871,1.36774193548387,1.3741935483871,1.36774193548387,1.37096774193548,1.37741935483871,1.38387096774194,1.36451612903226,1.34516129032258,1.41290322580645,1.58064516129032,1.9,2.26774193548387,2.25806451612903,1.67741935483871,1.45806451612903,1.34516129032258,1.34838709677419,1.3741935483871,1.35806451612903,1.35483870967742,1.35806451612903,1.36451612903226,1.35806451612903,1.35806451612903,1.36451612903226,1.35806451612903,1.35806451612903,1.36451612903226,1.36451612903226,1.35806451612903,1.36129032258065,1.37096774193548,1.36774193548387,1.37741935483871,1.36451612903226,1.38064516129032,1.38064516129032,1.38064516129032,1.38387096774194,1.38064516129032,1.38387096774194,1.38709677419355,1.39032258064516,1.39354838709677,1.40967741935484,1.4258064516129,1.42903225806452,1.44838709677419,1.45483870967742,1.45806451612903,1.44516129032258,1.43548387096774,1.42258064516129,1.41290322580645,1.4,1.39677419354839,1.38387096774194,1.38709677419355,1.37741935483871,1.37741935483871,1.38064516129032,1.38387096774194,1.38064516129032,1.38709677419355,1.38387096774194,1.38064516129032,1.38064516129032,1.38387096774194,1.3741935483871,1.37741935483871,1.3741935483871,1.3741935483871,1.38387096774194,1.38709677419355,1.37741935483871,1.37096774193548,1.37741935483871,1.36774193548387,1.3741935483871,1.3741935483871,1.3741935483871,1.38064516129032,1.3741935483871,1.36774193548387,1.37096774193548,1.36774193548387,1.36451612903226,1.35161290322581,1.36129032258065,1.36451612903226,1.36129032258065,1.35483870967742,1.36129032258065,1.36774193548387,1.3741935483871,1.36129032258065,1.36129032258065,1.37096774193548,1.36774193548387,1.37741935483871,1.37096774193548,1.36451612903226,1.36129032258065,1.36129032258065,1.35161290322581,1.35161290322581,1.35161290322581,1.36451612903226,1.36451612903226,1.37096774193548,1.37096774193548,1.37741935483871,1.39032258064516,1.38709677419355,1.40645161290323,1.42903225806452,1.43870967741935,1.41935483870968,1.44193548387097,1.43225806451613,1.43870967741935,1.41935483870968,1.4,1.38709677419355,1.38064516129032,1.37096774193548,1.36774193548387,1.36129032258065,1.35806451612903,1.35483870967742,1.36129032258065,1.35806451612903,1.36129032258065,1.3741935483871,1.36451612903226,1.34193548387097,1.37741935483871,1.50645161290323,1.77096774193548,2.12903225806452,2.25483870967742,1.73870967741935,1.44193548387097,1.32258064516129,1.31612903225806,1.36129032258065,1.35161290322581,1.34838709677419,1.33870967741935,1.33548387096774,1.33225806451613,1.33870967741935,1.33548387096774,1.34516129032258,1.34838709677419,1.35161290322581,1.34516129032258,1.34838709677419,1.34838709677419,1.34838709677419,1.35161290322581,1.35806451612903,1.35161290322581,1.35806451612903,1.35483870967742,1.36129032258065,1.35806451612903,1.37741935483871,1.37741935483871,1.38387096774194,1.40322580645161,1.40967741935484,1.42258064516129,1.4258064516129,1.44516129032258,1.45161290322581,1.45483870967742,1.45483870967742,1.44838709677419,1.44838709677419,1.43225806451613,1.41612903225806,1.39677419354839,1.39354838709677,1.39032258064516,1.38709677419355,1.39677419354839,1.39032258064516,1.39354838709677,1.39354838709677,1.39032258064516,1.38709677419355,1.38709677419355,1.39032258064516,1.4,1.39032258064516,1.39032258064516,1.39677419354839,1.39677419354839,1.39354838709677,1.4,1.4,1.40645161290323,1.39677419354839,1.40645161290323,1.40322580645161,1.40322580645161,1.40967741935484,1.40967741935484,1.41290322580645,1.41290322580645,1.40645161290323,1.40645161290323,1.40322580645161,1.41290322580645,1.4,1.39354838709677,1.39677419354839,1.39677419354839,1.39354838709677,1.39677419354839,1.39677419354839,1.39032258064516,1.38064516129032,1.38064516129032,1.37741935483871,1.37741935483871,1.36129032258065,1.36451612903226,1.36451612903226,1.35806451612903,1.35806451612903,1.35806451612903,1.36451612903226,1.36451612903226,1.36774193548387,1.36774193548387,1.36129032258065,1.36774193548387,1.36774193548387,1.36774193548387,1.36451612903226,1.39677419354839,1.40645161290323,1.4,1.40967741935484,1.4,1.40967741935484,1.38387096774194,1.3741935483871,1.36451612903226,1.35161290322581,1.35483870967742,1.35161290322581,1.34838709677419,1.35483870967742,1.35161290322581,1.34838709677419,1.34516129032258,1.35483870967742,1.35483870967742,1.35483870967742,1.33548387096774,1.35161290322581,1.43548387096774,1.68064516129032,1.99677419354839,2.20967741935484,1.89677419354839,1.49032258064516,1.34838709677419,1.32258064516129,1.36129032258065,1.36129032258065,1.34838709677419,1.35161290322581,1.34838709677419,1.34838709677419,1.35161290322581,1.35806451612903,1.35806451612903,1.35806451612903,1.36129032258065,1.35806451612903,1.36451612903226,1.36451612903226,1.35806451612903,1.36129032258065,1.36129032258065,1.35806451612903,1.35806451612903,1.36129032258065,1.36451612903226,1.36451612903226,1.36774193548387,1.37096774193548,1.37096774193548,1.3741935483871,1.38387096774194,1.4,1.41612903225806,1.43548387096774,1.43870967741935,1.45161290322581,1.45483870967742,1.45806451612903,1.45483870967742,1.43225806451613,1.42258064516129,1.40645161290323,1.4,1.4,1.4,1.40967741935484,1.4,1.40645161290323,1.39677419354839,1.4,1.39032258064516,1.39032258064516,1.39354838709677,1.39677419354839,1.4,1.40645161290323,1.41290322580645,1.40967741935484,1.40967741935484,1.41612903225806,1.41612903225806,1.41290322580645,1.40967741935484,1.41290322580645,1.40322580645161,1.40645161290323,1.40645161290323,1.4,1.40322580645161,1.40645161290323,1.40322580645161,1.39354838709677,1.39677419354839,1.4,1.4,1.39677419354839,1.39677419354839,1.38709677419355,1.39032258064516,1.39032258064516,1.39032258064516,1.37741935483871,1.38064516129032,1.3741935483871,1.36774193548387,1.36774193548387,1.37096774193548,1.37096774193548,1.3741935483871,1.37096774193548,1.36451612903226,1.36774193548387,1.36774193548387,1.36129032258065,1.3741935483871,1.3741935483871,1.37741935483871,1.36774193548387,1.37096774193548,1.36451612903226,1.36774193548387,1.36774193548387,1.3741935483871,1.38387096774194,1.40322580645161,1.41290322580645,1.40645161290323,1.41935483870968,1.41935483870968,1.41935483870968,1.4,1.3741935483871,1.36129032258065,1.34838709677419,1.34193548387097,1.33870967741935,1.33548387096774,1.33225806451613,1.33548387096774,1.33548387096774,1.33548387096774,1.33548387096774,1.33225806451613,1.33548387096774,1.30967741935484,1.33225806451613,1.43225806451613,1.69354838709677,2.03225806451613,2.29354838709677,1.99354838709677,1.56129032258065,1.37741935483871,1.31612903225806,1.34516129032258,1.34516129032258,1.33548387096774,1.33548387096774,1.34193548387097,1.34193548387097,1.34193548387097,1.34838709677419,1.34516129032258,1.34516129032258,1.34193548387097,1.34193548387097,1.34193548387097,1.33870967741935,1.34193548387097,1.35161290322581,1.35161290322581,1.35483870967742,1.35806451612903,1.35806451612903,1.35161290322581,1.35483870967742,1.36129032258065,1.35483870967742,1.36451612903226,1.35806451612903,1.36774193548387,1.38709677419355,1.39677419354839,1.40967741935484,1.42258064516129,1.43225806451613,1.44516129032258,1.44193548387097,1.44516129032258,1.43870967741935,1.41935483870968,1.41935483870968,1.40645161290323,1.40322580645161,1.39354838709677,1.40322580645161,1.40322580645161,1.40322580645161,1.4
1.43225806451613,1.41935483870968,1.41612903225806,1.41290322580645,1.41290322580645,1.41612903225806,1.41612903225806,1.41290322580645,1.42258064516129,1.43225806451613,1.4258064516129,1.4258064516129,1.4258064516129,1.41290322580645,1.4258064516129,1.42903225806452,1.42258064516129,1.42258064516129,1.4258064516129,1.42258064516129,1.41612903225806,1.41290322580645,1.4258064516129,1.41935483870968,1.41935483870968,1.42258064516129,1.41290322580645,1.41290322580645,1.40967741935484,1.40967741935484,1.40967741935484,1.40967741935484,1.40322580645161,1.39677419354839,1.39354838709677,1.38709677419355,1.39677419354839,1.38709677419355,1.37741935483871,1.3741935483871,1.37741935483871,1.3741935483871,1.38064516129032,1.39032258064516,1.38709677419355,1.38064516129032,1.37741935483871,1.37741935483871,1.3741935483871,1.37741935483871,1.37741935483871,1.37741935483871,1.38387096774194,1.37741935483871,1.38387096774194,1.40322580645161,1.41612903225806,1.41935483870968,1.4258064516129,1.42903225806452,1.42903225806452,1.41935483870968,1.39032258064516,1.36774193548387,1.35483870967742,1.35161290322581,1.35161290322581,1.34838709677419,1.35483870967742,1.35483870967742,1.34516129032258,1.35161290322581,1.35483870967742,1.35483870967742,1.35161290322581,1.33870967741935,1.3258064516129,1.3741935483871,1.52258064516129,1.81935483870968,2.18064516129032,2.28064516129032,1.7258064516129,1.4741935483871,1.35161290322581,1.34838709677419,1.3741935483871,1.36451612903226,1.35806451612903,1.35806451612903,1.35483870967742,1.35483870967742,1.35483870967742,1.35483870967742,1.35483870967742,1.35483870967742,1.34838709677419,1.34838709677419,1.34516129032258,1.35483870967742,1.35806451612903,1.35161290322581,1.34838709677419,1.35161290322581,1.34838709677419,1.35161290322581,1.35161290322581,1.34838709677419,1.35483870967742,1.35161290322581,1.36129032258065,1.37096774193548,1.37741935483871,1.38387096774194,1.4,1.42258064516129,1.43548387096774,1.43225806451613,1.44193548387097,1.44193548387097,1.4258064516129,1.41612903225806,1.4,1.38709677419355,1.38709677419355,1.38064516129032,1.3741935483871,1.36774193548387,1.36451612903226,1.36774193548387,1.36129032258065,1.35806451612903,1.36129032258065,1.35483870967742,1.35483870967742,1.35483870967742,1.35161290322581,1.35806451612903,1.36451612903226,1.36129032258065,1.36129032258065,1.37096774193548,1.36774193548387,1.3741935483871,1.3741935483871,1.37741935483871,1.37741935483871,1.37096774193548,1.3741935483871,1.38064516129032,1.37741935483871,1.37741935483871,1.38064516129032,1.3741935483871,1.38064516129032,1.36774193548387,1.38709677419355,1.3741935483871,1.38064516129032,1.38387096774194,1.38387096774194,1.38064516129032,1.38709677419355,1.38064516129032,1.38064516129032,1.38387096774194,1.38387096774194,1.38064516129032,1.38709677419355,1.38387096774194,1.38387096774194,1.3741935483871,1.38064516129032,1.37096774193548,1.37741935483871,1.3741935483871,1.37096774193548,1.38387096774194,1.39354838709677,1.39354838709677,1.39032258064516,1.39677419354839,1.40967741935484,1.4258064516129,1.4258064516129,1.4258064516129,1.43548387096774,1.43225806451613,1.41290322580645,1.39677419354839,1.39032258064516,1.38064516129032,1.36774193548387,1.36774193548387,1.38064516129032,1.3741935483871,1.38064516129032,1.37096774193548,1.3741935483871,1.37096774193548,1.38064516129032,1.38387096774194,1.35806451612903,1.3741935483871,1.44838709677419,1.67741935483871,2.01935483870968,2.29677419354839,2.02903225806452,1.53870967741935,1.37741935483871,1.33225806451613,1.37741935483871,1.38064516129032,1.37096774193548,1.35806451612903,1.36129032258065,1.35483870967742,1.35483870967742,1.35483870967742,1.35806451612903,1.36451612903226,1.37096774193548,1.35806451612903,1.36774193548387,1.36451612903226,1.35483870967742,1.34516129032258,1.35806451612903,1.35483870967742,1.36451612903226,1.36774193548387,1.37096774193548,1.36451612903226,1.37096774193548,1.38064516129032,1.38064516129032,1.38709677419355,1.4,1.40322580645161,1.40967741935484,1.4258064516129,1.43225806451613,1.45161290322581,1.45806451612903,1.45806451612903,1.44516129032258,1.43225806451613,1.41290322580645,1.40645161290323,1.4,1.39032258064516,1.37741935483871,1.37741935483871,1.38064516129032,1.37741935483871,1.36774193548387,1.36129032258065,1.36774193548387,1.37096774193548,1.36129032258065,1.36774193548387,1.36774193548387,1.36129032258065,1.36451612903226,1.36129032258065,1.36774193548387,1.36451612903226,1.3741935483871,1.37096774193548,1.36451612903226,1.37096774193548,1.3741935483871,1.36451612903226,1.36774193548387,1.38064516129032,1.3741935483871,1.36451612903226,1.37096774193548,1.36451612903226,1.37741935483871,1.38064516129032,1.37741935483871,1.37096774193548,1.3741935483871,1.37741935483871,1.37741935483871,1.3741935483871,1.3741935483871,1.37096774193548,1.3741935483871,1.3741935483871,1.37096774193548,1.37096774193548,1.38064516129032,1.37096774193548,1.3741935483871,1.37096774193548,1.36774193548387,1.36774193548387,1.36451612903226,1.36774193548387,1.38064516129032,1.38387096774194,1.38064516129032,1.38387096774194,1.38709677419355,1.38709677419355,1.41290322580645,1.42903225806452,1.41935483870968,1.43548387096774,1.43225806451613,1.44193548387097,1.40967741935484,1.38709677419355,1.37096774193548,1.36774193548387,1.3741935483871,1.37096774193548,1.37741935483871,1.37741935483871,1.38064516129032,1.3741935483871,1.3741935483871,1.37741935483871,1.39032258064516,1.37741935483871,1.36451612903226,1.37741935483871,1.4741935483871,1.71290322580645,2.03548387096774,2.21612903225806,1.87096774193548,1.47741935483871,1.36129032258065,1.33548387096774,1.37096774193548,1.3741935483871,1.36774193548387,1.36451612903226,1.36129032258065,1.36451612903226,1.36129032258065,1.36451612903226,1.36774193548387,1.36129032258065,1.35806451612903,1.36451612903226,1.36774193548387,1.37096774193548,1.36774193548387,1.37096774193548,1.36451612903226,1.36451612903226,1.3741935483871,1.3741935483871,1.37741935483871,1.37741935483871,1.37741935483871,1.38709677419355,1.39032258064516,1.4,1.4,1.40967741935484,1.4258064516129,1.43870967741935,1.44838709677419,1.46129032258065,1.46129032258065,1.46774193548387,1.45806451612903,1.43870967741935,1.42903225806452,1.41290322580645,1.40967741935484,1.40322580645161,1.4,1.39354838709677,1.39677419354839,1.38709677419355,1.38064516129032,1.38387096774194,1.38064516129032,1.37096774193548,1.37096774193548,1.37096774193548,1.37096774193548,1.36774193548387,1.36774193548387,1.36774193548387,1.3741935483871,1.3741935483871,1.37096774193548,1.3741935483871,1.38064516129032,1.37741935483871,1.38064516129032,1.37741935483871,1.37741935483871,1.37741935483871,1.3741935483871,1.3741935483871,1.3741935483871,1.37096774193548,1.37096774193548,1.36129032258065,1.36129032258065,1.37096774193548,1.37096774193548,1.37096774193548,1.3741935483871,1.36451612903226,1.3741935483871,1.37096774193548,1.37096774193548,1.3741935483871,1.38064516129032,1.36774193548387,1.37096774193548,1.36774193548387,1.38387096774194,1.3741935483871,1.3741935483871,1.37741935483871,1.3741935483871,1.3741935483871,1.3741935483871,1.37096774193548,1.36774193548387,1.38064516129032,1.38387096774194,1.37741935483871,1.38387096774194,1.40645161290323,1.41935483870968,1.41612903225806,1.42258064516129,1.42258064516129,1.4258064516129,1.40645161290323,1.38387096774194,1.36774193548387,1.35806451612903,1.36129032258065,1.35161290322581,1.34838709677419,1.34516129032258,1.34193548387097,1.34193548387097,1.34838709677419,1.34838709677419,1.34838709677419,1.35483870967742,1.32903225806452,1.33548387096774,1.42258064516129,1.66451612903226,1.98064516129032,2.26451612903226,2.03225806451613,1.55806451612903,1.38387096774194,1.31935483870968,1.34193548387097,1.34838709677419,1.33870967741935,1.32903225806452,1.33870967741935,1.34193548387097,1.33870967741935,1.34193548387097,1.34516129032258,1.34838709677419,1.34516129032258,1.34193548387097,1.35806451612903,1.35161290322581,1.34516129032258,1.34838709677419,1.34516129032258,1.34838709677419,1.35161290322581,1.35161290322581,1.35161290322581,1.36451612903226,1.36774193548387,1.36451612903226,1.3741935483871,1.37741935483871,1.38387096774194,1.4,1.40967741935484,1.4258064516129,1.43548387096774,1.44516129032258,1.45806451612903,1.46129032258065,1.45806451612903,1.44193548387097,1.43870967741935,1.42903225806452,1.42258064516129,1.41935483870968,1.42258064516129,1.41612903225806,1.41935483870968,1.41935483870968,1.41290322580645,1.40967741935484,1.40645161290323,1.40322580645161,1.39677419354839,1.39354838709677,1.39677419354839,1.39354838709677,1.39677419354839,1.39032258064516,1.39354838709677,1.38709677419355,1.39032258064516,1.39032258064516,1.39032258064516,1.38387096774194,1.39032258064516,1.39677419354839,1.39354838709677,1.39032258064516,1.38709677419355,1.3741935483871,1.3741935483871,1.3741935483871,1.37741935483871,1.3741935483871,1.37096774193548,1.36451612903226,1.36774193548387,1.36129032258065,1.36451612903226,1.36129032258065,1.37096774193548,1.36451612903226,1.36451612903226,1.36129032258065,1.36129032258065,1.36129032258065,1.35806451612903,1.35806451612903,1.36129032258065,1.36451612903226,1.36451612903226,1.35806451612903,1.3741935483871,1.36774193548387,1.3741935483871,1.3741935483871,1.38387096774194,1.38387096774194,1.39354838709677,1.4,1.40967741935484,1.43870967741935,1.45483870967742,1.47096774193548,1.46129032258065,1.47096774193548,1.45806451612903,1.45161290322581,1.42903225806452,1.41612903225806,1.4,1.39032258064516,1.38387096774194,1.39032258064516,1.38387096774194,1.37741935483871,1.36774193548387,1.36774193548387,1.35806451612903,1.36129032258065,1.36129032258065,1.35161290322581,1.33870967741935,1.39032258064516,1.56451612903226,1.87096774193548,2.24193548387097,2.24516129032258,1.65161290322581,1.43225806451613,1.3258064516129,1.34516129032258,1.36451612903226,1.35483870967742,1.35806451612903,1.34838709677419,1.35161290322581,1.36129032258065,1.35806451612903,1.36451612903226,1.37096774193548,1.36451612903226,1.36129032258065,1.36129032258065,1.35806451612903,1.35161290322581,1.35161290322581,1.35161290322581,1.35483870967742,1.35161290322581,1.34838709677419,1.34838709677419,1.34516129032258,1.34838709677419,1.35483870967742,1.35483870967742,1.35483870967742,1.36774193548387,1.37741935483871,1.39032258064516,1.4,1.41612903225806,1.4258064516129,1.43548387096774,1.43548387096774,1.42903225806452,1.41935483870968,1.40645161290323,1.39354838709677,1.38709677419355,1.38709677419355,1.38387096774194,1.38064516129032,1.37741935483871,1.3741935483871,1.38064516129032,1.38064516129032,1.37741935483871,1.38064516129032,1.3741935483871,1.38064516129032,1.36774193548387,1.37096774193548,1.36774193548387,1.38064516129032,1.3741935483871,1.37096774193548,1.37096774193548,1.37096774193548,1.3741935483871,1.3741935483871,1.36451612903226,1.36774193548387,1.37096774193548,1.36451612903226,1.37096774193548,1.36774193548387,1.36451612903226,1.36774193548387,1.36774193548387,1.36451612903226,1.36129032258065,1.36451612903226,1.36129032258065,1.36129032258065,1.35483870967742,1.36451612903226,1.35483870967742,1.36129032258065,1.3741935483871,1.36774193548387,1.3741935483871,1.37741935483871,1.3741935483871,1.38387096774194,1.38387096774194,1.38064516129032,1.3741935483871,1.37741935483871,1.38064516129032,1.37741935483871,1.37741935483871,1.36774193548387,1.38387096774194,1.39677419354839,1.39354838709677,1.4,1.4258064516129,1.43870967741935,1.42903225806452,1.43548387096774,1.42903225806452,1.43548387096774,1.40322580645161,1.39032258064516,1.37096774193548,1.36774193548387,1.35806451612903,1.36451612903226,1.36129032258065,1.35483870967742,1.36774193548387,1.36451612903226,1.36451612903226,1.3741935483871,1.38064516129032,1.37096774193548,1.34516129032258,1.37741935483871,1.49032258064516,1.76774193548387,2.11290322580645,2.26129032258065,1.77741935483871,1.46129032258065,1.33870967741935,1.33870967741935,1.37096774193548,1.36774193548387,1.36129032258065,1.35483870967742,1.36129032258065,1.36129032258065,1.36774193548387,1.36451612903226,1.36774193548387,1.36774193548387,1.37096774193548,1.3741935483871,1.37096774193548,1.3741935483871,1.36774193548387,1.36451612903226,1.37096774193548,1.36774193548387,1.37096774193548,1.37741935483871,1.38064516129032,1.38064516129032,1.38709677419355,1.39032258064516,1.39354838709677,1.4,1.40645161290323,1.41290322580645,1.4258064516129,1.43548387096774,1.43870967741935,1.45161290322581,1.45161290322581,1.45161290322581,1.44193548387097,1.43225806451613,1.41612903225806,1.41290322580645,1.4,1.39677419354839,1.38387096774194,1.37741935483871,1.37741935483871,1.37741935483871,1.38064516129032,1.37096774193548,1.37096774193548,1.36774193548387,1.36774193548387,1.3741935483871,1.38387096774194,1.38709677419355,1.4,1.38709677419355,1.39032258064516,1.38064516129032,1.38064516129032,1.38709677419355,1.38064516129032,1.38709677419355,1.38709677419355,1.38387096774194,1.39032258064516,1.39032258064516,1.39032258064516,1.38387096774194,1.38064516129032,1.38387096774194,1.37741935483871,1.3741935483871,1.3741935483871,1.36451612903226,1.36129032258065,1.36129032258065,1.35483870967742,1.35483870967742,1.35483870967742,1.36129032258065,1.36451612903226,1.36451612903226,1.36129032258065,1.36129032258065,1.35806451612903,1.35483870967742,1.35806451612903,1.36451612903226,1.36451612903226,1.36451612903226,1.37096774193548,1.3741935483871,1.38064516129032,1.39032258064516,1.39354838709677,1.4,1.40322580645161,1.40645161290323,1.42258064516129,1.43870967741935,1.43225806451613,1.44193548387097,1.44516129032258,1.44193548387097,1.4258064516129,1.4,1.38064516129032,1.36451612903226,1.35806451612903,1.35806451612903,1.35806451612903,1.35161290322581,1.35161290322581,1.35483870967742,1.35483870967742,1.35806451612903,1.35806451612903,1.36774193548387,1.34193548387097,1.34838709677419,1.44193548387097,1.66774193548387,1.98387096774194,2.26129032258065,2.02258064516129,1.55806451612903,1.38709677419355,1.33225806451613,1.34516129032258,1.35161290322581,1.35161290322581,1.34516129032258,1.34838709677419,1.35806451612903,1.35161290322581,1.36129032258065,1.36451612903226,1.36451612903226,1.36129032258065,1.35806451612903,1.35483870967742,1.35161290322581,1.35806451612903,1.35806451612903,1.35806451612903,1.36129032258065,1.36451612903226,1.36451612903226,1.37741935483871,1.36774193548387,1.37096774193548,1.37096774193548,1.37096774193548,1.3741935483871,1.3741935483871,1.38387096774194,1.4,1.41935483870968,1.43225806451613,1.43870967741935,1.44838709677419,1.45161290322581,1.44516129032258,1.43548387096774,1.41935483870968,1.40645161290323,1.39354838709677,1.38709677419355,1.38709677419355,1.38709677419355,1.38709677419355,1.38709677419355,1.38387096774194,1.38064516129032,1.38064516129032,1.37741935483871,1.36774193548387,1.3741935483871,1.3741935483871,1.3741935483871,1.3741935483871,1.38387096774194,1.38064516129032,1.37741935483871,1.38709677419355,1.38387096774194,1.38387096774194,1.38387096774194,1.3741935483871,1.37741935483871,1.37096774193548,1.37741935483871,1.37741935483871,1.38387096774194,1.38709677419355,1.38709677419355,1.38387096774194,1.38387096774194,1.38064516129032,1.3741935483871,1.3741935483871,1.37741935483871,1.3741935483871,1.38064516129032,1.37741935483871,1.38387096774194,1.37096774193548,1.37741935483871,1.37741935483871,1.37741935483871,1.38387096774194,1.38064516129032,1.37741935483871,1.37741935483871,1.3741935483871,1.37741935483871,1.3741935483871,1.3741935483871,1.37096774193548,1.38064516129032,1.3741935483871,1.36774193548387,1.37096774193548,1.37741935483871,1.38064516129032,1.39032258064516,1.40967741935484,1.42903225806452,1.44193548387097,1.43548387096774,1.44193548387097,1.43548387096774,1.43548387096774,1.40322580645161,1.38709677419355,1.37096774193548,1.36451612903226,1.36129032258065,1.36129032258065,1.35161290322581,1.35483870967742,1.35483870967742,1.35161290322581,1.35483870967742,1.35483870967742,1.35806451612903,1.35161290322581,1.33548387096774,1.37741935483871,1.52258064516129,1.8258064516129,2.2,2.33225806451613,1.78709677419355,1.5,1.36774193548387,1.34838709677419,1.37741935483871,1.37096774193548,1.36129032258065,1.36129032258065,1.36451612903226,1.36451612903226,1.35806451612903,1.35806451612903,1.35806451612903,1.36129032258065,1.35483870967742,1.34516129032258,1.34838709677419,1.34516129032258,1.33870967741935,1.33870967741935,1.34516129032258,1.34838709677419,1.34516129032258,1.34838709677419,1.35161290322581,1.35483870967742,1.35161290322581,1.34838709677419,1.34838709677419,1.36774193548387,1.37741935483871,1.39677419354839,1.40967741935484,1.43225806451613,1.44193548387097,1.44838709677419,1.45483870967742,1.45483870967742,1.44516129032258,1.43548387096774,1.41612903225806,1.4,1.39032258064516,1.4,1.39354838709677,1.39032258064516,1.38709677419355,1.38387096774194,1.38064516129032,1.37741935483871,1.37096774193548,1.3741935483871,1.37741935483871,1.37741935483871,1.38064516129032,1.38064516129032,1.3741935483871,1.38709677419355,1.39354838709677,1.38709677419355,1.39354838709677,1.39354838709677,1.39354838709677,1.39032258064516,1.39032258064516,1.39677419354839,1.39354838709677,1.39354838709677,1.38387096774194,1.38387096774194,1.37741935483871,1.37741935483871,1.38387096774194,1.38387096774194,1.37096774193548,1.3741935483871,1.37741935483871,1.3741935483871,1.3741935483871,1.37096774193548,1.38064516129032,1.37741935483871,1.37096774193548,1.36774193548387,1.37096774193548,1.36774193548387,1.36129032258065,1.36774193548387,1.36129032258065,1.37096774193548,1.36129032258065,1.36129032258065,1.36129032258065,1.35483870967742,1.36451612903226,1.36774193548387,1.35483870967742,1.35161290322581,1.36451612903226,1.36451612903226,1.36774193548387,1.38387096774194,1.41612903225806,1.41612903225806,1.41612903225806,1.42258064516129,1.41935483870968,1.43225806451613,1.39354838709677,1.38709677419355,1.3741935483871,1.36451612903226,1.37096774193548,1.35806451612903,1.36451612903226,1.35806451612903,1.35161290322581,1.35483870967742,1.35483870967742,1.35161290322581,1.35483870967742,1.34838709677419,1.3258064516129,1.36129032258065,1.49677419354839,1.78064516129032,2.16129032258065,2.29354838709677,1.77096774193548,1.46129032258065,1.35161290322581,1.35161290322581,1.38387096774194,1.37741935483871,1.36451612903226,1.35483870967742,1.35161290322581,1.35483870967742,1.35806451612903,1.35161290322581,1.36129032258065,1.35483870967742,1.36129032258065,1.36774193548387,1.37096774193548,1.37096774193548,1.37741935483871,1.37741935483871,1.38387096774194,1.39032258064516,1.39032258064516,1.39032258064516,1.39354838709677,1.39354838709677,1.39032258064516,1.39354838709677,1.4,1.40645161290323,1.40645161290323,1.43225806451613,1.43225806451613,1.44838709677419,1.45483870967742,1.45806451612903,1.46774193548387,1.45483870967742,1.44516129032258,1.42903225806452,1.41290322580645,1.40322580645161,1.40322580645161,1.38387096774194,1.39032258064516,1.37741935483871,1.37741935483871,1.3741935483871,1.37741935483871,1.3741935483871,1.38387096774194,1.38387096774194,1.39032258064516,1.38387096774194,1.38387096774194,1.38064516129032,1.38064516129032,1.37741935483871,1.38709677419355,1.38709677419355,1.38064516129032,1.38064516129032,1.38709677419355,1.38387096774194,1.39354838709677,1.38064516129032,1.38387096774194,1.38709677419355,1.38064516129032,1.39032258064516,1.38709677419355,1.38064516129032,1.37741935483871,1.37741935483871,1.3741935483871,1.3741935483871,1.37096774193548,1.37096774193548,1.37096774193548,1.37096774193548,1.36774193548387,1.36774193548387,1.37096774193548,1.37741935483871,1.37741935483871,1.37096774193548,1.36774193548387,1.37096774193548,1.36774193548387,1.36774193548387,1.36774193548387,1.36451612903226,1.36451612903226,1.36129032258065,1.36129032258065,1.36129032258065,1.36774193548387,1.3741935483871,1.36774193548387,1.37741935483871,1.39354838709677,1.41612903225806,1.4258064516129,1.41935483870968,1.42903225806452,1.42258064516129,1.43548387096774,1.4,1.38387096774194,1.36129032258065,1.36451612903226,1.35806451612903,1.35161290322581,1.34516129032258,1.34193548387097,1.33225806451613,1.33225806451613,1.34193548387097,1.34838709677419,1.35483870967742,1.35161290322581,1.3258064516129,1.37096774193548,1.49032258064516,1.76451612903226,2.11290322580645,2.24193548387097,1.72903225806452,1.45161290322581,1.33225806451613,1.32903225806452,1.35806451612903,1.35483870967742,1.34516129032258,1.34193548387097,1.33870967741935,1.33870967741935,1.33870967741935,1.35161290322581,1.34516129032258,1.34516129032258,1.35483870967742,1.35806451612903,1.35483870967742,1.36129032258065,1.36129032258065,1.36451612903226,1.36451612903226,1.37096774193548,1.37096774193548,1.3741935483871,1.37741935483871,1.38064516129032
1.3258064516129,1.3258064516129,1.33870967741935,1.33225806451613,1.33225806451613,1.33225806451613,1.34193548387097,1.33548387096774,1.33548387096774,1.33870967741935,1.34193548387097,1.34838709677419,1.36774193548387,1.37741935483871,1.40322580645161,1.40967741935484,1.43225806451613,1.43870967741935,1.43870967741935,1.42258064516129,1.42258064516129,1.39032258064516,1.38709677419355,1.37096774193548,1.38064516129032,1.36451612903226,1.36451612903226,1.36451612903226,1.36129032258065,1.36451612903226,1.36129032258065,1.36129032258065,1.36129032258065,1.37096774193548,1.37096774193548,1.37096774193548,1.37741935483871,1.3741935483871,1.37741935483871,1.38387096774194,1.38064516129032,1.39354838709677,1.39354838709677,1.40322580645161,1.40322580645161,1.41290322580645,1.4,1.39354838709677,1.39677419354839,1.39677419354839,1.39032258064516,1.38709677419355,1.38064516129032,1.38064516129032,1.38709677419355,1.38709677419355,1.39354838709677,1.39677419354839,1.39354838709677,1.38387096774194,1.39354838709677,1.38709677419355,1.39032258064516,1.39032258064516,1.39032258064516,1.39354838709677,1.39032258064516,1.39677419354839,1.39354838709677,1.38709677419355,1.38387096774194,1.39677419354839,1.39354838709677,1.39677419354839,1.40645161290323,1.4,1.40322580645161,1.4,1.40645161290323,1.40322580645161,1.40645161290323,1.41612903225806,1.43548387096774,1.43870967741935,1.43548387096774,1.45161290322581,1.44516129032258,1.44193548387097,1.40967741935484,1.39677419354839,1.38064516129032,1.38387096774194,1.38064516129032,1.37741935483871,1.37741935483871,1.36774193548387,1.36774193548387,1.36451612903226,1.36129032258065,1.36129032258065,1.36451612903226,1.36129032258065,1.33870967741935,1.3741935483871,1.51290322580645,1.79032258064516,2.13870967741935,2.20967741935484,1.68387096774194,1.42903225806452,1.32903225806452,1.33870967741935,1.37096774193548,1.35483870967742,1.36451612903226,1.36129032258065,1.35806451612903,1.36129032258065,1.36129032258065,1.35806451612903,1.35483870967742,1.35806451612903,1.35806451612903,1.35161290322581,1.36451612903226,1.36451612903226,1.36451612903226,1.36774193548387,1.37096774193548,1.37741935483871,1.38064516129032,1.38064516129032,1.38064516129032,1.37741935483871,1.38064516129032,1.37741935483871,1.39032258064516,1.4,1.41290322580645,1.42903225806452,1.44516129032258,1.46129032258065,1.4741935483871,1.48064516129032,1.48387096774194,1.47096774193548,1.46129032258065,1.44838709677419,1.42903225806452,1.42258064516129,1.41290322580645,1.4,1.39354838709677,1.38709677419355,1.38387096774194,1.38064516129032,1.38387096774194,1.37741935483871,1.37741935483871,1.37741935483871,1.3741935483871,1.3741935483871,1.3741935483871,1.37741935483871,1.3741935483871,1.36774193548387,1.36774193548387,1.36129032258065,1.36774193548387,1.36774193548387,1.36774193548387,1.36451612903226,1.37096774193548,1.36451612903226,1.36451612903226,1.36451612903226,1.36451612903226,1.36129032258065,1.36129032258065,1.36129032258065,1.36129032258065,1.36774193548387,1.36774193548387,1.36774193548387,1.36451612903226,1.36774193548387,1.36451612903226,1.36451612903226,1.37096774193548,1.36451612903226,1.36451612903226,1.36129032258065,1.36129032258065,1.36129032258065,1.36129032258065,1.36129032258065,1.36129032258065,1.35161290322581,1.34838709677419,1.35161290322581,1.34838709677419,1.35161290322581,1.35806451612903,1.35806451612903,1.36129032258065,1.36451612903226,1.37096774193548,1.37741935483871,1.38709677419355,1.39032258064516,1.39354838709677,1.41935483870968,1.42903225806452,1.41935483870968,1.42258064516129,1.41612903225806,1.41935483870968,1.39677419354839,1.3741935483871,1.36129032258065,1.35161290322581,1.35161290322581,1.34838709677419,1.35161290322581,1.35483870967742,1.35161290322581,1.35161290322581,1.35483870967742,1.35161290322581,1.36129032258065,1.35806451612903,1.33548387096774,1.35806451612903,1.45806451612903,1.7258064516129,2.05806451612903,2.30645161290323,2.00645161290323,1.58064516129032,1.39677419354839,1.33548387096774,1.36451612903226,1.36774193548387,1.35806451612903,1.36451612903226,1.36774193548387,1.36774193548387,1.36774193548387,1.36774193548387,1.36451612903226,1.36129032258065,1.36129032258065,1.36774193548387,1.36774193548387,1.36774193548387,1.36774193548387,1.37096774193548,1.36774193548387,1.36451612903226,1.36129032258065,1.36129032258065,1.36451612903226,1.35806451612903,1.35483870967742,1.35483870967742,1.36451612903226,1.38064516129032,1.38387096774194,1.39677419354839,1.40967741935484,1.41935483870968,1.44193548387097,1.44516129032258,1.46129032258065,1.45806451612903,1.44516129032258,1.4258064516129,1.41290322580645,1.4,1.39354838709677,1.39354838709677,1.38709677419355,1.39032258064516,1.39032258064516,1.39032258064516,1.38387096774194,1.38064516129032,1.37741935483871,1.37096774193548,1.38387096774194,1.37741935483871,1.3741935483871,1.3741935483871,1.37741935483871,1.36129032258065,1.36774193548387,1.36774193548387,1.3741935483871,1.3741935483871,1.37741935483871,1.38064516129032,1.37741935483871,1.37741935483871,1.38064516129032,1.38064516129032,1.38064516129032,1.37741935483871,1.38064516129032,1.37741935483871,1.3741935483871,1.3741935483871,1.36774193548387,1.36774193548387,1.3741935483871,1.37741935483871,1.3741935483871,1.38064516129032,1.37741935483871,1.37741935483871,1.37741935483871,1.37741935483871,1.37741935483871,1.36774193548387,1.37096774193548,1.3741935483871,1.38064516129032,1.38064516129032,1.37741935483871,1.38387096774194,1.39032258064516,1.4,1.39354838709677,1.39354838709677,1.39032258064516,1.39032258064516,1.39677419354839,1.40322580645161,1.40967741935484,1.41612903225806,1.43225806451613,1.45483870967742,1.46129032258065,1.44838709677419,1.45161290322581,1.43870967741935,1.43870967741935,1.40322580645161,1.38387096774194,1.3741935483871,1.36451612903226,1.36451612903226,1.36451612903226,1.36129032258065,1.35806451612903,1.34838709677419,1.33870967741935,1.35161290322581,1.34838709677419,1.35483870967742,1.33870967741935,1.31612903225806,1.3741935483871,1.53548387096774,1.84838709677419,2.21935483870968,2.26129032258065,1.67741935483871,1.44838709677419,1.33870967741935,1.34193548387097,1.36451612903226,1.34838709677419,1.34516129032258,1.34193548387097,1.34838709677419,1.34516129032258,1.33548387096774,1.34516129032258,1.35806451612903,1.35483870967742,1.35161290322581,1.35806451612903,1.35806451612903,1.36451612903226,1.36129032258065,1.36451612903226,1.36451612903226,1.36129032258065,1.36129032258065,1.36774193548387,1.36129032258065,1.36774193548387,1.36451612903226,1.36774193548387,1.38387096774194,1.38709677419355,1.41290322580645,1.42258064516129,1.43225806451613,1.44838709677419,1.46129032258065,1.47096774193548,1.46129032258065,1.46451612903226,1.44838709677419,1.43548387096774,1.42258064516129,1.41935483870968,1.39354838709677,1.39354838709677,1.39032258064516,1.39354838709677,1.39032258064516,1.37741935483871,1.37096774193548,1.3741935483871,1.38064516129032,1.37096774193548,1.3741935483871,1.37741935483871,1.3741935483871,1.36451612903226,1.37096774193548,1.3741935483871,1.38387096774194,1.38387096774194,1.38709677419355,1.37741935483871,1.38387096774194,1.38387096774194,1.39032258064516,1.39032258064516,1.37741935483871,1.37096774193548,1.37741935483871,1.36774193548387,1.37741935483871,1.36451612903226,1.36451612903226,1.35806451612903,1.36774193548387,1.36451612903226,1.37096774193548,1.35806451612903,1.36774193548387,1.36129032258065,1.36129032258065,1.34838709677419,1.35161290322581,1.35806451612903,1.35806451612903,1.36774193548387,1.35806451612903,1.36129032258065,1.37096774193548,1.36451612903226,1.36451612903226,1.35806451612903,1.36451612903226,1.36774193548387,1.36451612903226,1.36451612903226,1.37096774193548,1.3741935483871,1.37096774193548,1.38387096774194,1.41290322580645,1.42903225806452,1.41935483870968,1.43225806451613,1.4258064516129,1.43548387096774,1.41290322580645,1.38709677419355,1.38064516129032,1.36774193548387,1.37096774193548,1.36774193548387,1.36451612903226,1.36451612903226,1.36129032258065,1.36451612903226,1.3741935483871,1.37741935483871,1.37096774193548,1.3741935483871,1.35483870967742,1.36451612903226,1.45806451612903,1.7,2.0258064516129,2.23548387096774,1.89354838709677,1.48387096774194,1.35161290322581,1.33870967741935,1.37096774193548,1.38064516129032,1.36774193548387,1.36774193548387,1.37096774193548,1.36451612903226,1.36129032258065,1.36451612903226,1.36774193548387,1.36451612903226,1.36451612903226,1.36451612903226,1.36451612903226,1.36129032258065,1.35483870967742,1.35806451612903,1.35806451612903,1.36451612903226,1.36451612903226,1.37096774193548,1.36774193548387,1.37741935483871,1.3741935483871,1.37096774193548,1.37096774193548,1.3741935483871,1.38064516129032,1.39354838709677,1.40967741935484,1.4258064516129,1.43870967741935,1.45161290322581,1.45806451612903,1.45483870967742,1.44516129032258,1.4258064516129,1.41290322580645,1.4,1.39677419354839,1.39354838709677,1.38709677419355,1.39032258064516,1.38387096774194,1.37741935483871,1.36774193548387,1.37741935483871,1.3741935483871,1.36451612903226,1.36774193548387,1.3741935483871,1.37741935483871,1.3741935483871,1.37741935483871,1.38387096774194,1.38064516129032,1.37741935483871,1.38709677419355,1.38387096774194,1.38709677419355,1.38387096774194,1.39032258064516,1.38709677419355,1.38387096774194,1.38064516129032,1.37741935483871,1.37096774193548,1.37741935483871,1.38064516129032,1.38387096774194,1.38064516129032,1.37741935483871,1.37741935483871,1.3741935483871,1.38387096774194,1.38387096774194,1.38064516129032,1.38387096774194,1.38709677419355,1.37741935483871,1.37741935483871,1.38064516129032,1.37741935483871,1.37741935483871,1.38387096774194,1.38064516129032,1.38387096774194,1.38387096774194,1.38387096774194,1.38709677419355,1.39032258064516,1.38709677419355,1.39354838709677,1.39032258064516,1.39354838709677,1.4,1.40322580645161,1.40645161290323,1.41612903225806,1.42903225806452,1.44516129032258,1.44516129032258,1.45161290322581,1.44193548387097,1.43870967741935,1.42903225806452,1.40322580645161,1.39032258064516,1.37096774193548,1.37096774193548,1.3741935483871,1.36774193548387,1.36451612903226,1.36774193548387,1.35483870967742,1.36451612903226,1.36774193548387,1.36451612903226,1.36774193548387,1.34516129032258,1.34516129032258,1.4258064516129,1.64516129032258,1.96129032258065,2.28387096774194,2.13870967741935,1.60322580645161,1.41612903225806,1.34193548387097,1.35483870967742,1.36774193548387,1.35161290322581,1.34516129032258,1.33548387096774,1.34516129032258,1.34193548387097,1.35161290322581,1.34838709677419,1.35483870967742,1.35161290322581,1.34838709677419,1.35161290322581,1.34838709677419,1.34193548387097,1.34838709677419,1.35161290322581,1.35483870967742,1.35483870967742,1.34838709677419,1.35483870967742,1.34838709677419,1.35161290322581,1.35161290322581,1.35806451612903,1.36774193548387,1.37096774193548,1.38709677419355,1.4,1.41935483870968,1.43548387096774,1.43548387096774,1.44838709677419,1.45483870967742,1.44838709677419,1.43870967741935,1.42258064516129,1.40967741935484,1.39677419354839,1.39354838709677,1.38709677419355,1.39032258064516,1.38709677419355,1.38064516129032,1.37741935483871,1.38064516129032,1.37741935483871,1.38064516129032,1.37741935483871,1.37096774193548,1.3741935483871,1.37741935483871,1.37096774193548,1.3741935483871,1.3741935483871,1.37741935483871,1.3741935483871,1.38064516129032,1.3741935483871,1.37096774193548,1.3741935483871,1.36774193548387,1.36774193548387,1.36451612903226,1.36129032258065,1.35806451612903,1.35161290322581,1.35806451612903,1.35483870967742,1.34838709677419,1.35483870967742,1.35161290322581,1.35161290322581,1.35161290322581,1.34516129032258,1.35161290322581,1.34516129032258,1.34838709677419,1.34516129032258,1.34516129032258,1.34838709677419,1.34838709677419,1.34838709677419,1.34838709677419,1.34838709677419,1.34838709677419,1.35161290322581,1.35161290322581,1.36451612903226,1.35806451612903,1.36129032258065,1.36129032258065,1.36774193548387,1.3741935483871,1.3741935483871,1.37741935483871,1.38387096774194,1.39354838709677,1.42903225806452,1.43870967741935,1.43548387096774,1.43870967741935,1.44193548387097,1.44193548387097,1.42258064516129,1.4,1.38709677419355,1.37741935483871,1.38064516129032,1.38064516129032,1.38064516129032,1.37741935483871,1.37741935483871,1.3741935483871,1.37741935483871,1.38064516129032,1.38064516129032,1.37096774193548,1.34516129032258,1.35806451612903,1.44838709677419,1.69677419354839,2.04838709677419,2.3258064516129,2.03225806451613,1.54516129032258,1.38064516129032,1.33548387096774,1.36129032258065,1.3741935483871,1.36129032258065,1.36129032258065,1.36774193548387,1.35806451612903,1.36129032258065,1.37096774193548,1.37096774193548,1.3741935483871,1.3741935483871,1.3741935483871,1.38387096774194,1.38387096774194,1.37741935483871,1.38387096774194,1.39354838709677,1.39677419354839,1.38387096774194,1.38064516129032,1.38064516129032,1.37741935483871,1.37741935483871,1.38387096774194,1.38709677419355,1.39032258064516,1.40967741935484,1.43225806451613,1.4258064516129,1.44516129032258,1.45806451612903,1.46774193548387,1.47096774193548,1.47741935483871,1.47096774193548,1.45483870967742,1.44516129032258,1.42903225806452,1.41612903225806,1.40645161290323,1.39677419354839,1.39354838709677,1.39032258064516,1.39354838709677,1.40322580645161,1.39354838709677,1.38064516129032,1.3741935483871,1.36774193548387,1.3741935483871,1.3741935483871,1.38064516129032,1.37741935483871,1.38709677419355,1.39354838709677,1.39032258064516,1.38709677419355,1.38709677419355,1.38387096774194,1.38709677419355,1.38387096774194,1.38064516129032,1.38387096774194,1.38064516129032,1.37741935483871,1.37096774193548,1.36129032258065,1.36451612903226,1.35161290322581,1.34838709677419,1.35161290322581,1.35161290322581,1.35806451612903,1.35806451612903,1.35806451612903,1.35161290322581,1.34838709677419,1.34516129032258,1.34193548387097,1.34193548387097,1.34838709677419,1.34516129032258,1.35483870967742,1.35161290322581,1.36129032258065,1.36451612903226,1.36129032258065,1.36129032258065,1.36451612903226,1.35483870967742,1.37096774193548,1.36129032258065,1.36129032258065,1.36129032258065,1.35806451612903,1.35806451612903,1.3741935483871,1.40645161290323,1.40967741935484,1.40645161290323,1.40967741935484,1.40967741935484,1.41612903225806,1.39677419354839,1.38064516129032,1.36451612903226,1.36451612903226,1.35806451612903,1.35161290322581,1.35161290322581,1.34838709677419,1.34838709677419,1.34838709677419,1.34516129032258,1.34838709677419,1.35161290322581,1.34838709677419,1.33548387096774,1.36774193548387,1.47096774193548,1.7258064516129,2.07096774193548,2.25483870967742,1.86451612903226,1.48064516129032,1.34838709677419,1.32903225806452,1.36451612903226,1.36774193548387,1.35161290322581,1.36451612903226,1.36129032258065,1.36451612903226,1.36129032258065,1.36451612903226,1.37096774193548,1.36451612903226,1.37096774193548,1.36129032258065,1.36774193548387,1.36451612903226,1.36451612903226,1.36774193548387,1.3741935483871,1.37096774193548,1.3741935483871,1.37096774193548,1.37096774193548,1.37741935483871,1.38387096774194,1.39354838709677,1.4,1.40967741935484,1.40967741935484,1.4258064516129,1.43225806451613,1.44193548387097,1.45806451612903,1.46774193548387,1.46774193548387,1.46774193548387,1.45161290322581,1.43870967741935,1.42258064516129,1.41612903225806,1.40645161290323,1.4,1.39354838709677,1.39354838709677,1.38709677419355,1.39032258064516,1.38387096774194,1.38064516129032,1.3741935483871,1.37741935483871,1.37741935483871,1.37096774193548,1.3741935483871,1.38064516129032,1.38387096774194,1.38064516129032,1.3741935483871,1.37096774193548,1.37741935483871,1.3741935483871,1.38064516129032,1.37741935483871,1.37741935483871,1.38064516129032,1.38387096774194,1.39032258064516,1.39354838709677,1.39354838709677,1.38709677419355,1.38709677419355,1.39032258064516,1.38709677419355,1.38387096774194,1.3741935483871,1.3741935483871,1.37741935483871,1.38387096774194,1.38064516129032,1.37741935483871,1.37096774193548,1.37741935483871,1.3741935483871,1.37096774193548,1.36774193548387,1.36774193548387,1.37096774193548,1.3741935483871,1.3741935483871,1.3741935483871,1.37096774193548,1.37096774193548,1.36774193548387,1.36451612903226,1.35806451612903,1.35806451612903,1.35483870967742,1.36774193548387,1.35483870967742,1.36774193548387,1.39032258064516,1.41612903225806,1.42258064516129,1.42258064516129,1.42903225806452,1.41935483870968,1.42903225806452,1.39677419354839,1.38387096774194,1.36774193548387,1.36129032258065,1.35483870967742,1.35161290322581,1.34838709677419,1.34516129032258,1.34193548387097,1.34193548387097,1.34516129032258,1.34838709677419,1.35806451612903,1.34838709677419,1.33225806451613,1.36451612903226,1.49354838709677,1.78387096774194,2.13225806451613,2.29677419354839,1.81935483870968,1.51290322580645,1.36774193548387,1.35806451612903,1.38709677419355,1.38064516129032,1.37741935483871,1.3741935483871,1.3741935483871,1.38387096774194,1.38387096774194,1.38709677419355,1.38387096774194,1.38064516129032,1.37741935483871,1.38709677419355,1.38387096774194,1.38387096774194,1.38709677419355,1.38064516129032,1.37741935483871,1.37096774193548,1.37096774193548,1.37096774193548,1.3741935483871,1.37741935483871,1.3741935483871,1.37741935483871,1.3741935483871,1.38064516129032,1.38709677419355,1.40322580645161,1.41612903225806,1.4258064516129,1.43548387096774,1.45161290322581,1.45161290322581,1.44838709677419,1.44193548387097,1.43225806451613,1.41290322580645,1.4,1.38387096774194,1.37741935483871,1.36774193548387,1.36451612903226,1.36451612903226,1.36774193548387,1.36129032258065,1.36451612903226,1.37096774193548,1.36451612903226,1.36451612903226,1.36774193548387,1.37096774193548,1.36451612903226,1.36451612903226,1.36774193548387,1.36129032258065,1.36451612903226,1.36129032258065,1.36451612903226,1.36451612903226,1.36774193548387,1.36451612903226,1.36451612903226,1.37096774193548,1.36774193548387,1.37096774193548,1.37741935483871,1.37741935483871,1.37741935483871,1.37741935483871,1.38387096774194,1.38709677419355,1.38387096774194,1.38709677419355,1.38387096774194,1.39032258064516,1.39032258064516,1.38709677419355,1.38709677419355,1.38709677419355,1.38064516129032,1.39032258064516,1.38064516129032,1.37741935483871,1.38064516129032,1.37741935483871,1.37096774193548,1.37096774193548,1.36774193548387,1.37096774193548,1.37096774193548,1.37096774193548,1.35806451612903,1.36129032258065,1.3741935483871,1.38064516129032,1.39354838709677,1.39032258064516,1.39677419354839,1.42258064516129,1.44193548387097,1.43225806451613,1.43548387096774,1.44193548387097,1.43225806451613,1.42258064516129,1.39354838709677,1.37741935483871,1.36129032258065,1.34838709677419,1.34838709677419,1.34838709677419,1.34838709677419,1.34838709677419,1.34838709677419,1.35806451612903,1.35806451612903,1.35483870967742,1.35806451612903,1.34838709677419,1.3258064516129,1.36774193548387,1.53225806451613,1.84516129032258,2.22258064516129,2.29354838709677,1.70645161290323,1.45806451612903,1.34193548387097,1.34193548387097,1.36774193548387,1.35161290322581,1.34838709677419,1.35806451612903,1.34838709677419,1.34516129032258,1.34193548387097,1.33870967741935,1.34838709677419,1.34838709677419,1.35483870967742,1.36129032258065,1.35483870967742,1.34516129032258,1.35483870967742,1.35483870967742,1.35483870967742,1.35806451612903,1.35806451612903,1.35161290322581,1.36129032258065,1.36129032258065,1.36451612903226,1.36451612903226,1.36774193548387,1.37096774193548,1.38064516129032,1.38709677419355,1.40322580645161,1.41935483870968,1.43870967741935,1.44838709677419,1.44193548387097,1.43225806451613,1.43225806451613,1.40645161290323,1.4,1.39032258064516,1.38709677419355,1.38387096774194,1.38709677419355,1.38387096774194,1.38709677419355,1.38387096774194,1.38387096774194,1.38709677419355,1.38709677419355,1.39032258064516,1.38709677419355,1.39354838709677,1.39354838709677,1.40322580645161,1.40967741935484,1.40967741935484,1.40967741935484,1.40645161290323,1.41290322580645,1.40322580645161,1.41290322580645,1.40967741935484,1.4,1.40322580645161,1.39677419354839,1.38387096774194,1.38387096774194,1.38709677419355,1.38387096774194,1.39032258064516,1.39354838709677,1.39354838709677,1.39354838709677,1.38709677419355,1.4,1.40322580645161,1.4,1.4,1.40645161290323,1.40322580645161,1.4,1.40645161290323,1.39354838709677,1.39354838709677,1.39354838709677,1.39354838709677,1.39354838709677,1.39354838709677,1.38709677419355,1.38387096774194,1.38709677419355,1.38064516129032,1.37741935483871,1.38387096774194,1.39354838709677,1.4,1.39677419354839,1.40322580645161,1.42903225806452,1.45161290322581,1.45161290322581,1.45806451612903,1.45483870967742,1.45483870967742,1.44193548387097,1.41290322580645,1.4,1.39032258064516,1.38387096774194,1.38709677419355,1.38387096774194,1.39032258064516,1.38709677419355,1.39032258064516,1.39032258064516,1.38709677419355
