1.38251953125,1.38251953125,1.3857421875,1.38896484375,1.3857421875,1.38896484375,1.3857421875,1.38896484375,1.38896484375,1.3857421875,1.38251953125,1.379296875,1.38896484375,1.38251953125,1.379296875,1.38251953125,1.38251953125,1.37607421875,1.379296875,1.379296875,1.37607421875,1.379296875,1.379296875,1.38251953125,1.379296875,1.379296875,1.3857421875,1.38251953125,1.379296875,1.379296875,1.379296875,1.379296875,1.379296875,1.379296875,1.3728515625,1.38251953125,1.38896484375,1.38251953125,1.379296875,1.379296875,1.38896484375,1.40185546875,1.4115234375,1.40830078125,1.41474609375,1.43408203125,1.44052734375,1.42119140625,1.38251953125,1.3728515625,1.37607421875,1.3728515625,1.36640625,1.36318359375,1.353515625,1.36318359375,1.36962890625,1.36318359375,1.36640625,1.36962890625,1.36640625,1.3728515625,1.3728515625,1.379296875,1.35673828125,1.340625,1.44375,1.7080078125,2.01416015625,2.075390625,1.9013671875,1.585546875,1.456640625,1.41474609375,1.3857421875,1.3728515625,1.36962890625,1.3599609375,1.3599609375,1.353515625,1.35673828125,1.353515625,1.35029296875,1.35029296875,1.340625,1.34384765625,1.34384765625,1.3470703125,1.3470703125,1.3470703125,1.34384765625,1.35029296875,1.35029296875,1.35673828125,1.36318359375,1.36962890625,1.36640625,1.379296875,1.38896484375,1.3921875,1.3986328125,1.40830078125,1.40830078125,1.4115234375,1.42119140625,1.42763671875,1.41796875,1.41474609375,1.40830078125,1.3921875,1.38896484375,1.38251953125,1.379296875,1.38251953125,1.38251953125,1.38251953125,1.37607421875,1.379296875,1.38251953125,1.38251953125,1.379296875,1.38896484375,1.38251953125,1.38251953125,1.3857421875,1.3857421875,1.38251953125,1.379296875,1.379296875,1.38251953125,1.38251953125,1.379296875,1.38251953125,1.38251953125,1.38251953125,1.379296875,1.38251953125,1.379296875,1.37607421875,1.3857421875,1.38251953125,1.37607421875,1.379296875,1.38251953125,1.379296875,1.38251953125,1.379296875,1.379296875,1.3857421875,1.379296875,1.36962890625,1.3728515625,1.36962890625,1.38251953125,1.379296875,1.38251953125,1.3728515625,1.38251953125,1.37607421875,1.379296875,1.3857421875,1.37607421875,1.38251953125,1.38251953125,1.38251953125,1.3921875,1.38896484375,1.38896484375,1.38896484375,1.41474609375,1.40185546875,1.405078125,1.405078125,1.42763671875,1.43408203125,1.4244140625,1.38896484375,1.37607421875,1.37607421875,1.37607421875,1.379296875,1.3728515625,1.37607421875,1.379296875,1.36318359375,1.3728515625,1.37607421875,1.36640625,1.36640625,1.379296875,1.37607421875,1.38251953125,1.36640625,1.33740234375,1.430859375,1.67900390625,1.98837890625,2.075390625,1.9142578125,1.5919921875,1.4501953125,1.4115234375,1.39541015625,1.37607421875,1.38251953125,1.36962890625,1.3599609375,1.353515625,1.35673828125,1.3599609375,1.35673828125,1.3470703125,1.340625,1.34384765625,1.353515625,1.35029296875,1.35673828125,1.35029296875,1.35029296875,1.35029296875,1.35673828125,1.3599609375,1.36962890625,1.36318359375,1.379296875,1.38251953125,1.3921875,1.3857421875,1.3986328125,1.4115234375,1.41474609375,1.41796875,1.41474609375,1.43408203125,1.4244140625,1.41474609375,1.40185546875,1.40185546875,1.3921875,1.38251953125,1.3857421875,1.38896484375,1.3921875,1.3728515625,1.36962890625,1.379296875,1.38251953125,1.3857421875,1.3728515625,1.38251953125,1.37607421875,1.38251953125,1.3857421875,1.3857421875,1.379296875,1.379296875,1.38251953125,1.3857421875,1.38896484375,1.379296875,1.379296875,1.3857421875,1.38251953125,1.37607421875,1.37607421875,1.3857421875,1.38251953125,1.379296875,1.38251953125,1.379296875,1.3857421875,1.3728515625,1.37607421875,1.379296875,1.38251953125,1.38251953125,1.38251953125,1.3728515625,1.379296875,1.3728515625,1.37607421875,1.379296875,1.38896484375,1.38251953125,1.3728515625,1.37607421875,1.37607421875,1.379296875,1.38251953125,1.379296875,1.3857421875,1.3857421875,1.38251953125,1.38896484375,1.38896484375,1.3921875,1.39541015625,1.40830078125,1.4115234375,1.4115234375,1.41796875,1.42763671875,1.41474609375,1.379296875,1.37607421875,1.36962890625,1.37607421875,1.36962890625,1.36640625,1.3728515625,1.3728515625,1.3728515625,1.379296875,1.36640625,1.3728515625,1.379296875,1.3728515625,1.38251953125,1.38251953125,1.3728515625,1.34384765625,1.40830078125,1.6177734375,1.9078125,2.023828125,1.88203125,1.59521484375,1.4373046875,1.41474609375,1.39541015625,1.38251953125,1.3728515625,1.36640625,1.3599609375,1.3599609375,1.3599609375,1.36640625,1.35673828125,1.3599609375,1.36318359375,1.353515625,1.3599609375,1.36318359375,1.3599609375,1.35673828125,1.3599609375,1.36640625,1.3599609375,1.36640625,1.37607421875,1.36962890625,1.37607421875,1.379296875,1.3921875,1.39541015625,1.3986328125,1.3986328125,1.40830078125,1.40830078125,1.4115234375,1.41796875,1.4115234375,1.41796875,1.40830078125,1.3986328125,1.3986328125,1.3986328125,1.38251953125,1.3857421875,1.3857421875,1.379296875,1.379296875,1.37607421875,1.3857421875,1.38251953125,1.379296875,1.3857421875,1.38251953125,1.3857421875,1.38251953125,1.38896484375,1.3857421875,1.3857421875,1.3857421875,1.38251953125,1.38896484375,1.38896484375,1.38896484375,1.3857421875,1.38251953125,1.38896484375,1.38251953125,1.3857421875,1.3857421875,1.38896484375,1.379296875,1.3857421875,1.3857421875,1.38251953125,1.3857421875,1.38251953125,1.3857421875,1.38251953125,1.38251953125,1.379296875,1.37607421875,1.37607421875,1.37607421875,1.3857421875,1.37607421875,1.37607421875,1.37607421875,1.379296875,1.379296875,1.38251953125,1.38251953125,1.379296875,1.379296875,1.379296875,1.3857421875,1.38251953125,1.340625,1.3599609375,1.4953125,1.67900390625,1.83369140625,1.740234375,1.559765625,1.3986328125,1.30517578125,1.2955078125,1.34384765625,1.35029296875,1.36318359375,1.36318359375,1.36318359375,1.36640625,1.36318359375,1.36318359375,1.36640625,1.36640625,1.36640625,1.3599609375,1.36318359375,1.3728515625,1.36962890625,1.37607421875,1.379296875,1.38896484375,1.39541015625,1.3986328125,1.405078125,1.41474609375,1.4244140625,1.430859375,1.44375,1.4501953125,1.45341796875,1.4759765625,1.48564453125,1.48564453125,1.482421875,1.47275390625,1.46630859375,1.4501953125,1.4373046875,1.42763671875,1.4115234375,1.40185546875,1.39541015625,1.3986328125,1.3921875,1.3857421875,1.38896484375,1.3921875,1.38896484375,1.3986328125,1.38896484375,1.3857421875,1.3921875,1.3921875,1.39541015625,1.3921875,1.3921875,1.3921875,1.39541015625,1.3921875,1.38896484375,1.3921875,1.3921875,1.38896484375,1.38896484375,1.3857421875,1.3857421875,1.3857421875,1.3857421875,1.38251953125,1.3857421875,1.379296875,1.3857421875,1.379296875,1.3728515625,1.38251953125,1.37607421875,1.379296875,1.379296875,1.3857421875,1.379296875,1.379296875,1.3857421875,1.379296875,1.38251953125,1.379296875,1.38251953125,1.38251953125,1.379296875,1.38251953125,1.38251953125,1.37607421875,1.379296875,1.37607421875,1.379296875,1.379296875,1.37607421875,1.38251953125,1.3728515625,1.3857421875,1.379296875,1.38251953125,1.38251953125,1.379296875,1.379296875,1.38251953125,1.379296875,1.379296875,1.38251953125,1.37607421875,1.38251953125,1.379296875,1.38251953125,1.3857421875,1.379296875,1.379296875,1.379296875,1.38251953125,1.38251953125,1.38251953125,1.3857421875,1.3857421875,1.3857421875,1.38896484375,1.39541015625,1.3857421875,1.3986328125,1.4115234375,1.40185546875,1.40830078125,1.41474609375,1.4244140625,1.43408203125,1.4244140625,1.3921875,1.3728515625,1.3728515625,1.379296875,1.3728515625,1.36318359375,1.3728515625,1.36640625,1.36962890625,1.3728515625,1.3728515625,1.3728515625,1.36962890625,1.3728515625,1.3599609375,1.340625,1.45341796875,1.73701171875,2.03994140625,2.07216796875,1.88203125,1.56298828125,1.45341796875,1.41474609375,1.3921875,1.379296875,1.36962890625,1.36318359375,1.353515625,1.35029296875,1.353515625,1.35029296875,1.35673828125,1.35673828125,1.3470703125,1.35029296875,1.35029296875,1.3470703125,1.34384765625,1.340625,1.35673828125,1.36318359375,1.35673828125,1.3599609375,1.36318359375,1.36962890625,1.379296875,1.37607421875,1.3857421875,1.39541015625,1.3857421875,1.3921875,1.40830078125,1.41474609375,1.4244140625,1.4244140625,1.42119140625,1.4244140625,1.41474609375,1.4115234375,1.3986328125,1.3986328125,1.3921875,1.3857421875,1.38896484375,1.38896484375,1.39541015625,1.38251953125,1.38251953125,1.37607421875,1.379296875,1.39541015625,1.37607421875,1.379296875,1.38896484375,1.3857421875,1.38251953125,1.3857421875,1.379296875,1.38896484375,1.3857421875,1.3857421875,1.39541015625,1.40185546875,1.379296875,1.38896484375,1.40185546875,1.36962890625,1.379296875,1.3857421875,1.38251953125,1.3857421875,1.38896484375,1.3728515625,1.3857421875,1.379296875,1.379296875,1.37607421875,1.38251953125,1.38251953125,1.3728515625,1.38251953125,1.37607421875,1.3728515625,1.36962890625,1.37607421875,1.37607421875,1.3728515625,1.3728515625,1.37607421875,1.37607421875,1.3728515625,1.3857421875,1.379296875,1.38251953125,1.379296875,1.38251953125,1.379296875,1.405078125,1.3986328125,1.39541015625,1.40830078125,1.40830078125,1.41796875,1.42119140625,1.41474609375,1.379296875,1.36640625,1.3728515625,1.3728515625,1.36640625,1.36318359375,1.36640625,1.36318359375,1.36640625,1.37607421875,1.37607421875,1.36640625,1.36640625,1.379296875,1.3728515625,1.36640625,1.36962890625,1.34384765625,1.353515625,1.482421875,1.78212890625,2.02060546875,1.98837890625,1.73701171875,1.47275390625,1.4244140625,1.40830078125,1.38251953125,1.36962890625,1.3728515625,1.36318359375,1.38251953125,1.3728515625,1.35673828125,1.3599609375,1.353515625,1.35029296875,1.3599609375,1.35029296875,1.353515625,1.35673828125,1.353515625,1.35673828125,1.3599609375,1.36318359375,1.37607421875,1.3728515625,1.38251953125,1.37607421875,1.379296875,1.38251953125,1.38896484375,1.38896484375,1.39541015625,1.40185546875,1.405078125,1.41474609375,1.41796875,1.4115234375,1.41796875,1.42119140625,1.40830078125,1.3986328125,1.39541015625,1.3921875,1.3857421875,1.3921875,1.38896484375,1.3857421875,1.37607421875,1.37607421875,1.379296875,1.38251953125,1.38251953125,1.38251953125,1.38251953125,1.3921875,1.3857421875,1.38896484375,1.38896484375,1.3857421875,1.3921875,1.38896484375,1.38896484375,1.38896484375,1.39541015625,1.39541015625,1.39541015625,1.3857421875,1.38251953125,1.38251953125,1.38251953125,1.38251953125,1.38251953125,1.3857421875,1.3857421875,1.379296875,1.3857421875,1.379296875,1.38251953125,1.38896484375,1.3857421875,1.38251953125,1.38251953125,1.38251953125,1.38251953125,1.37607421875,1.37607421875,1.38251953125,1.3728515625,1.37607421875,1.3857421875,1.38251953125,1.3857421875,1.3857421875,1.37607421875,1.3857421875,1.38896484375,1.3921875,1.405078125,1.4115234375,1.405078125,1.40830078125,1.41474609375,1.41796875,1.42119140625,1.40185546875,1.3728515625,1.36962890625,1.36962890625,1.3728515625,1.36962890625,1.3728515625,1.3599609375,1.3728515625,1.36962890625,1.3728515625,1.3728515625,1.36962890625,1.37607421875,1.379296875,1.3728515625,1.379296875,1.3470703125,1.3470703125,1.482421875,1.75634765625,2.0173828125,2.00771484375,1.77890625,1.508203125,1.43408203125,1.40830078125,1.3986328125,1.38251953125,1.36962890625,1.36318359375,1.36318359375,1.35673828125,1.36640625,1.3599609375,1.36318359375,1.35673828125,1.353515625,1.35673828125,1.353515625,1.353515625,1.353515625,1.35029296875,1.353515625,1.3599609375,1.36318359375,1.36962890625,1.3728515625,1.3728515625,1.379296875,1.3921875,1.38896484375,1.3921875,1.38896484375,1.4115234375,1.3986328125,1.41474609375,1.41474609375,1.40830078125,1.4115234375,1.41796875,1.405078125,1.40185546875,1.39541015625,1.3921875,1.38896484375,1.38251953125,1.38251953125,1.379296875,1.38896484375,1.38251953125,1.38251953125,1.38251953125,1.38896484375,1.3857421875,1.37607421875,1.38251953125,1.38251953125,1.38251953125,1.38251953125,1.3921875,1.38896484375,1.38896484375,1.38251953125,1.3921875,1.38896484375,1.3857421875,1.3857421875,1.3857421875,1.3857421875,1.38896484375,1.379296875,1.3857421875,1.379296875,1.37607421875,1.3728515625,1.37607421875,1.37607421875,1.379296875,1.379296875,1.379296875,1.379296875,1.379296875,1.38251953125,1.37607421875,1.379296875,1.379296875,1.38251953125,1.37607421875,1.38251953125,1.38251953125,1.37607421875,1.37607421875,1.38251953125,1.36962890625,1.379296875,1.379296875,1.38251953125,1.379296875,1.3857421875,1.3857421875,1.38896484375,1.40185546875,1.405078125,1.40830078125,1.4115234375,1.41796875,1.41796875,1.42763671875,1.40185546875,1.36962890625,1.36640625,1.37607421875,1.37607421875,1.36962890625,1.36640625,1.36962890625,1.36962890625,1.36962890625,1.36640625,1.36962890625,1.3728515625,1.36962890625,1.3728515625,1.38251953125,1.3599609375,1.33740234375,1.44052734375,1.71767578125,2.02060546875,2.0818359375,1.89814453125,1.5791015625,1.45986328125,1.41474609375,1.3921875,1.379296875,1.3728515625,1.36318359375,1.3599609375,1.3599609375,1.36318359375,1.353515625,1.35673828125,1.35029296875,1.35029296875,1.3470703125,1.353515625,1.34384765625,1.3470703125,1.3470703125,1.353515625,1.35029296875,1.3599609375,1.36318359375,1.35673828125,1.36640625,1.3728515625,1.3728515625,1.3857421875,1.3921875,1.39541015625,1.40185546875,1.4115234375,1.4115234375,1.41796875,1.41474609375,1.41796875,1.40830078125,1.405078125,1.39541015625,1.39541015625,1.38896484375,1.38896484375,1.3857421875,1.38251953125,1.37607421875,1.379296875,1.38251953125,1.37607421875,1.38251953125,1.38251953125,1.379296875,1.37607421875,1.37607421875,1.379296875,1.38896484375,1.38251953125,1.38896484375,1.38896484375,1.38896484375,1.38251953125,1.379296875,1.379296875,1.379296875,1.3857421875,1.37607421875,1.38251953125,1.37607421875,1.3728515625,1.3728515625,1.3728515625,1.3728515625,1.3728515625,1.3728515625,1.36962890625,1.3728515625,1.37607421875,1.36962890625,1.37607421875,1.37607421875,1.3728515625,1.37607421875,1.37607421875,1.37607421875,1.3728515625,1.37607421875,1.36962890625,1.37607421875,1.36640625,1.3728515625,1.36962890625,1.37607421875,1.37607421875,1.379296875,1.379296875,1.379296875,1.38251953125,1.3857421875,1.379296875,1.39541015625,1.40830078125,1.40830078125,1.40185546875,1.40830078125,1.4244140625,1.43408203125,1.41796875,1.379296875,1.36962890625,1.3728515625,1.3728515625,1.37607421875,1.36962890625,1.36962890625,1.36318359375,1.36640625,1.36640625,1.36962890625,1.3728515625,1.3728515625,1.379296875,1.37607421875,1.35673828125,1.35029296875,1.47275390625,1.7853515625,2.07861328125,2.0689453125,1.84658203125,1.52431640625,1.44375,1.430859375,1.3986328125,1.38251953125,1.3728515625,1.36962890625,1.35673828125,1.36640625,1.353515625,1.3599609375,1.35029296875,1.35673828125,1.3599609375,1.3599609375,1.35673828125,1.353515625,1.35029296875,1.353515625,1.36318359375,1.36640625,1.36640625,1.36962890625,1.37607421875,1.36962890625,1.379296875,1.40830078125,1.3921875,1.38896484375,1.39541015625,1.40830078125,1.42119140625,1.4244140625,1.43408203125,1.4244140625,1.42119140625,1.41796875,1.40830078125,1.40830078125,1.3921875,1.3921875,1.405078125,1.39541015625,1.37607421875,1.38896484375,1.3921875,1.3857421875,1.38896484375,1.379296875,1.38251953125,1.38896484375,1.38251953125,1.39541015625,1.39541015625,1.39541015625,1.3986328125,1.379296875,1.3986328125,1.38896484375,1.38896484375,1.39541015625,1.3921875,1.3857421875,1.38251953125,1.38896484375,1.3857421875,1.379296875,1.3857421875,1.38896484375,1.38251953125,1.379296875,1.38896484375,1.38896484375,1.379296875,1.37607421875,1.36962890625,1.37607421875,1.3857421875,1.37607421875,1.36640625,1.37607421875,1.37607421875,1.37607421875,1.3728515625,1.3728515625,1.3728515625,1.38251953125,1.3728515625,1.36318359375,1.36640625,1.36640625,1.3728515625,1.3728515625,1.37607421875,1.379296875,1.38251953125,1.38251953125,1.3857421875,1.3921875,1.39541015625,1.405078125,1.3986328125,1.40830078125,1.41474609375,1.42119140625,1.3857421875,1.353515625,1.36318359375,1.35673828125,1.36962890625,1.36962890625,1.35673828125,1.35029296875,1.36318359375,1.353515625,1.353515625,1.36640625,1.36640625,1.3599609375,1.36962890625,1.36962890625,1.35029296875,1.33095703125,1.405078125,1.65,1.9529296875,2.0109375,1.85625,1.54365234375,1.4115234375,1.3857421875,1.38251953125,1.37607421875,1.36962890625,1.3599609375,1.353515625,1.3599609375,1.35673828125,1.35029296875,1.35029296875,1.35673828125,1.353515625,1.353515625,1.353515625,1.35029296875,1.35029296875,1.36318359375,1.36318359375,1.3599609375,1.36318359375,1.36962890625,1.379296875,1.37607421875,1.38251953125,1.3921875,1.40185546875,1.405078125
1.38896484375,1.38251953125,1.39541015625,1.3857421875,1.38896484375,1.38896484375,1.3986328125,1.38251953125,1.3986328125,1.3921875,1.3921875,1.36962890625,1.38251953125,1.38251953125,1.37607421875,1.37607421875,1.3728515625,1.37607421875,1.37607421875,1.38251953125,1.379296875,1.37607421875,1.37607421875,1.37607421875,1.379296875,1.36318359375,1.37607421875,1.36640625,1.36962890625,1.3857421875,1.379296875,1.3857421875,1.37607421875,1.3728515625,1.38251953125,1.38896484375,1.379296875,1.405078125,1.39541015625,1.405078125,1.39541015625,1.40830078125,1.4115234375,1.42763671875,1.3986328125,1.38251953125,1.36318359375,1.36640625,1.36318359375,1.3728515625,1.37607421875,1.36640625,1.3728515625,1.36318359375,1.3599609375,1.3599609375,1.3728515625,1.3728515625,1.3728515625,1.379296875,1.3599609375,1.35673828125,1.45986328125,1.74345703125,2.0173828125,2.02060546875,1.7853515625,1.4953125,1.41796875,1.4115234375,1.39541015625,1.37607421875,1.36962890625,1.36640625,1.3599609375,1.353515625,1.353515625,1.36318359375,1.35673828125,1.353515625,1.35673828125,1.35029296875,1.353515625,1.3599609375,1.35673828125,1.35673828125,1.353515625,1.36640625,1.37607421875,1.37607421875,1.36640625,1.37607421875,1.3728515625,1.38251953125,1.3857421875,1.3857421875,1.3921875,1.39541015625,1.405078125,1.405078125,1.405078125,1.405078125,1.40830078125,1.4115234375,1.3986328125,1.39541015625,1.3921875,1.38896484375,1.38896484375,1.3921875,1.3921875,1.3857421875,1.38251953125,1.379296875,1.379296875,1.38251953125,1.3857421875,1.38251953125,1.379296875,1.39541015625,1.379296875,1.37607421875,1.3857421875,1.38251953125,1.38251953125,1.39541015625,1.38896484375,1.38896484375,1.3857421875,1.38896484375,1.38896484375,1.379296875,1.37607421875,1.38251953125,1.38896484375,1.3857421875,1.37607421875,1.37607421875,1.37607421875,1.379296875,1.36962890625,1.36318359375,1.3857421875,1.379296875,1.36962890625,1.379296875,1.379296875,1.38251953125,1.37607421875,1.3728515625,1.3728515625,1.379296875,1.379296875,1.3857421875,1.379296875,1.38896484375,1.3857421875,1.38251953125,1.38896484375,1.3921875,1.405078125,1.39541015625,1.4115234375,1.41796875,1.4244140625,1.43408203125,1.3986328125,1.37607421875,1.36962890625,1.3728515625,1.3728515625,1.3728515625,1.36962890625,1.36640625,1.36640625,1.36640625,1.3728515625,1.36962890625,1.36640625,1.36962890625,1.3728515625,1.36318359375,1.3470703125,1.40830078125,1.62421875,1.920703125,2.0625,1.959375,1.65,1.47275390625,1.41796875,1.3986328125,1.379296875,1.3728515625,1.36640625,1.36640625,1.36962890625,1.3599609375,1.3470703125,1.35029296875,1.353515625,1.353515625,1.353515625,1.3599609375,1.3599609375,1.35029296875,1.353515625,1.353515625,1.35673828125,1.3599609375,1.36640625,1.36640625,1.3728515625,1.37607421875,1.3857421875,1.38251953125,1.379296875,1.3921875,1.379296875,1.4115234375,1.40830078125,1.41796875,1.41474609375,1.41796875,1.4115234375,1.4115234375,1.405078125,1.3986328125,1.38896484375,1.3921875,1.3921875,1.38896484375,1.37607421875,1.38251953125,1.379296875,1.38251953125,1.38251953125,1.36962890625,1.379296875,1.379296875,1.3857421875,1.38251953125,1.38896484375,1.3857421875,1.37607421875,1.38896484375,1.3857421875,1.3857421875,1.3857421875,1.38251953125,1.3857421875,1.3857421875,1.37607421875,1.38251953125,1.38251953125,1.38251953125,1.36962890625,1.38251953125,1.37607421875,1.3728515625,1.3728515625,1.36962890625,1.3728515625,1.37607421875,1.36962890625,1.37607421875,1.37607421875,1.3728515625,1.3728515625,1.3921875,1.379296875,1.36962890625,1.3728515625,1.37607421875,1.3728515625,1.36640625,1.3728515625,1.379296875,1.3728515625,1.38251953125,1.38896484375,1.3857421875,1.37607421875,1.3857421875,1.40185546875,1.4115234375,1.40830078125,1.42119140625,1.4244140625,1.430859375,1.3921875,1.36318359375,1.36962890625,1.36962890625,1.36318359375,1.36962890625,1.36962890625,1.36318359375,1.36640625,1.36318359375,1.36640625,1.3599609375,1.36640625,1.36640625,1.3728515625,1.35029296875,1.33095703125,1.44375,1.7337890625,2.049609375,2.09150390625,1.9142578125,1.58232421875,1.45986328125,1.405078125,1.3986328125,1.36962890625,1.3728515625,1.36640625,1.3599609375,1.353515625,1.35029296875,1.35673828125,1.353515625,1.35029296875,1.35029296875,1.34384765625,1.3470703125,1.34384765625,1.35673828125,1.34384765625,1.353515625,1.340625,1.36640625,1.36640625,1.36962890625,1.37607421875,1.37607421875,1.3857421875,1.38251953125,1.38251953125,1.405078125,1.3986328125,1.40185546875,1.41796875,1.41796875,1.42763671875,1.40830078125,1.4115234375,1.4115234375,1.40185546875,1.3857421875,1.3857421875,1.379296875,1.3921875,1.3728515625,1.38251953125,1.38251953125,1.379296875,1.36962890625,1.3921875,1.38896484375,1.3857421875,1.3857421875,1.38251953125,1.38896484375,1.38896484375,1.379296875,1.38896484375,1.3857421875,1.36962890625,1.3986328125,1.38251953125,1.379296875,1.3921875,1.3857421875,1.379296875,1.37607421875,1.38251953125,1.379296875,1.37607421875,1.38251953125,1.3857421875,1.37607421875,1.38251953125,1.3728515625,1.38251953125,1.38896484375,1.36962890625,1.38251953125,1.3986328125,1.3857421875,1.3857421875,1.3857421875,1.3857421875,1.38251953125,1.37607421875,1.37607421875,1.37607421875,1.37607421875,1.379296875,1.3728515625,1.3857421875,1.38896484375,1.379296875,1.3857421875,1.3986328125,1.38896484375,1.41796875,1.40830078125,1.41474609375,1.4373046875,1.430859375,1.4115234375,1.3728515625,1.3728515625,1.37607421875,1.36640625,1.3728515625,1.3599609375,1.35673828125,1.36962890625,1.36640625,1.36962890625,1.36962890625,1.36640625,1.35673828125,1.38896484375,1.38896484375,1.3470703125,1.353515625,1.4759765625,1.766015625,2.049609375,2.03994140625,1.78857421875,1.5017578125,1.4244140625,1.3986328125,1.3921875,1.379296875,1.36640625,1.353515625,1.35673828125,1.3599609375,1.34384765625,1.3470703125,1.35673828125,1.3470703125,1.35673828125,1.34384765625,1.35029296875,1.36318359375,1.35029296875,1.353515625,1.35673828125,1.36318359375,1.353515625,1.36962890625,1.37607421875,1.3728515625,1.379296875,1.38251953125,1.37607421875,1.405078125,1.3921875,1.38896484375,1.4115234375,1.41796875,1.4115234375,1.40185546875,1.41796875,1.41474609375,1.405078125,1.39541015625,1.3986328125,1.39541015625,1.38896484375,1.38896484375,1.38251953125,1.379296875,1.3921875,1.3599609375,1.379296875,1.38251953125,1.39541015625,1.38251953125,1.38251953125,1.379296875,1.38251953125,1.3857421875,1.38896484375,1.3857421875,1.38896484375,1.38896484375,1.379296875,1.38896484375,1.38896484375,1.3921875,1.38251953125,1.37607421875,1.379296875,1.37607421875,1.3728515625,1.37607421875,1.38251953125,1.38251953125,1.3857421875,1.379296875,1.379296875,1.3921875,1.379296875,1.37607421875,1.3728515625,1.37607421875,1.38251953125,1.38251953125,1.38251953125,1.37607421875,1.379296875,1.3728515625,1.379296875,1.37607421875,1.37607421875,1.3857421875,1.37607421875,1.3857421875,1.3857421875,1.37607421875,1.3921875,1.3986328125,1.41474609375,1.405078125,1.41796875,1.42763671875,1.42763671875,1.3986328125,1.3728515625,1.36962890625,1.36962890625,1.3599609375,1.3728515625,1.379296875,1.3728515625,1.3599609375,1.36640625,1.36962890625,1.36640625,1.38251953125,1.36962890625,1.37607421875,1.3728515625,1.353515625,1.37607421875,1.5533203125,1.84658203125,2.04638671875,1.96904296875,1.688671875,1.4759765625,1.4244140625,1.39541015625,1.379296875,1.379296875,1.35673828125,1.3599609375,1.36318359375,1.3599609375,1.36318359375,1.36640625,1.3599609375,1.35673828125,1.353515625,1.36640625,1.3599609375,1.3599609375,1.3599609375,1.3599609375,1.353515625,1.3728515625,1.36318359375,1.36318359375,1.3728515625,1.38251953125,1.3986328125,1.38896484375,1.39541015625,1.3986328125,1.40185546875,1.41474609375,1.41474609375,1.405078125,1.41796875,1.41796875,1.4244140625,1.41474609375,1.405078125,1.3921875,1.38896484375,1.38896484375,1.3728515625,1.39541015625,1.38251953125,1.38251953125,1.37607421875,1.3857421875,1.37607421875,1.3857421875,1.379296875,1.379296875,1.38896484375,1.3857421875,1.3857421875,1.379296875,1.3921875,1.38251953125,1.379296875,1.37607421875,1.37607421875,1.38251953125,1.379296875,1.3921875,1.36962890625,1.38896484375,1.379296875,1.379296875,1.379296875,1.36962890625,1.37607421875,1.37607421875,1.36962890625,1.379296875,1.37607421875,1.36640625,1.3728515625,1.3857421875,1.37607421875,1.36318359375,1.37607421875,1.3599609375,1.37607421875,1.37607421875,1.36962890625,1.3728515625,1.36962890625,1.36640625,1.379296875,1.37607421875,1.3728515625,1.38896484375,1.379296875,1.38251953125,1.405078125,1.3986328125,1.405078125,1.3986328125,1.4115234375,1.430859375,1.42119140625,1.41796875,1.3728515625,1.36962890625,1.3728515625,1.36640625,1.36962890625,1.36318359375,1.36640625,1.36640625,1.36318359375,1.36318359375,1.36640625,1.36318359375,1.3599609375,1.3728515625,1.36318359375,1.3341796875,1.405078125,1.6177734375,1.93359375,2.0947265625,2.0044921875,1.662890625,1.482421875,1.42119140625,1.405078125,1.38251953125,1.36962890625,1.36640625,1.35029296875,1.353515625,1.35029296875,1.353515625,1.35673828125,1.35029296875,1.340625,1.34384765625,1.3470703125,1.3470703125,1.36640625,1.35029296875,1.3470703125,1.353515625,1.35673828125,1.36640625,1.3599609375,1.36640625,1.37607421875,1.379296875,1.3857421875,1.3921875,1.3986328125,1.40185546875,1.405078125,1.4115234375,1.42119140625,1.41474609375,1.430859375,1.41796875,1.40830078125,1.40830078125,1.3986328125,1.39541015625,1.3921875,1.38896484375,1.379296875,1.379296875,1.38251953125,1.38896484375,1.3728515625,1.38896484375,1.3857421875,1.39541015625,1.38896484375,1.38896484375,1.3921875,1.3986328125,1.3921875,1.3857421875,1.3857421875,1.3921875,1.38251953125,1.3857421875,1.38251953125,1.379296875,1.38251953125,1.38251953125,1.3857421875,1.3857421875,1.379296875,1.379296875,1.3857421875,1.37607421875,1.37607421875,1.3728515625,1.36962890625,1.37607421875,1.38896484375,1.379296875,1.379296875,1.36962890625,1.3728515625,1.37607421875,1.38251953125,1.36962890625,1.36962890625,1.3728515625,1.3728515625,1.36962890625,1.3728515625,1.379296875,1.379296875,1.37607421875,1.36962890625,1.3921875,1.379296875,1.39541015625,1.40830078125,1.40185546875,1.40185546875,1.40830078125,1.41474609375,1.4244140625,1.41796875,1.379296875,1.36318359375,1.36318359375,1.379296875,1.3599609375,1.36962890625,1.3599609375,1.35673828125,1.3599609375,1.3599609375,1.35029296875,1.36962890625,1.36640625,1.36640625,1.36640625,1.3599609375,1.327734375,1.46953125,1.74990234375,2.06572265625,2.0947265625,1.89814453125,1.56298828125,1.44697265625,1.41796875,1.379296875,1.379296875,1.35673828125,1.34384765625,1.35673828125,1.3470703125,1.35029296875,1.353515625,1.35029296875,1.34384765625,1.34384765625,1.340625,1.34384765625,1.35029296875,1.3470703125,1.34384765625,1.353515625,1.353515625,1.36318359375,1.36318359375,1.36962890625,1.3599609375,1.36640625,1.37607421875,1.3857421875,1.40185546875,1.40185546875,1.40830078125,1.42119140625,1.4244140625,1.41474609375,1.4244140625,1.430859375,1.42119140625,1.4115234375,1.405078125,1.39541015625,1.3921875,1.38251953125,1.3728515625,1.37607421875,1.38251953125,1.3728515625,1.379296875,1.405078125,1.39541015625,1.3728515625,1.3857421875,1.379296875,1.3921875,1.3857421875,1.3921875,1.3857421875,1.37607421875,1.37607421875,1.38896484375,1.3857421875,1.3921875,1.3921875,1.3728515625,1.3857421875,1.379296875,1.379296875,1.3921875,1.36962890625,1.379296875,1.37607421875,1.38251953125,1.38896484375,1.379296875,1.36640625,1.3857421875,1.38251953125,1.3728515625,1.36640625,1.37607421875,1.38251953125,1.37607421875,1.37607421875,1.36640625,1.379296875,1.3728515625,1.36318359375,1.36318359375,1.3728515625,1.37607421875,1.36640625,1.3857421875,1.379296875,1.38896484375,1.39541015625,1.40830078125,1.405078125,1.3986328125,1.4115234375,1.40830078125,1.40830078125,1.3857421875,1.38896484375,1.3857421875,1.36640625,1.3728515625,1.3728515625,1.36318359375,1.37607421875,1.3728515625,1.3599609375,1.38251953125,1.36962890625,1.36640625,1.36640625,1.3728515625,1.38251953125,1.353515625,1.33740234375,1.51787109375,1.7982421875,2.05283203125,2.0044921875,1.7337890625,1.482421875,1.42119140625,1.39541015625,1.38896484375,1.379296875,1.36640625,1.36962890625,1.36640625,1.36318359375,1.3599609375,1.34384765625,1.3599609375,1.35673828125,1.36318359375,1.36640625,1.35673828125,1.36318359375,1.36318359375,1.35029296875,1.35673828125,1.34384765625,1.36640625,1.36962890625,1.38251953125,1.379296875,1.3921875,1.39541015625,1.39541015625,1.3986328125,1.3921875,1.405078125,1.4115234375,1.4115234375,1.41796875,1.41474609375,1.41474609375,1.4115234375,1.405078125,1.3986328125,1.39541015625,1.3857421875,1.38896484375,1.38251953125,1.37607421875,1.379296875,1.379296875,1.37607421875,1.38251953125,1.37607421875,1.379296875,1.3857421875,1.38251953125,1.36640625,1.38251953125,1.38251953125,1.38896484375,1.38896484375,1.3857421875,1.3857421875,1.3857421875,1.38896484375,1.3857421875,1.3921875,1.379296875,1.3857421875,1.3857421875,1.379296875,1.37607421875,1.38896484375,1.3921875,1.38251953125,1.37607421875,1.38251953125,1.37607421875,1.379296875,1.379296875,1.379296875,1.379296875,1.37607421875,1.36962890625,1.37607421875,1.37607421875,1.37607421875,1.379296875,1.379296875,1.38251953125,1.3921875,1.379296875,1.38251953125,1.39541015625,1.40185546875,1.405078125,1.405078125,1.41796875,1.4115234375,1.41796875,1.405078125,1.379296875,1.3599609375,1.36640625,1.36318359375,1.36962890625,1.36962890625,1.3728515625,1.36318359375,1.379296875,1.36962890625,1.37607421875,1.36640625,1.37607421875,1.379296875,1.38251953125,1.34384765625,1.353515625,1.49208984375,1.77568359375,2.0302734375,2.00771484375,1.76279296875,1.5017578125,1.42119140625,1.3921875,1.3986328125,1.37607421875,1.36640625,1.36962890625,1.36318359375,1.35673828125,1.36318359375,1.35673828125,1.353515625,1.35029296875,1.3599609375,1.3599609375,1.353515625,1.35673828125,1.353515625,1.35029296875,1.353515625,1.3599609375,1.353515625,1.3728515625,1.3599609375,1.3857421875,1.379296875,1.3921875,1.38896484375,1.3857421875,1.39541015625,1.3986328125,1.41474609375,1.41474609375,1.4115234375,1.41474609375,1.4244140625,1.41474609375,1.4115234375,1.3986328125,1.40185546875,1.38896484375,1.379296875,1.39541015625,1.3857421875,1.379296875,1.3921875,1.38251953125,1.379296875,1.38896484375,1.379296875,1.3857421875,1.39541015625,1.38896484375,1.37607421875,1.38251953125,1.38251953125,1.3857421875,1.3857421875,1.38896484375,1.38251953125,1.3857421875,1.38251953125,1.38251953125,1.38251953125,1.38251953125,1.38251953125,1.38251953125,1.379296875,1.37607421875,1.38896484375,1.3728515625,1.37607421875,1.3728515625,1.36962890625,1.37607421875,1.37607421875,1.379296875,1.379296875,1.3728515625,1.35673828125,1.3728515625,1.36962890625,1.36318359375,1.37607421875,1.37607421875,1.38251953125,1.379296875,1.37607421875,1.38251953125,1.38251953125,1.39541015625,1.3921875,1.39541015625,1.40185546875,1.41474609375,1.42119140625,1.42763671875,1.3986328125,1.37607421875,1.36962890625,1.35029296875,1.36640625,1.36640625,1.36640625,1.3599609375,1.35673828125,1.36640625,1.36318359375,1.353515625,1.36318359375,1.3599609375,1.36640625,1.36962890625,1.36318359375,1.327734375,1.41796875,1.65966796875,1.96904296875,2.075390625,1.946484375,1.6177734375,1.4373046875,1.42119140625,1.38896484375,1.37607421875,1.36318359375,1.3470703125,1.35029296875,1.35029296875,1.3470703125,1.3470703125,1.3470703125,1.35029296875,1.340625,1.33740234375,1.340625,1.33740234375,1.353515625,1.3470703125,1.340625,1.35673828125,1.35029296875,1.3599609375,1.35673828125,1.36962890625,1.36962890625,1.37607421875,1.3857421875,1.38896484375,1.39541015625,1.40185546875,1.405078125,1.405078125,1.41796875,1.42119140625,1.42119140625,1.41796875,1.40830078125,1.405078125,1.39541015625,1.3921875,1.39541015625,1.37607421875,1.37607421875,1.3857421875,1.38251953125,1.38251953125,1.38251953125,1.39541015625,1.3921875,1.3921875,1.3921875,1.379296875,1.3986328125,1.3921875,1.40185546875,1.3921875,1.3921875,1.39541015625,1.39541015625,1.39541015625,1.3986328125,1.3921875,1.3986328125,1.40185546875,1.3921875,1.3857421875,1.39541015625,1.40185546875,1.40185546875,1.38896484375,1.3986328125,1.405078125,1.40830078125,1.405078125,1.405078125,1.41474609375,1.41796875,1.41796875,1.40830078125,1.405078125,1.41796875,1.4115234375
1.38251953125,1.36962890625,1.3728515625,1.36962890625,1.37607421875,1.379296875,1.3728515625,1.3728515625,1.3728515625,1.3728515625,1.37607421875,1.3728515625,1.37607421875,1.36962890625,1.36640625,1.38251953125,1.37607421875,1.38251953125,1.36318359375,1.379296875,1.37607421875,1.37607421875,1.3921875,1.3857421875,1.3921875,1.38896484375,1.40185546875,1.40185546875,1.39541015625,1.42119140625,1.41796875,1.4244140625,1.39541015625,1.3599609375,1.3728515625,1.36640625,1.36640625,1.36640625,1.36318359375,1.36318359375,1.3599609375,1.36318359375,1.36640625,1.3728515625,1.36962890625,1.36640625,1.38251953125,1.36318359375,1.379296875,1.340625,1.34384765625,1.482421875,1.7724609375,2.05927734375,2.049609375,1.8240234375,1.51787109375,1.4244140625,1.4115234375,1.38896484375,1.37607421875,1.36640625,1.36640625,1.36640625,1.35673828125,1.35673828125,1.34384765625,1.34384765625,1.353515625,1.35673828125,1.353515625,1.3599609375,1.35029296875,1.35029296875,1.353515625,1.35029296875,1.3470703125,1.35673828125,1.35029296875,1.36640625,1.3728515625,1.379296875,1.38251953125,1.39541015625,1.3921875,1.3986328125,1.40830078125,1.41796875,1.42763671875,1.40830078125,1.41796875,1.4244140625,1.4115234375,1.40830078125,1.3986328125,1.3921875,1.39541015625,1.38251953125,1.38251953125,1.37607421875,1.38251953125,1.3728515625,1.37607421875,1.37607421875,1.3921875,1.38896484375,1.3857421875,1.37607421875,1.40185546875,1.379296875,1.38251953125,1.3857421875,1.3857421875,1.38251953125,1.38251953125,1.3728515625,1.38251953125,1.379296875,1.379296875,1.38251953125,1.3728515625,1.379296875,1.3857421875,1.379296875,1.379296875,1.379296875,1.38251953125,1.37607421875,1.3857421875,1.37607421875,1.3728515625,1.3857421875,1.38896484375,1.3728515625,1.3728515625,1.379296875,1.37607421875,1.379296875,1.3728515625,1.37607421875,1.37607421875,1.38251953125,1.3728515625,1.38251953125,1.38251953125,1.37607421875,1.38251953125,1.379296875,1.3857421875,1.40185546875,1.40185546875,1.4115234375,1.3921875,1.40185546875,1.41474609375,1.4244140625,1.42763671875,1.40185546875,1.3728515625,1.3599609375,1.3728515625,1.36640625,1.36318359375,1.3728515625,1.3728515625,1.37607421875,1.379296875,1.36962890625,1.3599609375,1.3857421875,1.379296875,1.36962890625,1.3857421875,1.379296875,1.379296875,1.3212890625,1.40830078125,1.62421875,1.9271484375,2.03349609375,1.8884765625,1.58232421875,1.44052734375,1.41796875,1.41474609375,1.38251953125,1.36962890625,1.36318359375,1.36318359375,1.353515625,1.3728515625,1.36640625,1.36318359375,1.3599609375,1.3599609375,1.36318359375,1.3470703125,1.35673828125,1.353515625,1.35029296875,1.36962890625,1.36318359375,1.36962890625,1.36640625,1.36640625,1.3728515625,1.3728515625,1.3921875,1.3857421875,1.3921875,1.3986328125,1.40830078125,1.41474609375,1.41796875,1.4244140625,1.4244140625,1.40830078125,1.41474609375,1.40185546875,1.3921875,1.40185546875,1.3857421875,1.40185546875,1.38896484375,1.3986328125,1.37607421875,1.38251953125,1.38896484375,1.36640625,1.38251953125,1.38251953125,1.38251953125,1.37607421875,1.37607421875,1.40185546875,1.379296875,1.38251953125,1.38896484375,1.38251953125,1.38251953125,1.38896484375,1.38896484375,1.3857421875,1.3857421875,1.38251953125,1.3921875,1.3921875,1.3921875,1.38251953125,1.3728515625,1.379296875,1.379296875,1.379296875,1.37607421875,1.38251953125,1.38251953125,1.38896484375,1.37607421875,1.379296875,1.379296875,1.37607421875,1.3857421875,1.379296875,1.37607421875,1.3728515625,1.37607421875,1.38251953125,1.3857421875,1.38251953125,1.38896484375,1.3857421875,1.3857421875,1.3921875,1.3921875,1.3986328125,1.4115234375,1.3921875,1.40830078125,1.4115234375,1.41796875,1.41796875,1.41474609375,1.38251953125,1.36962890625,1.379296875,1.36640625,1.3728515625,1.37607421875,1.37607421875,1.37607421875,1.37607421875,1.36962890625,1.379296875,1.36962890625,1.36640625,1.36962890625,1.37607421875,1.379296875,1.37607421875,1.340625,1.3986328125,1.60166015625,1.88203125,2.023828125,1.9142578125,1.61455078125,1.44697265625,1.4115234375,1.3986328125,1.37607421875,1.36640625,1.36640625,1.3599609375,1.36318359375,1.35673828125,1.353515625,1.353515625,1.35673828125,1.35673828125,1.3470703125,1.35029296875,1.3599609375,1.3599609375,1.353515625,1.3599609375,1.36962890625,1.353515625,1.3728515625,1.36962890625,1.379296875,1.379296875,1.38251953125,1.38896484375,1.38896484375,1.40185546875,1.3986328125,1.4115234375,1.41474609375,1.42119140625,1.42119140625,1.42119140625,1.4115234375,1.4115234375,1.3986328125,1.3986328125,1.379296875,1.3986328125,1.37607421875,1.379296875,1.3857421875,1.379296875,1.3728515625,1.3921875,1.37607421875,1.38251953125,1.3857421875,1.3857421875,1.38896484375,1.39541015625,1.37607421875,1.38251953125,1.38251953125,1.3857421875,1.3857421875,1.38896484375,1.3857421875,1.379296875,1.3857421875,1.3857421875,1.3857421875,1.3857421875,1.3986328125,1.379296875,1.37607421875,1.38251953125,1.3857421875,1.3728515625,1.379296875,1.3728515625,1.3728515625,1.3728515625,1.36640625,1.38251953125,1.3857421875,1.3728515625,1.37607421875,1.38251953125,1.36640625,1.37607421875,1.3728515625,1.36962890625,1.38251953125,1.379296875,1.36962890625,1.3728515625,1.379296875,1.38251953125,1.37607421875,1.3857421875,1.37607421875,1.38896484375,1.3857421875,1.3857421875,1.405078125,1.4115234375,1.41474609375,1.42119140625,1.4244140625,1.42763671875,1.405078125,1.38251953125,1.3728515625,1.37607421875,1.36962890625,1.37607421875,1.3728515625,1.36962890625,1.35673828125,1.36962890625,1.36640625,1.3728515625,1.37607421875,1.37607421875,1.3728515625,1.38251953125,1.36962890625,1.340625,1.42119140625,1.67578125,1.9658203125,2.0560546875,1.9142578125,1.60166015625,1.45341796875,1.41474609375,1.3986328125,1.37607421875,1.36640625,1.36318359375,1.35673828125,1.35673828125,1.35673828125,1.35673828125,1.35673828125,1.3599609375,1.353515625,1.35029296875,1.35029296875,1.35673828125,1.3470703125,1.35673828125,1.35029296875,1.35673828125,1.3599609375,1.36318359375,1.36962890625,1.3728515625,1.38251953125,1.37607421875,1.38896484375,1.3986328125,1.40830078125,1.4115234375,1.40830078125,1.4244140625,1.4244140625,1.42119140625,1.42119140625,1.4244140625,1.405078125,1.405078125,1.3921875,1.38896484375,1.3857421875,1.38251953125,1.379296875,1.379296875,1.3857421875,1.379296875,1.38896484375,1.38251953125,1.3857421875,1.3986328125,1.379296875,1.379296875,1.3921875,1.3857421875,1.38896484375,1.38251953125,1.3921875,1.379296875,1.38896484375,1.3857421875,1.3857421875,1.38251953125,1.3857421875,1.3857421875,1.379296875,1.379296875,1.379296875,1.37607421875,1.37607421875,1.37607421875,1.37607421875,1.3728515625,1.38896484375,1.36962890625,1.37607421875,1.37607421875,1.38251953125,1.37607421875,1.3857421875,1.36962890625,1.379296875,1.3728515625,1.3728515625,1.3728515625,1.3728515625,1.3728515625,1.36962890625,1.37607421875,1.379296875,1.38251953125,1.379296875,1.38896484375,1.3857421875,1.3857421875,1.39541015625,1.379296875,1.37607421875,1.405078125,1.40185546875,1.405078125,1.40830078125,1.42119140625,1.430859375,1.42119140625,1.379296875,1.36640625,1.3728515625,1.379296875,1.37607421875,1.36640625,1.36962890625,1.37607421875,1.36318359375,1.36318359375,1.3728515625,1.36962890625,1.379296875,1.38896484375,1.36962890625,1.379296875,1.36318359375,1.340625,1.4888671875,1.77890625,2.0625,2.049609375,1.82080078125,1.51787109375,1.430859375,1.4115234375,1.38896484375,1.3728515625,1.36640625,1.353515625,1.36318359375,1.35673828125,1.353515625,1.35673828125,1.34384765625,1.34384765625,1.353515625,1.34384765625,1.35029296875,1.3470703125,1.35029296875,1.340625,1.353515625,1.353515625,1.353515625,1.36640625,1.3728515625,1.3728515625,1.3921875,1.3921875,1.3857421875,1.40185546875,1.40830078125,1.4115234375,1.41796875,1.42119140625,1.42119140625,1.43408203125,1.41796875,1.41796875,1.41796875,1.405078125,1.38251953125,1.3857421875,1.3728515625,1.38251953125,1.3857421875,1.38251953125,1.37607421875,1.36640625,1.38251953125,1.379296875,1.379296875,1.3921875,1.38251953125,1.3857421875,1.37607421875,1.38251953125,1.38251953125,1.37607421875,1.3921875,1.38896484375,1.38896484375,1.3857421875,1.379296875,1.3921875,1.3986328125,1.37607421875,1.3986328125,1.379296875,1.38251953125,1.379296875,1.38251953125,1.37607421875,1.38251953125,1.3728515625,1.37607421875,1.379296875,1.3857421875,1.36962890625,1.36962890625,1.37607421875,1.379296875,1.36640625,1.379296875,1.38251953125,1.38251953125,1.379296875,1.36962890625,1.379296875,1.36640625,1.379296875,1.36962890625,1.3728515625,1.36318359375,1.38251953125,1.39541015625,1.40830078125,1.3921875,1.40185546875,1.40830078125,1.41796875,1.405078125,1.405078125,1.4244140625,1.42119140625,1.40185546875,1.36962890625,1.37607421875,1.36640625,1.36962890625,1.38251953125,1.36640625,1.36962890625,1.379296875,1.3728515625,1.36962890625,1.3599609375,1.379296875,1.3728515625,1.3728515625,1.38251953125,1.37607421875,1.379296875,1.35029296875,1.3857421875,1.6177734375,1.90458984375,2.03349609375,1.9013671875,1.6177734375,1.45986328125,1.405078125,1.405078125,1.38251953125,1.379296875,1.36640625,1.36962890625,1.36318359375,1.36318359375,1.35029296875,1.353515625,1.353515625,1.3599609375,1.353515625,1.353515625,1.36962890625,1.35029296875,1.3599609375,1.36318359375,1.35673828125,1.36318359375,1.3728515625,1.36318359375,1.3728515625,1.379296875,1.38896484375,1.38896484375,1.38896484375,1.4115234375,1.41474609375,1.40185546875,1.41474609375,1.41474609375,1.430859375,1.42763671875,1.41796875,1.41796875,1.40185546875,1.3921875,1.405078125,1.3921875,1.38251953125,1.3857421875,1.3728515625,1.37607421875,1.3857421875,1.38251953125,1.37607421875,1.3857421875,1.38251953125,1.379296875,1.36318359375,1.379296875,1.38896484375,1.379296875,1.3857421875,1.379296875,1.3921875,1.3921875,1.38896484375,1.3921875,1.38251953125,1.379296875,1.39541015625,1.38251953125,1.38251953125,1.379296875,1.38251953125,1.3857421875,1.38251953125,1.38251953125,1.3857421875,1.3728515625,1.379296875,1.37607421875,1.37607421875,1.379296875,1.379296875,1.379296875,1.3728515625,1.37607421875,1.379296875,1.37607421875,1.36962890625,1.379296875,1.3728515625,1.379296875,1.3728515625,1.37607421875,1.38251953125,1.36640625,1.38896484375,1.38251953125,1.3857421875,1.38896484375,1.405078125,1.39541015625,1.40830078125,1.40830078125,1.42119140625,1.4244140625,1.41474609375,1.38896484375,1.379296875,1.379296875,1.36640625,1.3728515625,1.3728515625,1.3728515625,1.3728515625,1.3728515625,1.36962890625,1.38251953125,1.35673828125,1.38251953125,1.36962890625,1.37607421875,1.38251953125,1.3728515625,1.3470703125,1.41796875,1.62099609375,1.90458984375,2.023828125,1.91103515625,1.61455078125,1.45341796875,1.41474609375,1.39541015625,1.38251953125,1.36640625,1.36640625,1.34384765625,1.36318359375,1.36318359375,1.36318359375,1.3599609375,1.36318359375,1.35029296875,1.353515625,1.35673828125,1.3599609375,1.36640625,1.36318359375,1.353515625,1.3599609375,1.3599609375,1.36318359375,1.3728515625,1.3728515625,1.379296875,1.38896484375,1.3921875,1.39541015625,1.40830078125,1.4115234375,1.41474609375,1.430859375,1.430859375,1.42763671875,1.42119140625,1.41474609375,1.4115234375,1.41474609375,1.3857421875,1.3921875,1.38896484375,1.38896484375,1.38251953125,1.38251953125,1.3857421875,1.38896484375,1.38251953125,1.3728515625,1.37607421875,1.38251953125,1.3857421875,1.38251953125,1.3921875,1.38251953125,1.38896484375,1.3857421875,1.38896484375,1.379296875,1.37607421875,1.379296875,1.379296875,1.379296875,1.38251953125,1.3728515625,1.38251953125,1.37607421875,1.36962890625,1.38251953125,1.38251953125,1.37607421875,1.38251953125,1.379296875,1.3728515625,1.37607421875,1.37607421875,1.3728515625,1.37607421875,1.3728515625,1.379296875,1.36318359375,1.36962890625,1.36962890625,1.3728515625,1.3728515625,1.379296875,1.36962890625,1.37607421875,1.3728515625,1.38251953125,1.37607421875,1.38251953125,1.3857421875,1.3921875,1.38251953125,1.37607421875,1.3986328125,1.38251953125,1.40185546875,1.3986328125,1.4115234375,1.42119140625,1.4244140625,1.41796875,1.4244140625,1.39541015625,1.3728515625,1.37607421875,1.38251953125,1.3728515625,1.379296875,1.37607421875,1.3728515625,1.3728515625,1.36640625,1.379296875,1.36318359375,1.36640625,1.37607421875,1.38251953125,1.3728515625,1.38251953125,1.3470703125,1.36318359375,1.47919921875,1.77890625,2.0560546875,2.0431640625,1.82080078125,1.52109375,1.43408203125,1.4244140625,1.3857421875,1.379296875,1.36640625,1.3599609375,1.35029296875,1.353515625,1.3470703125,1.35029296875,1.35673828125,1.35029296875,1.35029296875,1.34384765625,1.35673828125,1.3470703125,1.353515625,1.35029296875,1.353515625,1.353515625,1.36318359375,1.36640625,1.36962890625,1.37607421875,1.3857421875,1.38896484375,1.3921875,1.38896484375,1.4115234375,1.41474609375,1.4115234375,1.42119140625,1.42119140625,1.42763671875,1.41796875,1.41796875,1.3986328125,1.3986328125,1.3857421875,1.38896484375,1.3921875,1.3857421875,1.38251953125,1.379296875,1.379296875,1.38251953125,1.38251953125,1.37607421875,1.38251953125,1.379296875,1.3728515625,1.3921875,1.379296875,1.38251953125,1.3857421875,1.38251953125,1.38896484375,1.37607421875,1.379296875,1.37607421875,1.38251953125,1.3857421875,1.38251953125,1.379296875,1.37607421875,1.3728515625,1.36640625,1.37607421875,1.38251953125,1.37607421875,1.379296875,1.379296875,1.36962890625,1.3728515625,1.379296875,1.3599609375,1.36962890625,1.37607421875,1.3728515625,1.38251953125,1.37607421875,1.36962890625,1.3599609375,1.3728515625,1.3728515625,1.38251953125,1.3728515625,1.379296875,1.37607421875,1.37607421875,1.37607421875,1.379296875,1.379296875,1.379296875,1.38251953125,1.38896484375,1.3921875,1.40185546875,1.405078125,1.405078125,1.4115234375,1.42763671875,1.4373046875,1.430859375,1.38251953125,1.36962890625,1.36962890625,1.36962890625,1.36962890625,1.3728515625,1.36640625,1.36962890625,1.36962890625,1.36640625,1.36962890625,1.37607421875,1.37607421875,1.36318359375,1.37607421875,1.37607421875,1.36962890625,1.34384765625,1.46630859375,1.74345703125,2.049609375,2.05283203125,1.85625,1.5404296875,1.44375,1.40830078125,1.3986328125,1.3728515625,1.3728515625,1.36318359375,1.3599609375,1.36962890625,1.36962890625,1.3599609375,1.35673828125,1.36640625,1.35673828125,1.3728515625,1.3599609375,1.34384765625,1.35029296875,1.353515625,1.35029296875,1.3599609375,1.3599609375,1.36318359375,1.36962890625,1.3857421875,1.3857421875,1.38896484375,1.39541015625,1.40185546875,1.39541015625,1.42119140625,1.42763671875,1.42119140625,1.42119140625,1.43408203125,1.42763671875,1.42763671875,1.41474609375,1.40830078125,1.40830078125,1.39541015625,1.38251953125,1.3857421875,1.38251953125,1.3921875,1.38251953125,1.38896484375,1.38251953125,1.3857421875,1.3857421875,1.38251953125,1.3986328125,1.38896484375,1.38896484375,1.3857421875,1.3857421875,1.38896484375,1.38896484375,1.39541015625,1.38251953125,1.39541015625,1.3857421875,1.38896484375,1.379296875,1.379296875,1.38251953125,1.37607421875,1.38251953125,1.38251953125,1.3728515625,1.379296875,1.38251953125,1.37607421875,1.38896484375,1.3728515625,1.37607421875,1.37607421875,1.379296875,1.37607421875,1.36640625,1.379296875,1.38896484375,1.3728515625,1.379296875,1.36640625,1.379296875,1.3857421875,1.37607421875,1.3728515625,1.3728515625,1.36640625,1.37607421875,1.379296875,1.37607421875,1.38896484375,1.3921875,1.3921875,1.38896484375,1.405078125,1.39541015625,1.40185546875,1.4115234375,1.4244140625,1.4115234375,1.3986328125,1.36318359375,1.36962890625,1.35673828125,1.3728515625,1.36318359375,1.3599609375,1.3728515625,1.3599609375,1.35029296875,1.36640625,1.3599609375,1.36962890625,1.36962890625,1.36318359375,1.37607421875,1.37607421875,1.36962890625,1.327734375,1.40830078125,1.62099609375,1.9142578125,2.01416015625,1.87236328125,1.57587890625,1.42763671875,1.3857421875,1.3921875,1.3728515625,1.36318359375,1.35673828125,1.36318359375,1.35673828125,1.35029296875,1.33740234375,1.3470703125,1.34384765625,1.3470703125,1.3470703125,1.34384765625,1.35673828125,1.353515625,1.340625,1.35029296875,1.353515625,1.3599609375,1.35673828125,1.3599609375,1.37607421875,1.3728515625,1.36962890625,1.38896484375,1.3921875,1.40185546875,1.405078125,1.405078125,1.41474609375,1.42763671875,1.42119140625,1.41796875,1.41474609375,1.4115234375,1.405078125,1.40185546875,1.3921875,1.3986328125,1.3921875,1.405078125,1.40185546875,1.39541015625,1.39541015625,1.39541015625,1.3986328125,1.3921875,1.405078125,1.405078125
1.3857421875,1.38896484375,1.3921875,1.3857421875,1.3728515625,1.38896484375,1.38251953125,1.379296875,1.37607421875,1.38896484375,1.38896484375,1.379296875,1.379296875,1.37607421875,1.39541015625,1.38251953125,1.38896484375,1.38251953125,1.379296875,1.38251953125,1.3857421875,1.379296875,1.379296875,1.379296875,1.38251953125,1.37607421875,1.379296875,1.38896484375,1.37607421875,1.36640625,1.3921875,1.37607421875,1.38251953125,1.36962890625,1.37607421875,1.38251953125,1.37607421875,1.3921875,1.3857421875,1.38251953125,1.37607421875,1.36962890625,1.37607421875,1.37607421875,1.37607421875,1.3857421875,1.38251953125,1.37607421875,1.3986328125,1.379296875,1.379296875,1.3857421875,1.36962890625,1.37607421875,1.38251953125,1.379296875,1.379296875,1.379296875,1.379296875,1.38251953125,1.38896484375,1.38251953125,1.3921875,1.39541015625,1.38896484375,1.3921875,1.405078125,1.41474609375,1.4115234375,1.40185546875,1.42119140625,1.430859375,1.4244140625,1.40185546875,1.36962890625,1.379296875,1.3728515625,1.3728515625,1.3728515625,1.3728515625,1.36962890625,1.36962890625,1.3599609375,1.3728515625,1.37607421875,1.36318359375,1.3857421875,1.353515625,1.3341796875,1.456640625,1.73701171875,2.0431640625,2.06572265625,1.87880859375,1.55654296875,1.44052734375,1.42763671875,1.3857421875,1.36962890625,1.35673828125,1.36640625,1.35029296875,1.3470703125,1.340625,1.36640625,1.340625,1.3599609375,1.34384765625,1.35673828125,1.35029296875,1.353515625,1.3470703125,1.353515625,1.35673828125,1.3470703125,1.35673828125,1.3599609375,1.3599609375,1.36962890625,1.379296875,1.3728515625,1.38251953125,1.3857421875,1.40830078125,1.405078125,1.4115234375,1.42119140625,1.42763671875,1.42763671875,1.43408203125,1.42119140625,1.41474609375,1.405078125,1.39541015625,1.39541015625,1.40185546875,1.3986328125,1.379296875,1.38251953125,1.38896484375,1.3921875,1.38251953125,1.38251953125,1.3728515625,1.39541015625,1.37607421875,1.39541015625,1.3857421875,1.39541015625,1.3857421875,1.38251953125,1.3986328125,1.3921875,1.38251953125,1.379296875,1.38896484375,1.379296875,1.379296875,1.38251953125,1.3728515625,1.36962890625,1.3921875,1.39541015625,1.3857421875,1.37607421875,1.379296875,1.379296875,1.3921875,1.38251953125,1.37607421875,1.38896484375,1.38896484375,1.3857421875,1.3728515625,1.379296875,1.36640625,1.36962890625,1.36318359375,1.379296875,1.3921875,1.36640625,1.3728515625,1.36318359375,1.3728515625,1.37607421875,1.3728515625,1.38896484375,1.38251953125,1.3921875,1.3921875,1.3921875,1.40830078125,1.39541015625,1.3986328125,1.40185546875,1.4373046875,1.4244140625,1.38251953125,1.37607421875,1.36318359375,1.36962890625,1.35673828125,1.36318359375,1.36318359375,1.3599609375,1.3599609375,1.36962890625,1.36640625,1.36962890625,1.3599609375,1.36640625,1.36640625,1.3728515625,1.3728515625,1.35029296875,1.3470703125,1.4888671875,1.8046875,2.0560546875,1.9916015625,1.74345703125,1.4759765625,1.41796875,1.40830078125,1.3986328125,1.38251953125,1.3599609375,1.36640625,1.35673828125,1.353515625,1.36640625,1.353515625,1.353515625,1.353515625,1.3599609375,1.3599609375,1.36640625,1.36640625,1.353515625,1.3599609375,1.36318359375,1.36318359375,1.36318359375,1.3599609375,1.379296875,1.36962890625,1.38251953125,1.3921875,1.38896484375,1.405078125,1.3986328125,1.40830078125,1.41474609375,1.41796875,1.42119140625,1.42119140625,1.405078125,1.41474609375,1.41796875,1.405078125,1.3921875,1.3921875,1.38896484375,1.3921875,1.3921875,1.38896484375,1.37607421875,1.38251953125,1.379296875,1.37607421875,1.379296875,1.36962890625,1.37607421875,1.379296875,1.36962890625,1.39541015625,1.38251953125,1.3857421875,1.38896484375,1.38251953125,1.38896484375,1.3986328125,1.3921875,1.38896484375,1.3857421875,1.379296875,1.38251953125,1.38896484375,1.3921875,1.3728515625,1.38251953125,1.3728515625,1.3728515625,1.37607421875,1.3857421875,1.3921875,1.39541015625,1.379296875,1.37607421875,1.38251953125,1.3728515625,1.379296875,1.379296875,1.379296875,1.37607421875,1.379296875,1.38896484375,1.36962890625,1.38896484375,1.3857421875,1.38896484375,1.36962890625,1.39541015625,1.3921875,1.4115234375,1.40185546875,1.405078125,1.405078125,1.40830078125,1.4244140625,1.41796875,1.3986328125,1.36962890625,1.35673828125,1.379296875,1.379296875,1.36318359375,1.36318359375,1.3728515625,1.36962890625,1.3599609375,1.36962890625,1.3728515625,1.38251953125,1.36962890625,1.36962890625,1.36962890625,1.3728515625,1.33740234375,1.41796875,1.6564453125,1.9529296875,2.023828125,1.8755859375,1.57265625,1.4373046875,1.3986328125,1.38896484375,1.38251953125,1.36640625,1.35673828125,1.3599609375,1.36640625,1.35673828125,1.36640625,1.36318359375,1.35673828125,1.3599609375,1.353515625,1.3599609375,1.36318359375,1.36640625,1.3599609375,1.36640625,1.3599609375,1.36962890625,1.35673828125,1.36640625,1.37607421875,1.38251953125,1.38251953125,1.40830078125,1.405078125,1.3986328125,1.41474609375,1.40185546875,1.405078125,1.4244140625,1.41796875,1.41796875,1.4115234375,1.40185546875,1.405078125,1.38251953125,1.3921875,1.3857421875,1.38896484375,1.38251953125,1.36962890625,1.3728515625,1.38251953125,1.37607421875,1.379296875,1.37607421875,1.38251953125,1.38251953125,1.38251953125,1.3857421875,1.38251953125,1.38251953125,1.379296875,1.3857421875,1.38251953125,1.3921875,1.38251953125,1.3857421875,1.3857421875,1.379296875,1.38251953125,1.38251953125,1.38896484375,1.3857421875,1.38896484375,1.3857421875,1.38251953125,1.38251953125,1.379296875,1.37607421875,1.379296875,1.38251953125,1.3728515625,1.379296875,1.37607421875,1.38251953125,1.379296875,1.38251953125,1.3728515625,1.38251953125,1.36962890625,1.37607421875,1.38251953125,1.37607421875,1.37607421875,1.37607421875,1.3728515625,1.3857421875,1.379296875,1.379296875,1.3857421875,1.3857421875,1.38896484375,1.40830078125,1.40185546875,1.405078125,1.42763671875,1.405078125,1.42119140625,1.430859375,1.39541015625,1.37607421875,1.379296875,1.36640625,1.36640625,1.36962890625,1.36962890625,1.3599609375,1.36640625,1.37607421875,1.36640625,1.36640625,1.36640625,1.3728515625,1.37607421875,1.37607421875,1.35029296875,1.33740234375,1.4759765625,1.766015625,2.04638671875,2.03994140625,1.83046875,1.533984375,1.430859375,1.40830078125,1.38896484375,1.37607421875,1.35673828125,1.36318359375,1.3599609375,1.353515625,1.36318359375,1.35673828125,1.35673828125,1.353515625,1.36318359375,1.340625,1.35029296875,1.35029296875,1.3599609375,1.35029296875,1.35673828125,1.3599609375,1.36640625,1.36962890625,1.36962890625,1.37607421875,1.37607421875,1.38251953125,1.3921875,1.405078125,1.40830078125,1.40185546875,1.4115234375,1.41796875,1.4244140625,1.43408203125,1.4244140625,1.41796875,1.40830078125,1.40185546875,1.3986328125,1.38251953125,1.38896484375,1.38251953125,1.38251953125,1.38896484375,1.3728515625,1.38251953125,1.36962890625,1.3728515625,1.37607421875,1.3921875,1.379296875,1.40185546875,1.38896484375,1.38251953125,1.38896484375,1.3857421875,1.3921875,1.379296875,1.379296875,1.38251953125,1.3921875,1.3857421875,1.38251953125,1.38896484375,1.379296875,1.37607421875,1.37607421875,1.379296875,1.37607421875,1.3728515625,1.379296875,1.379296875,1.379296875,1.38251953125,1.3728515625,1.3728515625,1.36640625,1.3728515625,1.37607421875,1.37607421875,1.38251953125,1.37607421875,1.38251953125,1.36962890625,1.37607421875,1.37607421875,1.36318359375,1.36640625,1.37607421875,1.3728515625,1.3857421875,1.379296875,1.37607421875,1.38896484375,1.3857421875,1.3857421875,1.3921875,1.40830078125,1.405078125,1.3986328125,1.4115234375,1.4244140625,1.43408203125,1.42119140625,1.36962890625,1.353515625,1.36318359375,1.37607421875,1.36640625,1.36640625,1.3728515625,1.3728515625,1.36640625,1.36962890625,1.36640625,1.36962890625,1.36318359375,1.37607421875,1.36962890625,1.36962890625,1.33740234375,1.379296875,1.58876953125,1.8755859375,2.101171875,2.01416015625,1.71123046875,1.482421875,1.42119140625,1.4244140625,1.379296875,1.36640625,1.36318359375,1.36318359375,1.35673828125,1.36318359375,1.35029296875,1.35673828125,1.353515625,1.34384765625,1.353515625,1.340625,1.340625,1.353515625,1.34384765625,1.340625,1.353515625,1.36640625,1.353515625,1.36962890625,1.36962890625,1.379296875,1.38896484375,1.38251953125,1.3986328125,1.40830078125,1.4115234375,1.42119140625,1.4244140625,1.41796875,1.43408203125,1.42119140625,1.41796875,1.41796875,1.4115234375,1.405078125,1.3921875,1.38896484375,1.38251953125,1.3728515625,1.3857421875,1.36962890625,1.3857421875,1.38251953125,1.3857421875,1.38251953125,1.38896484375,1.38251953125,1.36640625,1.3857421875,1.38251953125,1.36962890625,1.38896484375,1.3857421875,1.3921875,1.3857421875,1.37607421875,1.36640625,1.3728515625,1.38251953125,1.379296875,1.3728515625,1.3857421875,1.379296875,1.38251953125,1.37607421875,1.37607421875,1.3728515625,1.36962890625,1.379296875,1.36962890625,1.38251953125,1.3857421875,1.38896484375,1.3857421875,1.379296875,1.3728515625,1.36640625,1.379296875,1.36962890625,1.3728515625,1.38251953125,1.38251953125,1.37607421875,1.38251953125,1.379296875,1.36962890625,1.3857421875,1.3921875,1.379296875,1.38251953125,1.379296875,1.3921875,1.3986328125,1.39541015625,1.42763671875,1.405078125,1.42119140625,1.430859375,1.430859375,1.39541015625,1.379296875,1.36962890625,1.36962890625,1.36962890625,1.37607421875,1.3599609375,1.353515625,1.35673828125,1.3857421875,1.379296875,1.38251953125,1.36962890625,1.37607421875,1.3728515625,1.37607421875,1.38896484375,1.35673828125,1.3857421875,1.58876953125,1.88525390625,2.04638671875,1.93681640625,1.65,1.44375,1.4244140625,1.3921875,1.379296875,1.3599609375,1.3728515625,1.3728515625,1.36640625,1.36318359375,1.36962890625,1.353515625,1.35029296875,1.353515625,1.35673828125,1.36318359375,1.36318359375,1.353515625,1.3599609375,1.35673828125,1.36962890625,1.3599609375,1.36318359375,1.379296875,1.37607421875,1.38251953125,1.3857421875,1.39541015625,1.40830078125,1.4115234375,1.4115234375,1.40830078125,1.41796875,1.42763671875,1.430859375,1.4244140625,1.4244140625,1.4244140625,1.3986328125,1.405078125,1.38896484375,1.3857421875,1.3857421875,1.379296875,1.37607421875,1.3857421875,1.38896484375,1.3857421875,1.3857421875,1.38251953125,1.37607421875,1.379296875,1.379296875,1.3857421875,1.3857421875,1.379296875,1.3857421875,1.38251953125,1.38251953125,1.38251953125,1.38251953125,1.379296875,1.3921875,1.38896484375,1.38251953125,1.38251953125,1.3857421875,1.38251953125,1.3857421875,1.38896484375,1.379296875,1.3857421875,1.38251953125,1.379296875,1.3728515625,1.36962890625,1.3728515625,1.37607421875,1.37607421875,1.379296875,1.38251953125,1.3728515625,1.379296875,1.379296875,1.37607421875,1.37607421875,1.36640625,1.3857421875,1.37607421875,1.3728515625,1.3728515625,1.38251953125,1.3857421875,1.379296875,1.3857421875,1.379296875,1.38896484375,1.39541015625,1.3921875,1.40830078125,1.40185546875,1.41474609375,1.430859375,1.41796875,1.37607421875,1.36640625,1.36962890625,1.36318359375,1.379296875,1.3728515625,1.36318359375,1.36318359375,1.36640625,1.3599609375,1.353515625,1.36962890625,1.36640625,1.36318359375,1.3599609375,1.379296875,1.37607421875,1.340625,1.3986328125,1.60810546875,1.89169921875,2.0302734375,1.9078125,1.61455078125,1.44052734375,1.40830078125,1.3986328125,1.37607421875,1.3728515625,1.36640625,1.3599609375,1.36318359375,1.3599609375,1.353515625,1.353515625,1.353515625,1.35673828125,1.35673828125,1.35029296875,1.35029296875,1.353515625,1.353515625,1.35673828125,1.353515625,1.3599609375,1.36640625,1.3921875,1.379296875,1.37607421875,1.38896484375,1.39541015625,1.38896484375,1.40185546875,1.41474609375,1.41796875,1.42763671875,1.43408203125,1.4373046875,1.430859375,1.41474609375,1.4115234375,1.405078125,1.3986328125,1.39541015625,1.38251953125,1.38896484375,1.38251953125,1.38251953125,1.38251953125,1.379296875,1.379296875,1.379296875,1.38896484375,1.3986328125,1.3921875,1.38251953125,1.3857421875,1.38251953125,1.38251953125,1.38251953125,1.38251953125,1.38251953125,1.39541015625,1.38251953125,1.3857421875,1.38251953125,1.3921875,1.3728515625,1.39541015625,1.37607421875,1.36640625,1.37607421875,1.3857421875,1.38251953125,1.37607421875,1.3921875,1.3857421875,1.38251953125,1.38251953125,1.3857421875,1.3728515625,1.379296875,1.379296875,1.379296875,1.37607421875,1.3857421875,1.379296875,1.38251953125,1.37607421875,1.37607421875,1.379296875,1.38251953125,1.38251953125,1.38251953125,1.3921875,1.38251953125,1.38896484375,1.38251953125,1.38251953125,1.3921875,1.39541015625,1.38896484375,1.40185546875,1.405078125,1.41474609375,1.41474609375,1.4244140625,1.4244140625,1.44052734375,1.40185546875,1.3728515625,1.36318359375,1.379296875,1.37607421875,1.379296875,1.37607421875,1.36962890625,1.36640625,1.379296875,1.3728515625,1.36962890625,1.37607421875,1.37607421875,1.37607421875,1.3857421875,1.37607421875,1.353515625,1.36318359375,1.5017578125,1.78212890625,2.0625,2.049609375,1.80791015625,1.51787109375,1.4373046875,1.41796875,1.3921875,1.379296875,1.36318359375,1.3728515625,1.36318359375,1.35673828125,1.3599609375,1.35673828125,1.353515625,1.35673828125,1.353515625,1.35673828125,1.353515625,1.34384765625,1.353515625,1.353515625,1.36962890625,1.353515625,1.35673828125,1.36640625,1.3728515625,1.37607421875,1.3921875,1.38896484375,1.39541015625,1.3921875,1.40830078125,1.42763671875,1.41474609375,1.42763671875,1.43408203125,1.42763671875,1.4244140625,1.41796875,1.4115234375,1.40185546875,1.38896484375,1.38896484375,1.38896484375,1.37607421875,1.36962890625,1.3728515625,1.3921875,1.38251953125,1.379296875,1.36640625,1.3857421875,1.37607421875,1.38251953125,1.379296875,1.37607421875,1.37607421875,1.379296875,1.38251953125,1.379296875,1.37607421875,1.3728515625,1.37607421875,1.37607421875,1.37607421875,1.36962890625,1.3728515625,1.3728515625,1.37607421875,1.37607421875,1.38251953125,1.379296875,1.37607421875,1.37607421875,1.37607421875,1.36962890625,1.3728515625,1.36640625,1.3728515625,1.36962890625,1.37607421875,1.3728515625,1.37607421875,1.36962890625,1.36318359375,1.36962890625,1.37607421875,1.36962890625,1.3728515625,1.37607421875,1.3857421875,1.36962890625,1.37607421875,1.3728515625,1.36962890625,1.38251953125,1.36640625,1.3728515625,1.38251953125,1.38251953125,1.3857421875,1.3921875,1.39541015625,1.39541015625,1.405078125,1.4115234375,1.43408203125,1.4115234375,1.36640625,1.36640625,1.36962890625,1.3599609375,1.36318359375,1.3599609375,1.35673828125,1.353515625,1.36640625,1.35673828125,1.36640625,1.35673828125,1.35673828125,1.36640625,1.35673828125,1.38251953125,1.37607421875,1.35029296875,1.33740234375,1.47919921875,1.76279296875,2.0625,2.049609375,1.8369140625,1.51787109375,1.44052734375,1.3986328125,1.38251953125,1.3728515625,1.36640625,1.35029296875,1.35029296875,1.340625,1.340625,1.3599609375,1.36318359375,1.3599609375,1.34384765625,1.35029296875,1.353515625,1.3470703125,1.35029296875,1.353515625,1.3470703125,1.36640625,1.35673828125,1.3599609375,1.36962890625,1.3857421875,1.3857421875,1.38896484375,1.40830078125,1.40830078125,1.40185546875,1.41796875,1.4244140625,1.4373046875,1.43408203125,1.43408203125,1.44375,1.430859375,1.42119140625,1.42763671875,1.40185546875,1.3986328125,1.4115234375,1.3857421875,1.3986328125,1.38896484375,1.37607421875,1.38251953125,1.39541015625,1.40830078125,1.3921875,1.39541015625,1.39541015625,1.40185546875,1.3921875,1.405078125,1.39541015625,1.40830078125,1.405078125,1.3986328125,1.39541015625,1.39541015625,1.40830078125,1.39541015625,1.40830078125,1.405078125,1.3921875,1.3986328125,1.405078125,1.40830078125,1.405078125,1.3921875,1.3921875,1.405078125,1.405078125,1.39541015625,1.3921875,1.405078125,1.40185546875,1.3986328125,1.38896484375,1.39541015625,1.3921875,1.37607421875,1.40185546875,1.3921875,1.39541015625,1.40830078125,1.39541015625,1.3857421875,1.39541015625,1.3921875,1.3857421875,1.38896484375,1.3986328125,1.379296875,1.3921875,1.39541015625,1.39541015625,1.40185546875,1.405078125,1.40830078125,1.4115234375,1.41474609375,1.41474609375,1.430859375,1.405078125,1.379296875,1.3599609375,1.3599609375,1.353515625,1.36318359375,1.353515625,1.3599609375,1.3599609375,1.3470703125,1.35029296875,1.353515625,1.34384765625,1.33740234375,1.3341796875,1.33095703125,1.327734375,1.3212890625,1.327734375,1.31162109375,1.2955078125,1.405078125,1.68544921875,1.94970703125,1.93037109375,1.7015625,1.405078125,1.340625,1.31806640625,1.2890625,1.26328125,1.25361328125,1.2439453125
1.38251953125,1.37607421875,1.3728515625,1.36962890625,1.36640625,1.38251953125,1.3728515625,1.37607421875,1.3728515625,1.36962890625,1.3728515625,1.36318359375,1.3728515625,1.379296875,1.36962890625,1.37607421875,1.38251953125,1.3599609375,1.36962890625,1.36318359375,1.379296875,1.3728515625,1.36962890625,1.379296875,1.379296875,1.3599609375,1.3728515625,1.37607421875,1.3728515625,1.37607421875,1.3728515625,1.379296875,1.379296875,1.38251953125,1.36962890625,1.40185546875,1.40185546875,1.405078125,1.40830078125,1.405078125,1.41796875,1.4373046875,1.40830078125,1.3728515625,1.3599609375,1.36962890625,1.3599609375,1.36640625,1.36640625,1.36318359375,1.36640625,1.36640625,1.36962890625,1.3599609375,1.36962890625,1.3599609375,1.36318359375,1.3728515625,1.37607421875,1.33095703125,1.39541015625,1.57587890625,1.88203125,2.101171875,2.01416015625,1.73701171875,1.49208984375,1.41796875,1.405078125,1.38251953125,1.36962890625,1.35029296875,1.36640625,1.35029296875,1.3599609375,1.3599609375,1.353515625,1.3599609375,1.3341796875,1.35029296875,1.3470703125,1.3470703125,1.34384765625,1.3599609375,1.3470703125,1.353515625,1.3599609375,1.35673828125,1.36318359375,1.3599609375,1.3728515625,1.37607421875,1.38251953125,1.40185546875,1.3986328125,1.40185546875,1.41796875,1.41474609375,1.42763671875,1.42119140625,1.4373046875,1.42119140625,1.4244140625,1.405078125,1.40830078125,1.4115234375,1.37607421875,1.379296875,1.38896484375,1.3857421875,1.38896484375,1.36962890625,1.3728515625,1.3921875,1.36318359375,1.3921875,1.37607421875,1.3921875,1.3728515625,1.3857421875,1.3986328125,1.39541015625,1.379296875,1.38251953125,1.379296875,1.39541015625,1.38251953125,1.3728515625,1.36962890625,1.3857421875,1.36962890625,1.40185546875,1.37607421875,1.3857421875,1.3728515625,1.379296875,1.3921875,1.40185546875,1.3728515625,1.36962890625,1.37607421875,1.3728515625,1.38251953125,1.379296875,1.36640625,1.36640625,1.38896484375,1.36962890625,1.3857421875,1.3857421875,1.36962890625,1.38251953125,1.36640625,1.37607421875,1.37607421875,1.379296875,1.37607421875,1.36962890625,1.39541015625,1.3857421875,1.3921875,1.3857421875,1.379296875,1.3857421875,1.40830078125,1.40830078125,1.3986328125,1.40830078125,1.41796875,1.41796875,1.4244140625,1.3986328125,1.36962890625,1.36640625,1.3728515625,1.3599609375,1.37607421875,1.36962890625,1.3599609375,1.379296875,1.37607421875,1.36318359375,1.379296875,1.36640625,1.36640625,1.379296875,1.38251953125,1.37607421875,1.35029296875,1.3986328125,1.5662109375,1.85625,2.05283203125,1.94970703125,1.65,1.45341796875,1.405078125,1.405078125,1.3921875,1.36962890625,1.37607421875,1.36318359375,1.3599609375,1.36318359375,1.3599609375,1.35029296875,1.35673828125,1.35673828125,1.353515625,1.36318359375,1.35029296875,1.353515625,1.35673828125,1.36640625,1.35029296875,1.35673828125,1.38251953125,1.36318359375,1.37607421875,1.379296875,1.3857421875,1.38896484375,1.39541015625,1.39541015625,1.4115234375,1.40830078125,1.40185546875,1.41796875,1.42119140625,1.430859375,1.42119140625,1.41474609375,1.39541015625,1.40830078125,1.38896484375,1.39541015625,1.3857421875,1.3857421875,1.3857421875,1.38251953125,1.3857421875,1.38251953125,1.38251953125,1.38251953125,1.37607421875,1.3857421875,1.36318359375,1.38251953125,1.38251953125,1.3857421875,1.3921875,1.38896484375,1.3921875,1.3857421875,1.379296875,1.379296875,1.3921875,1.3857421875,1.38896484375,1.38896484375,1.38896484375,1.38896484375,1.38251953125,1.3857421875,1.379296875,1.3857421875,1.3857421875,1.38896484375,1.37607421875,1.38251953125,1.3857421875,1.3857421875,1.38896484375,1.37607421875,1.37607421875,1.36962890625,1.38251953125,1.3857421875,1.3728515625,1.379296875,1.37607421875,1.37607421875,1.379296875,1.37607421875,1.379296875,1.38251953125,1.3857421875,1.3857421875,1.38251953125,1.39541015625,1.3857421875,1.3986328125,1.3921875,1.40185546875,1.39541015625,1.41474609375,1.42119140625,1.42763671875,1.42763671875,1.379296875,1.37607421875,1.3599609375,1.36962890625,1.36318359375,1.3728515625,1.37607421875,1.36640625,1.36962890625,1.36318359375,1.38251953125,1.37607421875,1.3857421875,1.35029296875,1.3921875,1.37607421875,1.353515625,1.3599609375,1.508203125,1.7982421875,2.03994140625,2.0044921875,1.74345703125,1.49208984375,1.42763671875,1.405078125,1.38896484375,1.36962890625,1.35029296875,1.3728515625,1.353515625,1.35029296875,1.353515625,1.36962890625,1.36962890625,1.35029296875,1.36640625,1.35673828125,1.353515625,1.3470703125,1.3470703125,1.35673828125,1.353515625,1.36640625,1.36318359375,1.38251953125,1.36962890625,1.379296875,1.37607421875,1.38251953125,1.3921875,1.39541015625,1.40185546875,1.41796875,1.41796875,1.42119140625,1.42763671875,1.41796875,1.41796875,1.41474609375,1.39541015625,1.40185546875,1.3986328125,1.3986328125,1.38251953125,1.379296875,1.38251953125,1.3857421875,1.36962890625,1.36962890625,1.3857421875,1.379296875,1.38896484375,1.379296875,1.37607421875,1.38896484375,1.379296875,1.38251953125,1.3921875,1.3728515625,1.3921875,1.38251953125,1.3857421875,1.379296875,1.3857421875,1.3857421875,1.379296875,1.37607421875,1.379296875,1.38251953125,1.3921875,1.379296875,1.36640625,1.38251953125,1.38251953125,1.38251953125,1.37607421875,1.36640625,1.38251953125,1.379296875,1.37607421875,1.36640625,1.37607421875,1.38896484375,1.36640625,1.38896484375,1.37607421875,1.38251953125,1.36962890625,1.36962890625,1.379296875,1.379296875,1.36962890625,1.3857421875,1.38251953125,1.37607421875,1.38896484375,1.379296875,1.3728515625,1.38896484375,1.3857421875,1.36962890625,1.40830078125,1.41474609375,1.40830078125,1.40830078125,1.4244140625,1.42763671875,1.4244140625,1.38896484375,1.379296875,1.36640625,1.3857421875,1.3599609375,1.36640625,1.36640625,1.36962890625,1.36318359375,1.3728515625,1.379296875,1.3599609375,1.36318359375,1.38251953125,1.36962890625,1.37607421875,1.3599609375,1.340625,1.430859375,1.688671875,1.97548828125,2.08828125,1.93359375,1.62099609375,1.45341796875,1.42119140625,1.3986328125,1.379296875,1.35673828125,1.3599609375,1.3728515625,1.35673828125,1.35029296875,1.353515625,1.34384765625,1.35673828125,1.353515625,1.33740234375,1.35029296875,1.3470703125,1.3470703125,1.353515625,1.3599609375,1.353515625,1.36318359375,1.3599609375,1.36640625,1.3728515625,1.3728515625,1.3921875,1.379296875,1.40830078125,1.40185546875,1.41474609375,1.405078125,1.4244140625,1.42119140625,1.43408203125,1.4115234375,1.42119140625,1.41796875,1.40185546875,1.39541015625,1.3921875,1.3857421875,1.38251953125,1.36318359375,1.3921875,1.379296875,1.37607421875,1.37607421875,1.3728515625,1.39541015625,1.3857421875,1.37607421875,1.3921875,1.37607421875,1.3728515625,1.40185546875,1.38896484375,1.37607421875,1.38896484375,1.38251953125,1.39541015625,1.37607421875,1.38251953125,1.379296875,1.38896484375,1.3728515625,1.3921875,1.3921875,1.37607421875,1.3857421875,1.38251953125,1.38896484375,1.3857421875,1.38251953125,1.37607421875,1.38251953125,1.38251953125,1.38251953125,1.36962890625,1.38251953125,1.37607421875,1.36962890625,1.36962890625,1.379296875,1.36962890625,1.36640625,1.36962890625,1.3857421875,1.36962890625,1.3857421875,1.36962890625,1.38251953125,1.37607421875,1.3728515625,1.3986328125,1.3986328125,1.379296875,1.38896484375,1.3921875,1.40830078125,1.3857421875,1.3986328125,1.4115234375,1.4244140625,1.430859375,1.41796875,1.3921875,1.37607421875,1.36318359375,1.37607421875,1.3728515625,1.36318359375,1.36640625,1.3599609375,1.36640625,1.38896484375,1.38251953125,1.36318359375,1.36640625,1.379296875,1.39541015625,1.36962890625,1.36640625,1.33740234375,1.4115234375,1.64677734375,1.94326171875,2.0560546875,1.91748046875,1.5919921875,1.44375,1.405078125,1.3986328125,1.37607421875,1.379296875,1.3728515625,1.36962890625,1.36318359375,1.3599609375,1.35673828125,1.35029296875,1.353515625,1.35673828125,1.35673828125,1.36318359375,1.35673828125,1.35673828125,1.36640625,1.35673828125,1.3470703125,1.3599609375,1.3599609375,1.36640625,1.36962890625,1.379296875,1.379296875,1.38896484375,1.40185546875,1.39541015625,1.3986328125,1.405078125,1.4244140625,1.42763671875,1.4115234375,1.41796875,1.42119140625,1.405078125,1.3986328125,1.405078125,1.3986328125,1.38251953125,1.3857421875,1.3857421875,1.379296875,1.38251953125,1.379296875,1.38251953125,1.36640625,1.379296875,1.379296875,1.379296875,1.3921875,1.37607421875,1.38251953125,1.3857421875,1.39541015625,1.379296875,1.379296875,1.3857421875,1.38251953125,1.38251953125,1.38251953125,1.379296875,1.38251953125,1.38251953125,1.39541015625,1.38251953125,1.38251953125,1.379296875,1.38251953125,1.3728515625,1.3857421875,1.37607421875,1.3921875,1.3728515625,1.38251953125,1.37607421875,1.3728515625,1.38896484375,1.3857421875,1.379296875,1.379296875,1.3728515625,1.379296875,1.3599609375,1.38251953125,1.379296875,1.37607421875,1.379296875,1.379296875,1.38896484375,1.37607421875,1.3857421875,1.3857421875,1.3728515625,1.39541015625,1.40185546875,1.40830078125,1.405078125,1.40830078125,1.41474609375,1.41796875,1.39541015625,1.44697265625,1.5275390625,1.71123046875,1.76279296875,1.65,1.45341796875,1.31484375,1.27294921875,1.276171875,1.31484375,1.34384765625,1.3599609375,1.36318359375,1.379296875,1.3728515625,1.36640625,1.37607421875,1.379296875,1.3728515625,1.3921875,1.37607421875,1.37607421875,1.38251953125,1.3857421875,1.38896484375,1.38896484375,1.38896484375,1.3986328125,1.40185546875,1.41474609375,1.41796875,1.42763671875,1.44052734375,1.45986328125,1.45341796875,1.46953125,1.46953125,1.4759765625,1.47919921875,1.4759765625,1.48564453125,1.47275390625,1.45341796875,1.430859375,1.4244140625,1.40185546875,1.39541015625,1.40185546875,1.3857421875,1.38896484375,1.3857421875,1.38251953125,1.3921875,1.38251953125,1.38251953125,1.38896484375,1.38896484375,1.38896484375,1.3921875,1.38896484375,1.39541015625,1.40185546875,1.3921875,1.3921875,1.40830078125,1.40185546875,1.3921875,1.3921875,1.38896484375,1.3857421875,1.38896484375,1.39541015625,1.38896484375,1.38896484375,1.3857421875,1.38896484375,1.3857421875,1.36318359375,1.38251953125,1.38251953125,1.38896484375,1.379296875,1.3728515625,1.379296875,1.3857421875,1.37607421875,1.37607421875,1.379296875,1.38896484375,1.38896484375,1.36962890625,1.379296875,1.37607421875,1.379296875,1.37607421875,1.379296875,1.3728515625,1.3728515625,1.379296875,1.37607421875,1.379296875,1.37607421875,1.3921875,1.36962890625,1.379296875,1.3728515625,1.37607421875,1.37607421875,1.3728515625,1.38251953125,1.379296875,1.36962890625,1.379296875,1.379296875,1.3728515625,1.37607421875,1.3728515625,1.3728515625,1.379296875,1.38251953125,1.36962890625,1.38251953125,1.3921875,1.379296875,1.39541015625,1.40830078125,1.4115234375,1.405078125,1.40830078125,1.42763671875,1.430859375,1.41474609375,1.3728515625,1.36962890625,1.3857421875,1.3728515625,1.36962890625,1.36962890625,1.36640625,1.36640625,1.36962890625,1.37607421875,1.36640625,1.36962890625,1.36962890625,1.379296875,1.36318359375,1.34384765625,1.4244140625,1.65,1.959375,2.0818359375,1.94970703125,1.62421875,1.46630859375,1.41796875,1.40185546875,1.379296875,1.36962890625,1.36640625,1.353515625,1.353515625,1.353515625,1.35029296875,1.3599609375,1.35029296875,1.35029296875,1.3470703125,1.35673828125,1.3470703125,1.34384765625,1.353515625,1.353515625,1.353515625,1.36640625,1.36318359375,1.35673828125,1.37607421875,1.3728515625,1.379296875,1.37607421875,1.3986328125,1.40185546875,1.40830078125,1.41474609375,1.41474609375,1.41796875,1.42119140625,1.430859375,1.42119140625,1.40830078125,1.42119140625,1.40830078125,1.40185546875,1.379296875,1.38251953125,1.38251953125,1.3986328125,1.38251953125,1.38896484375,1.379296875,1.3921875,1.37607421875,1.38251953125,1.3921875,1.379296875,1.3857421875,1.39541015625,1.38896484375,1.379296875,1.39541015625,1.37607421875,1.3857421875,1.37607421875,1.39541015625,1.3728515625,1.38251953125,1.379296875,1.38896484375,1.3857421875,1.38251953125,1.379296875,1.36962890625,1.38251953125,1.38896484375,1.3857421875,1.38251953125,1.3728515625,1.3728515625,1.37607421875,1.38251953125,1.38251953125,1.3728515625,1.379296875,1.37607421875,1.3728515625,1.3728515625,1.37607421875,1.3728515625,1.36962890625,1.379296875,1.3728515625,1.38896484375,1.36962890625,1.36318359375,1.3728515625,1.3728515625,1.38251953125,1.38896484375,1.39541015625,1.38251953125,1.3921875,1.40830078125,1.405078125,1.3921875,1.41796875,1.41796875,1.4373046875,1.40185546875,1.3728515625,1.36318359375,1.36640625,1.36640625,1.36640625,1.36318359375,1.37607421875,1.36318359375,1.36640625,1.36318359375,1.36962890625,1.36318359375,1.37607421875,1.36318359375,1.36962890625,1.3728515625,1.33740234375,1.36640625,1.56298828125,1.85947265625,2.08828125,2.02705078125,1.7337890625,1.48564453125,1.41474609375,1.40830078125,1.38251953125,1.36318359375,1.353515625,1.3599609375,1.36640625,1.35029296875,1.353515625,1.34384765625,1.34384765625,1.35029296875,1.36640625,1.3470703125,1.340625,1.340625,1.36318359375,1.353515625,1.36318359375,1.3470703125,1.36318359375,1.3599609375,1.36318359375,1.37607421875,1.37607421875,1.379296875,1.3857421875,1.3986328125,1.38896484375,1.39541015625,1.405078125,1.41796875,1.430859375,1.42119140625,1.4115234375,1.41474609375,1.42119140625,1.405078125,1.38896484375,1.37607421875,1.38251953125,1.37607421875,1.3728515625,1.36962890625,1.38896484375,1.39541015625,1.3857421875,1.3728515625,1.38251953125,1.38251953125,1.379296875,1.38896484375,1.36962890625,1.36962890625,1.40185546875,1.3857421875,1.40185546875,1.379296875,1.38896484375,1.37607421875,1.3986328125,1.3921875,1.379296875,1.379296875,1.3857421875,1.3728515625,1.3728515625,1.3728515625,1.3857421875,1.38896484375,1.36962890625,1.38896484375,1.38251953125,1.37607421875,1.3728515625,1.3599609375,1.38896484375,1.379296875,1.3857421875,1.37607421875,1.379296875,1.38251953125,1.38896484375,1.3857421875,1.3857421875,1.38251953125,1.37607421875,1.3728515625,1.37607421875,1.3857421875,1.379296875,1.3857421875,1.38251953125,1.3986328125,1.38251953125,1.38896484375,1.41796875,1.42763671875,1.41474609375,1.41796875,1.4244140625,1.41796875,1.430859375,1.38251953125,1.36318359375,1.38251953125,1.36640625,1.379296875,1.379296875,1.3857421875,1.3728515625,1.36640625,1.37607421875,1.3728515625,1.38896484375,1.38251953125,1.379296875,1.379296875,1.36640625,1.379296875,1.36318359375,1.3599609375,1.4953125,1.80146484375,2.023828125,1.9787109375,1.740234375,1.482421875,1.430859375,1.39541015625,1.38896484375,1.38896484375,1.36962890625,1.36962890625,1.36318359375,1.36640625,1.36640625,1.36962890625,1.35673828125,1.35029296875,1.36640625,1.36318359375,1.3599609375,1.35673828125,1.353515625,1.353515625,1.36318359375,1.36962890625,1.3728515625,1.38251953125,1.3728515625,1.38251953125,1.3857421875,1.3921875,1.3921875,1.40185546875,1.40185546875,1.40830078125,1.41796875,1.4244140625,1.41474609375,1.41796875,1.41796875,1.40830078125,1.4115234375,1.405078125,1.40830078125,1.3857421875,1.3857421875,1.38896484375,1.3857421875,1.3728515625,1.38251953125,1.3857421875,1.3857421875,1.379296875,1.38251953125,1.38251953125,1.38896484375,1.3921875,1.3857421875,1.38251953125,1.3921875,1.3921875,1.38896484375,1.38896484375,1.38896484375,1.3857421875,1.38896484375,1.3921875,1.39541015625,1.38896484375,1.3986328125,1.38251953125,1.3986328125,1.379296875,1.379296875,1.379296875,1.38251953125,1.3857421875,1.38896484375,1.37607421875,1.38896484375,1.3728515625,1.379296875,1.36962890625,1.379296875,1.379296875,1.3728515625,1.37607421875,1.36962890625,1.37607421875,1.36962890625,1.37607421875,1.379296875,1.3728515625,1.37607421875,1.36962890625,1.36962890625,1.3728515625,1.3728515625,1.38896484375,1.36962890625,1.379296875,1.40185546875,1.3921875,1.39541015625,1.40185546875,1.4115234375,1.4244140625,1.4115234375,1.379296875,1.3728515625,1.35673828125,1.353515625,1.35673828125,1.36640625,1.353515625,1.353515625,1.353515625,1.35029296875,1.35673828125,1.35673828125,1.36640625,1.3599609375,1.35673828125,1.36962890625,1.3341796875,1.34384765625,1.482421875,1.76923828125,2.02060546875,2.0173828125,1.7853515625,1.4888671875,1.41796875,1.40185546875,1.36962890625,1.36640625,1.353515625,1.35673828125,1.35029296875,1.353515625,1.35029296875,1.34384765625,1.3470703125,1.35029296875,1.353515625,1.35029296875,1.35673828125,1.35673828125,1.340625,1.35673828125,1.353515625,1.36318359375,1.35029296875,1.36640625,1.37607421875,1.379296875,1.3986328125,1.39541015625,1.40830078125,1.40830078125
1.3921875,1.37607421875,1.38251953125,1.3857421875,1.39541015625,1.38251953125,1.38896484375,1.3921875,1.39541015625,1.38896484375,1.38896484375,1.39541015625,1.3921875,1.38896484375,1.38896484375,1.3921875,1.3986328125,1.40185546875,1.3986328125,1.38896484375,1.39541015625,1.40185546875,1.405078125,1.3857421875,1.3921875,1.39541015625,1.3986328125,1.3921875,1.3921875,1.3986328125,1.4115234375,1.42119140625,1.4115234375,1.40185546875,1.41474609375,1.41796875,1.40830078125,1.41474609375,1.41796875,1.3857421875,1.3728515625,1.379296875,1.37607421875,1.38251953125,1.36962890625,1.38896484375,1.36962890625,1.38251953125,1.36962890625,1.38896484375,1.38251953125,1.37607421875,1.379296875,1.38896484375,1.38251953125,1.38251953125,1.3599609375,1.40185546875,1.52109375,1.7208984375,1.869140625,1.8046875,1.61455078125,1.45986328125,1.40185546875,1.3857421875,1.38251953125,1.3728515625,1.3728515625,1.36640625,1.3728515625,1.3599609375,1.3599609375,1.353515625,1.36962890625,1.3599609375,1.3599609375,1.35673828125,1.36318359375,1.35029296875,1.353515625,1.353515625,1.35673828125,1.35673828125,1.3728515625,1.36318359375,1.36640625,1.38251953125,1.3728515625,1.38251953125,1.379296875,1.38896484375,1.3921875,1.3986328125,1.40185546875,1.4115234375,1.3986328125,1.4115234375,1.3921875,1.405078125,1.3921875,1.39541015625,1.39541015625,1.38251953125,1.38896484375,1.3857421875,1.3921875,1.38251953125,1.3857421875,1.38251953125,1.3857421875,1.38251953125,1.39541015625,1.379296875,1.38896484375,1.3857421875,1.40185546875,1.3857421875,1.3921875,1.38251953125,1.3921875,1.3857421875,1.38251953125,1.38251953125,1.40185546875,1.379296875,1.3921875,1.3857421875,1.39541015625,1.3921875,1.3921875,1.3857421875,1.3921875,1.38896484375,1.379296875,1.39541015625,1.3921875,1.38896484375,1.3857421875,1.39541015625,1.379296875,1.3986328125,1.379296875,1.39541015625,1.379296875,1.38896484375,1.38896484375,1.38896484375,1.38251953125,1.38896484375,1.3921875,1.3857421875,1.3921875,1.39541015625,1.3986328125,1.38896484375,1.41796875,1.4115234375,1.4244140625,1.430859375,1.430859375,1.40830078125,1.39541015625,1.379296875,1.38251953125,1.379296875,1.38251953125,1.379296875,1.3857421875,1.3728515625,1.3728515625,1.379296875,1.38896484375,1.379296875,1.38896484375,1.3857421875,1.379296875,1.3728515625,1.36962890625,1.456640625,1.64033203125,1.84013671875,1.869140625,1.7080078125,1.49208984375,1.42763671875,1.38896484375,1.3857421875,1.37607421875,1.36962890625,1.35673828125,1.379296875,1.3599609375,1.36640625,1.3599609375,1.36318359375,1.353515625,1.36318359375,1.353515625,1.36318359375,1.3599609375,1.3728515625,1.3599609375,1.36318359375,1.35673828125,1.3470703125,1.36640625,1.36640625,1.37607421875,1.36962890625,1.379296875,1.37607421875,1.3857421875,1.39541015625,1.3986328125,1.3921875,1.4115234375,1.39541015625,1.4115234375,1.39541015625,1.40830078125,1.39541015625,1.39541015625,1.3857421875,1.39541015625,1.3921875,1.3857421875,1.38896484375,1.39541015625,1.38896484375,1.3921875,1.3921875,1.3857421875,1.37607421875,1.39541015625,1.3857421875,1.37607421875,1.405078125,1.37607421875,1.38896484375,1.38896484375,1.38251953125,1.3921875,1.40185546875,1.38896484375,1.38896484375,1.3857421875,1.40185546875,1.3986328125,1.405078125,1.379296875,1.3986328125,1.3921875,1.3857421875,1.38251953125,1.39541015625,1.38896484375,1.3857421875,1.38896484375,1.3921875,1.3857421875,1.3857421875,1.3921875,1.38251953125,1.3921875,1.3986328125,1.41474609375,1.39541015625,1.40185546875,1.3986328125,1.4244140625,1.42763671875,1.42763671875,1.41474609375,1.38896484375,1.36962890625,1.38251953125,1.38251953125,1.37607421875,1.3857421875,1.38251953125,1.38896484375,1.3728515625,1.3728515625,1.36962890625,1.37607421875,1.3728515625,1.3857421875,1.3857421875,1.3921875,1.38251953125,1.36640625,1.3986328125,1.51142578125,1.6951171875,1.85302734375,1.817578125,1.62744140625,1.4501953125,1.39541015625,1.3921875,1.3857421875,1.37607421875,1.379296875,1.36962890625,1.36640625,1.36962890625,1.36640625,1.3728515625,1.36318359375,1.37607421875,1.353515625,1.3470703125,1.35029296875,1.353515625,1.35673828125,1.3599609375,1.3599609375,1.3728515625,1.36640625,1.379296875,1.36640625,1.38251953125,1.3728515625,1.38251953125,1.37607421875,1.3921875,1.38251953125,1.40185546875,1.41474609375,1.405078125,1.405078125,1.405078125,1.3921875,1.3857421875,1.3921875,1.379296875,1.39541015625,1.379296875,1.3857421875,1.3857421875,1.38251953125,1.379296875,1.3921875,1.379296875,1.39541015625,1.3857421875,1.38251953125,1.38251953125,1.38251953125,1.38896484375,1.3986328125,1.38896484375,1.38251953125,1.38896484375,1.39541015625,1.3921875,1.3857421875,1.39541015625,1.3857421875,1.39541015625,1.39541015625,1.39541015625,1.3857421875,1.3921875,1.3921875,1.3921875,1.38251953125,1.40185546875,1.38896484375,1.3921875,1.38896484375,1.3921875,1.3857421875,1.3857421875,1.38896484375,1.3921875,1.3921875,1.38896484375,1.39541015625,1.40185546875,1.40185546875,1.4115234375,1.4244140625,1.41796875,1.4244140625,1.42763671875,1.38896484375,1.379296875,1.3857421875,1.37607421875,1.3857421875,1.3728515625,1.38251953125,1.38896484375,1.37607421875,1.38251953125,1.39541015625,1.37607421875,1.3857421875,1.38251953125,1.38896484375,1.38896484375,1.36640625,1.36962890625,1.44375,1.637109375,1.817578125,1.83369140625,1.7080078125,1.4953125,1.41474609375,1.38896484375,1.36962890625,1.379296875,1.36318359375,1.36962890625,1.36640625,1.37607421875,1.3599609375,1.36962890625,1.3599609375,1.36640625,1.3599609375,1.35673828125,1.36318359375,1.36318359375,1.36962890625,1.35673828125,1.3599609375,1.35029296875,1.36318359375,1.36640625,1.36962890625,1.36640625,1.3857421875,1.37607421875,1.3857421875,1.379296875,1.39541015625,1.3921875,1.40830078125,1.3986328125,1.405078125,1.40185546875,1.405078125,1.3986328125,1.38896484375,1.40185546875,1.40185546875,1.3857421875,1.3921875,1.39541015625,1.3857421875,1.38896484375,1.3921875,1.39541015625,1.39541015625,1.3857421875,1.38251953125,1.39541015625,1.3857421875,1.379296875,1.3857421875,1.3986328125,1.38896484375,1.3857421875,1.3728515625,1.38896484375,1.3921875,1.38251953125,1.379296875,1.3986328125,1.3857421875,1.3921875,1.38896484375,1.38896484375,1.38896484375,1.39541015625,1.38896484375,1.379296875,1.3986328125,1.3857421875,1.405078125,1.379296875,1.3921875,1.3921875,1.40185546875,1.38896484375,1.3857421875,1.37607421875,1.39541015625,1.379296875,1.39541015625,1.38896484375,1.3921875,1.38896484375,1.3986328125,1.3986328125,1.4115234375,1.40830078125,1.40830078125,1.42763671875,1.42763671875,1.42119140625,1.3986328125,1.40185546875,1.37607421875,1.3857421875,1.36640625,1.3857421875,1.379296875,1.37607421875,1.379296875,1.379296875,1.3728515625,1.379296875,1.37607421875,1.37607421875,1.38896484375,1.38251953125,1.36962890625,1.3921875,1.48564453125,1.67578125,1.8369140625,1.85625,1.6822265625,1.48564453125,1.4115234375,1.3986328125,1.38251953125,1.3728515625,1.37607421875,1.36640625,1.36962890625,1.3599609375,1.3728515625,1.353515625,1.353515625,1.353515625,1.35673828125,1.35673828125,1.35673828125,1.3599609375,1.35029296875,1.3599609375,1.36318359375,1.36318359375,1.3599609375,1.36318359375,1.3728515625,1.3728515625,1.37607421875,1.379296875,1.3857421875,1.40185546875,1.405078125,1.3986328125,1.405078125,1.4115234375,1.40830078125,1.41474609375,1.3921875,1.41796875,1.3857421875,1.3921875,1.37607421875,1.39541015625,1.3857421875,1.3986328125,1.38896484375,1.3921875,1.37607421875,1.38251953125,1.37607421875,1.3921875,1.3921875,1.3921875,1.38896484375,1.38896484375,1.39541015625,1.3857421875,1.3921875,1.37607421875,1.38896484375,1.38251953125,1.3857421875,1.3857421875,1.37607421875,1.3857421875,1.3857421875,1.38896484375,1.3921875,1.38896484375,1.39541015625,1.37607421875,1.38896484375,1.38251953125,1.38896484375,1.3986328125,1.38251953125,1.38896484375,1.38896484375,1.39541015625,1.379296875,1.40185546875,1.38896484375,1.3921875,1.3921875,1.38896484375,1.38251953125,1.40830078125,1.39541015625,1.3921875,1.38896484375,1.405078125,1.40185546875,1.405078125,1.41796875,1.42119140625,1.40830078125,1.39541015625,1.36962890625,1.3728515625,1.37607421875,1.39541015625,1.38896484375,1.36962890625,1.379296875,1.379296875,1.38896484375,1.3728515625,1.3921875,1.38896484375,1.39541015625,1.3857421875,1.36640625,1.3728515625,1.46953125,1.637109375,1.843359375,1.85302734375,1.72412109375,1.4888671875,1.42119140625,1.39541015625,1.38896484375,1.379296875,1.36640625,1.36640625,1.36318359375,1.36640625,1.35673828125,1.3599609375,1.353515625,1.36640625,1.353515625,1.34384765625,1.36318359375,1.36640625,1.36318359375,1.353515625,1.353515625,1.3599609375,1.353515625,1.3599609375,1.36962890625,1.37607421875,1.36962890625,1.3857421875,1.38251953125,1.3986328125,1.405078125,1.405078125,1.3986328125,1.41474609375,1.40830078125,1.41796875,1.405078125,1.405078125,1.3921875,1.3857421875,1.38251953125,1.38251953125,1.38896484375,1.38896484375,1.3857421875,1.3857421875,1.3921875,1.38251953125,1.38251953125,1.379296875,1.3921875,1.3857421875,1.38896484375,1.38251953125,1.38251953125,1.38896484375,1.39541015625,1.38896484375,1.37607421875,1.3857421875,1.3921875,1.3857421875,1.3986328125,1.37607421875,1.3921875,1.38896484375,1.3857421875,1.3921875,1.3857421875,1.40185546875,1.38251953125,1.38251953125,1.3857421875,1.3857421875,1.37607421875,1.40185546875,1.3921875,1.38896484375,1.37607421875,1.3921875,1.38896484375,1.379296875,1.38896484375,1.40830078125,1.4115234375,1.405078125,1.41796875,1.4244140625,1.4244140625,1.4244140625,1.3921875,1.379296875,1.3857421875,1.379296875,1.379296875,1.39541015625,1.37607421875,1.379296875,1.3857421875,1.37607421875,1.3857421875,1.36962890625,1.3857421875,1.379296875,1.3921875,1.379296875,1.3857421875,1.3599609375,1.39541015625,1.51787109375,1.714453125,1.84658203125,1.80146484375,1.5984375,1.45341796875,1.40830078125,1.39541015625,1.36962890625,1.3728515625,1.3728515625,1.36318359375,1.36640625,1.36318359375,1.36640625,1.36318359375,1.36640625,1.36318359375,1.36640625,1.35673828125,1.3599609375,1.3599609375,1.35029296875,1.36318359375,1.353515625,1.36962890625,1.3599609375,1.3728515625,1.3728515625,1.37607421875,1.3728515625,1.38896484375,1.3857421875,1.40185546875,1.3857421875,1.39541015625,1.405078125,1.41474609375,1.3986328125,1.3986328125,1.3986328125,1.405078125,1.39541015625,1.3921875,1.38251953125,1.3986328125,1.38896484375,1.38251953125,1.3857421875,1.39541015625,1.38251953125,1.38251953125,1.38896484375,1.38896484375,1.3857421875,1.3857421875,1.40185546875,1.37607421875,1.38251953125,1.3857421875,1.39541015625,1.38251953125,1.38896484375,1.37607421875,1.3857421875,1.38896484375,1.3857421875,1.379296875,1.405078125,1.3857421875,1.38896484375,1.38896484375,1.39541015625,1.40185546875,1.3857421875,1.3857421875,1.3986328125,1.38896484375,1.37607421875,1.3986328125,1.3921875,1.405078125,1.3986328125,1.4115234375,1.3986328125,1.405078125,1.41474609375,1.40185546875,1.40830078125,1.41474609375,1.4244140625,1.42119140625,1.430859375,1.405078125,1.3728515625,1.3857421875,1.379296875,1.379296875,1.37607421875,1.38251953125,1.38251953125,1.38896484375,1.3728515625,1.3728515625,1.3857421875,1.35673828125,1.38251953125,1.3921875,1.3857421875,1.36318359375,1.3728515625,1.44697265625,1.6306640625,1.7982421875,1.85302734375,1.714453125,1.53076171875,1.41474609375,1.405078125,1.379296875,1.37607421875,1.36318359375,1.3921875,1.36318359375,1.35673828125,1.36318359375,1.35673828125,1.3599609375,1.3599609375,1.36318359375,1.353515625,1.36318359375,1.35673828125,1.353515625,1.35029296875,1.36640625,1.36318359375,1.36318359375,1.353515625,1.38251953125,1.36962890625,1.36962890625,1.379296875,1.379296875,1.3857421875,1.3986328125,1.3986328125,1.405078125,1.4115234375,1.4115234375,1.4115234375,1.40830078125,1.40185546875,1.3986328125,1.3921875,1.3921875,1.39541015625,1.3857421875,1.39541015625,1.3857421875,1.3986328125,1.38896484375,1.38896484375,1.379296875,1.3921875,1.38251953125,1.38896484375,1.3857421875,1.38251953125,1.38896484375,1.3921875,1.38251953125,1.3921875,1.39541015625,1.3921875,1.38896484375,1.3857421875,1.379296875,1.38896484375,1.379296875,1.3857421875,1.3921875,1.3857421875,1.3857421875,1.38251953125,1.38896484375,1.3857421875,1.3857421875,1.3857421875,1.39541015625,1.38251953125,1.3857421875,1.3857421875,1.38251953125,1.38251953125,1.38896484375,1.39541015625,1.3921875,1.39541015625,1.38251953125,1.3986328125,1.40830078125,1.405078125,1.40830078125,1.4244140625,1.42119140625,1.41474609375,1.3857421875,1.38251953125,1.379296875,1.3857421875,1.3728515625,1.38251953125,1.37607421875,1.38896484375,1.36640625,1.38251953125,1.38251953125,1.38896484375,1.38251953125,1.379296875,1.37607421875,1.379296875,1.37607421875,1.35673828125,1.3986328125,1.52431640625,1.7337890625,1.869140625,1.83369140625,1.611328125,1.45986328125,1.3986328125,1.40185546875,1.36962890625,1.37607421875,1.36318359375,1.36962890625,1.353515625,1.3599609375,1.353515625,1.36640625,1.3470703125,1.35673828125,1.3470703125,1.36318359375,1.3599609375,1.35673828125,1.3599609375,1.36318359375,1.34384765625,1.35673828125,1.3599609375,1.36962890625,1.3728515625,1.36962890625,1.3857421875,1.37607421875,1.3921875,1.40185546875,1.3921875,1.40830078125,1.4115234375,1.39541015625,1.40185546875,1.40185546875,1.405078125,1.3921875,1.39541015625,1.3921875,1.3921875,1.38896484375,1.3986328125,1.38251953125,1.38251953125,1.3921875,1.39541015625,1.3857421875,1.3921875,1.3921875,1.38896484375,1.39541015625,1.3857421875,1.38896484375,1.38896484375,1.38896484375,1.379296875,1.39541015625,1.379296875,1.3921875,1.379296875,1.3857421875,1.3857421875,1.39541015625,1.38896484375,1.39541015625,1.37607421875,1.3857421875,1.38896484375,1.38896484375,1.379296875,1.38896484375,1.3921875,1.3857421875,1.379296875,1.39541015625,1.3921875,1.3921875,1.3986328125,1.38896484375,1.3986328125,1.3921875,1.39541015625,1.3921875,1.39541015625,1.39541015625,1.4115234375,1.41474609375,1.42763671875,1.42763671875,1.4244140625,1.40185546875,1.3857421875,1.37607421875,1.36962890625,1.37607421875,1.38896484375,1.3728515625,1.38896484375,1.379296875,1.3921875,1.379296875,1.3857421875,1.38896484375,1.379296875,1.38896484375,1.3728515625,1.3986328125,1.35673828125,1.40830078125,1.533984375,1.73701171875,1.86591796875,1.82080078125,1.60810546875,1.46630859375,1.40830078125,1.40185546875,1.38251953125,1.37607421875,1.36318359375,1.36962890625,1.379296875,1.3728515625,1.36962890625,1.36640625,1.36640625,1.36640625,1.3728515625,1.35673828125,1.36318359375,1.353515625,1.36318359375,1.3599609375,1.353515625,1.36640625,1.3728515625,1.353515625,1.3728515625,1.3599609375,1.38251953125,1.3857421875,1.3986328125,1.3986328125,1.405078125,1.40830078125,1.41796875,1.41474609375,1.4115234375,1.40830078125,1.3986328125,1.3921875,1.40185546875,1.3921875,1.40185546875,1.38896484375,1.3857421875,1.3921875,1.3857421875,1.3857421875,1.38251953125,1.3921875,1.379296875,1.3986328125,1.379296875,1.3921875,1.38251953125,1.3857421875,1.38896484375,1.38896484375,1.3857421875,1.37607421875,1.36962890625,1.3921875,1.38896484375,1.37607421875,1.38896484375,1.37607421875,1.39541015625,1.379296875,1.3857421875,1.38896484375,1.379296875,1.37607421875,1.3921875,1.379296875,1.3857421875,1.3857421875,1.3857421875,1.3857421875,1.38251953125,1.3728515625,1.3857421875,1.38251953125,1.3857421875,1.379296875,1.3857421875,1.3986328125,1.39541015625,1.40185546875,1.40185546875,1.405078125,1.40830078125,1.44052734375,1.4244140625,1.39541015625,1.3728515625,1.37607421875,1.36962890625,1.379296875,1.36962890625,1.37607421875,1.36318359375,1.379296875,1.36962890625,1.379296875,1.37607421875,1.38896484375,1.37607421875,1.3857421875,1.36962890625,1.38251953125,1.35673828125,1.39541015625,1.51142578125,1.70478515625,1.83369140625,1.80791015625,1.60810546875,1.44052734375,1.405078125,1.37607421875,1.379296875,1.3728515625,1.36318359375,1.3599609375,1.36318359375,1.35673828125,1.3599609375,1.3599609375,1.36318359375,1.35029296875,1.36640625,1.35029296875,1.353515625,1.34384765625,1.36640625,1.35029296875,1.35673828125,1.37607421875,1.3599609375,1.3728515625,1.36318359375,1.3857421875,1.3921875,1.38896484375,1.405078125,1.3986328125,1.3986328125,1.41796875,1.40830078125,1.4115234375,1.40830078125,1.42119140625,1.405078125,1.40830078125,1.4115234375,1.405078125
1.3857421875,1.3857421875,1.3857421875,1.39541015625,1.379296875,1.38896484375,1.37607421875,1.38251953125,1.3921875,1.3921875,1.38251953125,1.3857421875,1.38251953125,1.38896484375,1.3857421875,1.40185546875,1.3921875,1.3857421875,1.38251953125,1.3857421875,1.39541015625,1.38896484375,1.3921875,1.39541015625,1.3857421875,1.3728515625,1.379296875,1.3921875,1.3921875,1.3986328125,1.38896484375,1.39541015625,1.405078125,1.39541015625,1.40830078125,1.405078125,1.3986328125,1.3921875,1.430859375,1.44375,1.4115234375,1.3921875,1.36962890625,1.3921875,1.379296875,1.37607421875,1.37607421875,1.38896484375,1.38251953125,1.3728515625,1.38251953125,1.38896484375,1.36640625,1.37607421875,1.38251953125,1.38896484375,1.38251953125,1.3857421875,1.36318359375,1.3921875,1.53076171875,1.73056640625,1.87236328125,1.8046875,1.585546875,1.44375,1.40830078125,1.379296875,1.37607421875,1.36318359375,1.379296875,1.36640625,1.36962890625,1.34384765625,1.35673828125,1.35673828125,1.36962890625,1.353515625,1.36318359375,1.35673828125,1.3599609375,1.35673828125,1.36640625,1.35673828125,1.3728515625,1.35673828125,1.36962890625,1.36640625,1.36962890625,1.3728515625,1.3728515625,1.379296875,1.3857421875,1.39541015625,1.3921875,1.4115234375,1.3986328125,1.41796875,1.38896484375,1.405078125,1.3921875,1.40830078125,1.38251953125,1.3921875,1.38251953125,1.3921875,1.3857421875,1.3857421875,1.3857421875,1.3986328125,1.3857421875,1.38251953125,1.3728515625,1.3921875,1.38896484375,1.3857421875,1.38896484375,1.36962890625,1.3921875,1.38896484375,1.379296875,1.3728515625,1.38896484375,1.3857421875,1.39541015625,1.38251953125,1.3921875,1.3986328125,1.3921875,1.3857421875,1.39541015625,1.3857421875,1.3986328125,1.3857421875,1.38251953125,1.39541015625,1.405078125,1.38896484375,1.40185546875,1.40185546875,1.3921875,1.40185546875,1.40830078125,1.405078125,1.40185546875,1.41474609375,1.41474609375,1.4115234375,1.42119140625,1.4244140625,1.39541015625,1.39541015625,1.379296875,1.3857421875,1.37607421875,1.3857421875,1.37607421875,1.3921875,1.3728515625,1.3857421875,1.38251953125,1.37607421875,1.3921875,1.38896484375,1.38251953125,1.3857421875,1.37607421875,1.3599609375,1.4115234375,1.51142578125,1.72412109375,1.82724609375,1.7853515625,1.5662109375,1.44375,1.39541015625,1.3921875,1.38251953125,1.379296875,1.3599609375,1.3728515625,1.35029296875,1.38251953125,1.3599609375,1.36640625,1.35673828125,1.35673828125,1.36318359375,1.36962890625,1.3599609375,1.353515625,1.36640625,1.36318359375,1.3599609375,1.3599609375,1.37607421875,1.36640625,1.36962890625,1.3728515625,1.3857421875,1.3728515625,1.3857421875,1.38251953125,1.4115234375,1.39541015625,1.41474609375,1.40830078125,1.4115234375,1.40185546875,1.40185546875,1.3921875,1.405078125,1.3857421875,1.40185546875,1.3986328125,1.3857421875,1.3986328125,1.38896484375,1.38896484375,1.379296875,1.3986328125,1.38251953125,1.3857421875,1.379296875,1.38251953125,1.3857421875,1.3857421875,1.379296875,1.379296875,1.3857421875,1.38251953125,1.379296875,1.3921875,1.3921875,1.38896484375,1.39541015625,1.39541015625,1.39541015625,1.39541015625,1.38251953125,1.38896484375,1.40830078125,1.38896484375,1.3986328125,1.3857421875,1.39541015625,1.3728515625,1.3986328125,1.37607421875,1.3921875,1.379296875,1.38896484375,1.37607421875,1.3728515625,1.38251953125,1.39541015625,1.38896484375,1.40185546875,1.38896484375,1.40185546875,1.3857421875,1.4115234375,1.39541015625,1.41796875,1.44375,1.42763671875,1.41796875,1.37607421875,1.38251953125,1.38251953125,1.3921875,1.38251953125,1.38251953125,1.36962890625,1.3728515625,1.37607421875,1.379296875,1.38251953125,1.38896484375,1.37607421875,1.38251953125,1.3857421875,1.379296875,1.35029296875,1.3986328125,1.4953125,1.6951171875,1.8369140625,1.84658203125,1.65322265625,1.47275390625,1.40185546875,1.40185546875,1.36640625,1.37607421875,1.38251953125,1.3599609375,1.36962890625,1.36318359375,1.3728515625,1.35673828125,1.3599609375,1.35673828125,1.35673828125,1.35673828125,1.353515625,1.35029296875,1.36318359375,1.35673828125,1.36962890625,1.3599609375,1.36962890625,1.36962890625,1.3728515625,1.37607421875,1.3921875,1.3857421875,1.3857421875,1.3986328125,1.39541015625,1.41796875,1.405078125,1.41474609375,1.40185546875,1.40185546875,1.3921875,1.40830078125,1.3986328125,1.38896484375,1.38896484375,1.3986328125,1.3857421875,1.39541015625,1.3921875,1.3921875,1.38896484375,1.39541015625,1.38251953125,1.3857421875,1.38251953125,1.3921875,1.3921875,1.38251953125,1.3921875,1.379296875,1.3921875,1.39541015625,1.39541015625,1.38896484375,1.3857421875,1.38251953125,1.38896484375,1.3857421875,1.38896484375,1.3857421875,1.379296875,1.3857421875,1.3857421875,1.3857421875,1.3857421875,1.39541015625,1.39541015625,1.39541015625,1.38251953125,1.40185546875,1.3857421875,1.38896484375,1.38896484375,1.38251953125,1.39541015625,1.38896484375,1.38896484375,1.38896484375,1.38251953125,1.3921875,1.405078125,1.40830078125,1.4115234375,1.44697265625,1.41474609375,1.41796875,1.38251953125,1.3921875,1.38251953125,1.38896484375,1.38251953125,1.37607421875,1.379296875,1.3857421875,1.37607421875,1.38896484375,1.3857421875,1.379296875,1.39541015625,1.379296875,1.38896484375,1.379296875,1.39541015625,1.3857421875,1.353515625,1.3921875,1.51142578125,1.69833984375,1.8498046875,1.8240234375,1.6177734375,1.45986328125,1.41474609375,1.38896484375,1.379296875,1.36962890625,1.36640625,1.36962890625,1.36318359375,1.3599609375,1.3599609375,1.36640625,1.353515625,1.3599609375,1.36318359375,1.36318359375,1.34384765625,1.35673828125,1.35029296875,1.3599609375,1.35029296875,1.35029296875,1.36962890625,1.353515625,1.37607421875,1.3728515625,1.379296875,1.38251953125,1.38896484375,1.38896484375,1.38896484375,1.4115234375,1.405078125,1.40185546875,1.4244140625,1.4115234375,1.41474609375,1.3986328125,1.40830078125,1.40185546875,1.3921875,1.38251953125,1.38896484375,1.38251953125,1.3857421875,1.40185546875,1.40185546875,1.3728515625,1.38251953125,1.379296875,1.38896484375,1.3921875,1.3921875,1.3857421875,1.3921875,1.38251953125,1.38896484375,1.39541015625,1.379296875,1.38251953125,1.38251953125,1.38896484375,1.3857421875,1.3986328125,1.379296875,1.38896484375,1.379296875,1.3857421875,1.379296875,1.3857421875,1.37607421875,1.38896484375,1.38896484375,1.3986328125,1.38896484375,1.39541015625,1.3857421875,1.3921875,1.38251953125,1.3986328125,1.3857421875,1.3857421875,1.3921875,1.3921875,1.40185546875,1.40185546875,1.41474609375,1.41474609375,1.43408203125,1.430859375,1.43408203125,1.3921875,1.379296875,1.379296875,1.37607421875,1.37607421875,1.37607421875,1.36640625,1.3921875,1.379296875,1.39541015625,1.379296875,1.3857421875,1.38251953125,1.3857421875,1.379296875,1.38251953125,1.38896484375,1.35673828125,1.3986328125,1.51142578125,1.6951171875,1.83046875,1.83369140625,1.6048828125,1.46953125,1.405078125,1.40185546875,1.3728515625,1.379296875,1.36962890625,1.36640625,1.36318359375,1.36640625,1.36318359375,1.3599609375,1.3599609375,1.3728515625,1.35673828125,1.3599609375,1.36318359375,1.35673828125,1.35673828125,1.35029296875,1.36318359375,1.36318359375,1.36640625,1.36640625,1.37607421875,1.379296875,1.40185546875,1.379296875,1.38251953125,1.38251953125,1.41474609375,1.40185546875,1.405078125,1.40830078125,1.41474609375,1.40185546875,1.405078125,1.39541015625,1.3921875,1.39541015625,1.39541015625,1.39541015625,1.3921875,1.3921875,1.38251953125,1.379296875,1.3857421875,1.40830078125,1.3921875,1.38896484375,1.38896484375,1.3921875,1.379296875,1.3921875,1.38251953125,1.3857421875,1.3728515625,1.38251953125,1.38251953125,1.3921875,1.38251953125,1.3857421875,1.39541015625,1.379296875,1.3857421875,1.38896484375,1.38896484375,1.38896484375,1.38896484375,1.3857421875,1.38896484375,1.3986328125,1.38251953125,1.3921875,1.3921875,1.38251953125,1.40185546875,1.3921875,1.3921875,1.3921875,1.3921875,1.3857421875,1.3921875,1.37607421875,1.40185546875,1.38896484375,1.3986328125,1.38896484375,1.40185546875,1.4115234375,1.42119140625,1.405078125,1.42119140625,1.41474609375,1.43408203125,1.41474609375,1.379296875,1.3857421875,1.38251953125,1.379296875,1.38251953125,1.38896484375,1.38896484375,1.3857421875,1.379296875,1.379296875,1.3857421875,1.379296875,1.379296875,1.37607421875,1.38896484375,1.38251953125,1.3470703125,1.4115234375,1.5533203125,1.74990234375,1.85625,1.8046875,1.5791015625,1.4373046875,1.41474609375,1.3921875,1.379296875,1.3728515625,1.36962890625,1.36318359375,1.36318359375,1.35673828125,1.37607421875,1.353515625,1.36962890625,1.3470703125,1.3599609375,1.353515625,1.36318359375,1.33740234375,1.36318359375,1.35029296875,1.35673828125,1.35673828125,1.36962890625,1.36318359375,1.3728515625,1.36962890625,1.3857421875,1.379296875,1.39541015625,1.405078125,1.40185546875,1.42119140625,1.405078125,1.41474609375,1.41474609375,1.3921875,1.3986328125,1.40185546875,1.38896484375,1.38251953125,1.37607421875,1.39541015625,1.3857421875,1.3921875,1.3921875,1.3857421875,1.37607421875,1.3921875,1.38251953125,1.3857421875,1.3921875,1.38896484375,1.39541015625,1.3857421875,1.39541015625,1.379296875,1.3857421875,1.37607421875,1.38251953125,1.38251953125,1.3857421875,1.3857421875,1.379296875,1.379296875,1.38896484375,1.379296875,1.379296875,1.3857421875,1.38896484375,1.405078125,1.39541015625,1.379296875,1.38251953125,1.38896484375,1.3921875,1.38251953125,1.3857421875,1.3986328125,1.38896484375,1.4115234375,1.3921875,1.3986328125,1.3857421875,1.41474609375,1.4115234375,1.405078125,1.40830078125,1.41474609375,1.42763671875,1.4115234375,1.37607421875,1.3728515625,1.379296875,1.38251953125,1.3728515625,1.379296875,1.38251953125,1.3857421875,1.3728515625,1.36962890625,1.38251953125,1.38251953125,1.379296875,1.379296875,1.379296875,1.379296875,1.379296875,1.3728515625,1.3599609375,1.430859375,1.59521484375,1.78857421875,1.8755859375,1.78212890625,1.5533203125,1.4373046875,1.405078125,1.38251953125,1.379296875,1.3728515625,1.3728515625,1.36962890625,1.3599609375,1.36962890625,1.35673828125,1.35673828125,1.36318359375,1.3599609375,1.3599609375,1.3599609375,1.35029296875,1.35029296875,1.35029296875,1.3470703125,1.3599609375,1.353515625,1.353515625,1.3728515625,1.36640625,1.3728515625,1.3921875,1.39541015625,1.38896484375,1.405078125,1.40185546875,1.41474609375,1.405078125,1.41796875,1.40185546875,1.4115234375,1.39541015625,1.40185546875,1.39541015625,1.40185546875,1.3857421875,1.3921875,1.40830078125,1.3857421875,1.3921875,1.38896484375,1.379296875,1.37607421875,1.3986328125,1.379296875,1.3921875,1.38251953125,1.40830078125,1.37607421875,1.38251953125,1.38251953125,1.3857421875,1.3857421875,1.38896484375,1.3857421875,1.38251953125,1.38251953125,1.38896484375,1.38251953125,1.3857421875,1.3857421875,1.38251953125,1.39541015625,1.379296875,1.3921875,1.3857421875,1.39541015625,1.38251953125,1.39541015625,1.38896484375,1.405078125,1.38896484375,1.3986328125,1.40185546875,1.405078125,1.40185546875,1.4115234375,1.4115234375,1.3986328125,1.4115234375,1.4244140625,1.430859375,1.405078125,1.37607421875,1.379296875,1.38251953125,1.3728515625,1.38251953125,1.37607421875,1.379296875,1.38251953125,1.37607421875,1.3728515625,1.38251953125,1.3728515625,1.39541015625,1.38251953125,1.37607421875,1.379296875,1.3728515625,1.36318359375,1.456640625,1.62744140625,1.8240234375,1.85302734375,1.7080078125,1.4888671875,1.4115234375,1.3986328125,1.38251953125,1.379296875,1.3599609375,1.38251953125,1.3599609375,1.36640625,1.3599609375,1.38251953125,1.34384765625,1.36640625,1.35029296875,1.36318359375,1.353515625,1.353515625,1.36962890625,1.35673828125,1.35673828125,1.35029296875,1.3470703125,1.36318359375,1.36318359375,1.36318359375,1.38251953125,1.3857421875,1.3986328125,1.38251953125,1.3986328125,1.41474609375,1.40830078125,1.4244140625,1.41796875,1.405078125,1.40830078125,1.38896484375,1.3986328125,1.38251953125,1.39541015625,1.39541015625,1.40185546875,1.3857421875,1.3857421875,1.38896484375,1.38896484375,1.3857421875,1.38251953125,1.3857421875,1.379296875,1.38251953125,1.3857421875,1.3921875,1.3857421875,1.39541015625,1.3857421875,1.38251953125,1.37607421875,1.38896484375,1.38251953125,1.38251953125,1.3857421875,1.38896484375,1.37607421875,1.3986328125,1.39541015625,1.39541015625,1.38896484375,1.40185546875,1.39541015625,1.3921875,1.379296875,1.38896484375,1.3921875,1.38896484375,1.38251953125,1.38896484375,1.3857421875,1.3921875,1.38896484375,1.405078125,1.40185546875,1.40185546875,1.40830078125,1.3921875,1.41796875,1.40830078125,1.41474609375,1.4244140625,1.430859375,1.39541015625,1.379296875,1.379296875,1.38896484375,1.3728515625,1.38896484375,1.3728515625,1.38251953125,1.3728515625,1.379296875,1.379296875,1.3857421875,1.3857421875,1.37607421875,1.39541015625,1.38251953125,1.38251953125,1.379296875,1.35673828125,1.405078125,1.546875,1.7208984375,1.843359375,1.80146484375,1.58232421875,1.44052734375,1.3986328125,1.379296875,1.38251953125,1.36640625,1.36640625,1.36640625,1.3599609375,1.3599609375,1.3599609375,1.3599609375,1.36640625,1.36318359375,1.36640625,1.3599609375,1.35673828125,1.35673828125,1.3599609375,1.36318359375,1.35673828125,1.3599609375,1.36962890625,1.37607421875,1.36640625,1.36640625,1.36962890625,1.39541015625,1.405078125,1.39541015625,1.39541015625,1.3986328125,1.40830078125,1.405078125,1.40185546875,1.41474609375,1.40185546875,1.39541015625,1.39541015625,1.38896484375,1.3921875,1.38896484375,1.3921875,1.37607421875,1.40185546875,1.38251953125,1.3857421875,1.3857421875,1.38896484375,1.36962890625,1.3921875,1.379296875,1.3921875,1.38251953125,1.39541015625,1.3857421875,1.3921875,1.38251953125,1.379296875,1.379296875,1.38251953125,1.379296875,1.3921875,1.38896484375,1.379296875,1.3921875,1.3857421875,1.3921875,1.38251953125,1.39541015625,1.37607421875,1.3921875,1.3921875,1.3921875,1.3921875,1.3921875,1.38896484375,1.39541015625,1.38896484375,1.39541015625,1.38251953125,1.38896484375,1.3986328125,1.39541015625,1.3921875,1.40185546875,1.405078125,1.4115234375,1.41474609375,1.42119140625,1.42763671875,1.42763671875,1.4115234375,1.3986328125,1.38896484375,1.38251953125,1.38896484375,1.379296875,1.38896484375,1.37607421875,1.38251953125,1.3728515625,1.37607421875,1.38251953125,1.3921875,1.379296875,1.379296875,1.38251953125,1.3986328125,1.37607421875,1.35673828125,1.42763671875,1.58232421875,1.77568359375,1.85947265625,1.791796875,1.56298828125,1.44375,1.40830078125,1.3921875,1.36962890625,1.37607421875,1.3728515625,1.36962890625,1.36962890625,1.3728515625,1.36318359375,1.35673828125,1.353515625,1.36640625,1.3470703125,1.34384765625,1.353515625,1.35673828125,1.36962890625,1.353515625,1.3728515625,1.36640625,1.3728515625,1.35673828125,1.3728515625,1.38251953125,1.3857421875,1.38896484375,1.3986328125,1.3921875,1.40830078125,1.4115234375,1.41474609375,1.4115234375,1.4115234375,1.40185546875,1.40830078125,1.39541015625,1.40185546875,1.39541015625,1.38896484375,1.3921875,1.38896484375,1.3857421875,1.3921875,1.38896484375,1.3921875,1.379296875,1.3921875,1.3857421875,1.3857421875,1.39541015625,1.379296875,1.38896484375,1.39541015625,1.405078125,1.379296875,1.39541015625,1.3728515625,1.38896484375,1.38251953125,1.38896484375,1.3728515625,1.38896484375,1.38251953125,1.379296875,1.3857421875,1.3921875,1.38896484375,1.3857421875,1.3857421875,1.38896484375,1.38896484375,1.37607421875,1.39541015625,1.38251953125,1.38896484375,1.379296875,1.38896484375,1.37607421875,1.38896484375,1.3857421875,1.39541015625,1.38896484375,1.3857421875,1.38896484375,1.40830078125,1.405078125,1.4115234375,1.4115234375,1.4244140625,1.41796875,1.3857421875,1.37607421875,1.379296875,1.3728515625,1.3728515625,1.3728515625,1.37607421875,1.379296875,1.36640625,1.379296875,1.379296875,1.379296875,1.379296875,1.37607421875,1.379296875,1.38251953125,1.379296875,1.36318359375,1.3470703125,1.430859375,1.6177734375,1.80146484375,1.843359375,1.72734375,1.4888671875,1.41796875,1.39541015625,1.3728515625,1.36640625,1.3599609375,1.3599609375,1.36318359375,1.36640625,1.35673828125,1.35673828125,1.3599609375,1.36962890625,1.35673828125,1.3599609375,1.35029296875,1.35673828125,1.353515625,1.35029296875,1.34384765625,1.36318359375,1.36640625,1.3599609375,1.36962890625,1.36640625,1.379296875,1.3986328125,1.379296875,1.405078125,1.3986328125,1.40185546875,1.42119140625,1.41474609375,1.4244140625,1.41796875,1.42119140625,1.40830078125,1.405078125,1.3986328125,1.40185546875,1.40830078125,1.40830078125
