1.39354838709677,1.38709677419355,1.39677419354839,1.38064516129032,1.39032258064516,1.38709677419355,1.38709677419355,1.39354838709677,1.39677419354839,1.39032258064516,1.39032258064516,1.38709677419355,1.38387096774194,1.37741935483871,1.38387096774194,1.38064516129032,1.38064516129032,1.38387096774194,1.38064516129032,1.3741935483871,1.37741935483871,1.38064516129032,1.37741935483871,1.3741935483871,1.37741935483871,1.36774193548387,1.37741935483871,1.3741935483871,1.37096774193548,1.38064516129032,1.3741935483871,1.37741935483871,1.3741935483871,1.38064516129032,1.36129032258065,1.3741935483871,1.37096774193548,1.38064516129032,1.37096774193548,1.37741935483871,1.37741935483871,1.39032258064516,1.41935483870968,1.42903225806452,1.43225806451613,1.43548387096774,1.43548387096774,1.43548387096774,1.42903225806452,1.42258064516129,1.39677419354839,1.35483870967742,1.36129032258065,1.34193548387097,1.35483870967742,1.35806451612903,1.35483870967742,1.35161290322581,1.35483870967742,1.35806451612903,1.36774193548387,1.46774193548387,1.81290322580645,2.24193548387097,2.21935483870968,1.81290322580645,1.5258064516129,1.37096774193548,1.38387096774194,1.37741935483871,1.34516129032258,1.35483870967742,1.34193548387097,1.34193548387097,1.34193548387097,1.33870967741935,1.34838709677419,1.35806451612903,1.33870967741935,1.34516129032258,1.35161290322581,1.34838709677419,1.34516129032258,1.35483870967742,1.34838709677419,1.35161290322581,1.34516129032258,1.35806451612903,1.36129032258065,1.35483870967742,1.3741935483871,1.38064516129032,1.38064516129032,1.38387096774194,1.40322580645161,1.4,1.40322580645161,1.40645161290323,1.41935483870968,1.43548387096774,1.43870967741935,1.43870967741935,1.45806451612903,1.44838709677419,1.45483870967742,1.45161290322581,1.45161290322581,1.46451612903226,1.45483870967742,1.45161290322581,1.43870967741935,1.42258064516129,1.4258064516129,1.4,1.39354838709677,1.38387096774194,1.37741935483871,1.3741935483871,1.37096774193548,1.36129032258065,1.36451612903226,1.36774193548387,1.35161290322581,1.35483870967742,1.36451612903226,1.3741935483871,1.37096774193548,1.37096774193548,1.37096774193548,1.36451612903226,1.35483870967742,1.37741935483871,1.37096774193548,1.37096774193548,1.36129032258065,1.37096774193548,1.36451612903226,1.38387096774194,1.35161290322581,1.35806451612903,1.35806451612903,1.36129032258065,1.36774193548387,1.36451612903226,1.36774193548387,1.36129032258065,1.35483870967742,1.36129032258065,1.34838709677419,1.36129032258065,1.36774193548387,1.35161290322581,1.36129032258065,1.35806451612903,1.3741935483871,1.35483870967742,1.36129032258065,1.36129032258065,1.36451612903226,1.35806451612903,1.36129032258065,1.35161290322581,1.36451612903226,1.36129032258065,1.36129032258065,1.36129032258065,1.38064516129032,1.4,1.41612903225806,1.41612903225806,1.41935483870968,1.42258064516129,1.42903225806452,1.42258064516129,1.41612903225806,1.38387096774194,1.35483870967742,1.35483870967742,1.33548387096774,1.35161290322581,1.34193548387097,1.34838709677419,1.34193548387097,1.34838709677419,1.35806451612903,1.33870967741935,1.39677419354839,1.67096774193548,2.1258064516129,2.32258064516129,1.86129032258065,1.59032258064516,1.36129032258065,1.38064516129032,1.34838709677419,1.34516129032258,1.35161290322581,1.34193548387097,1.34516129032258,1.34193548387097,1.34516129032258,1.33870967741935,1.34516129032258,1.33548387096774,1.34516129032258,1.33870967741935,1.34193548387097,1.34193548387097,1.35161290322581,1.34193548387097,1.36451612903226,1.35806451612903,1.36451612903226,1.36451612903226,1.37096774193548,1.3741935483871,1.3741935483871,1.38709677419355,1.39677419354839,1.38709677419355,1.40322580645161,1.40967741935484,1.41612903225806,1.43225806451613,1.43548387096774,1.44838709677419,1.45483870967742,1.45483870967742,1.45161290322581,1.46129032258065,1.46129032258065,1.46451612903226,1.45806451612903,1.46129032258065,1.45483870967742,1.44838709677419,1.43548387096774,1.4258064516129,1.40322580645161,1.41612903225806,1.38064516129032,1.38387096774194,1.37741935483871,1.38387096774194,1.37741935483871,1.35806451612903,1.36774193548387,1.37096774193548,1.37096774193548,1.3741935483871,1.38387096774194,1.38064516129032,1.38064516129032,1.38387096774194,1.37741935483871,1.39032258064516,1.39032258064516,1.37741935483871,1.38709677419355,1.37741935483871,1.39032258064516,1.38387096774194,1.38387096774194,1.37096774193548,1.37741935483871,1.37096774193548,1.37096774193548,1.38064516129032,1.37096774193548,1.36451612903226,1.3741935483871,1.3741935483871,1.36129032258065,1.36774193548387,1.36774193548387,1.36774193548387,1.36451612903226,1.36451612903226,1.36129032258065,1.36129032258065,1.36129032258065,1.36774193548387,1.36129032258065,1.36451612903226,1.36774193548387,1.36451612903226,1.36774193548387,1.36129032258065,1.36774193548387,1.36451612903226,1.35483870967742,1.3741935483871,1.35806451612903,1.39354838709677,1.40967741935484,1.42903225806452,1.42903225806452,1.42258064516129,1.43225806451613,1.41935483870968,1.41935483870968,1.40645161290323,1.3741935483871,1.35161290322581,1.35483870967742,1.34516129032258,1.35161290322581,1.34193548387097,1.34838709677419,1.34193548387097,1.35161290322581,1.34838709677419,1.37741935483871,1.52903225806452,1.98064516129032,2.31612903225806,2.06774193548387,1.70967741935484,1.43548387096774,1.38709677419355,1.3741935483871,1.35161290322581,1.34516129032258,1.33870967741935,1.34516129032258,1.33225806451613,1.33870967741935,1.33870967741935,1.33225806451613,1.33548387096774,1.33548387096774,1.34193548387097,1.35161290322581,1.34516129032258,1.33548387096774,1.34516129032258,1.34516129032258,1.35483870967742,1.34516129032258,1.35806451612903,1.36451612903226,1.37096774193548,1.37096774193548,1.36774193548387,1.37741935483871,1.38387096774194,1.39032258064516,1.39032258064516,1.40967741935484,1.40645161290323,1.4258064516129,1.4258064516129,1.43870967741935,1.43548387096774,1.44838709677419,1.44838709677419,1.45161290322581,1.45161290322581,1.45483870967742,1.46451612903226,1.43870967741935,1.43870967741935,1.43548387096774,1.42258064516129,1.41612903225806,1.40645161290323,1.4,1.38709677419355,1.38064516129032,1.36774193548387,1.37741935483871,1.37096774193548,1.36774193548387,1.3741935483871,1.37096774193548,1.37096774193548,1.35806451612903,1.37096774193548,1.36774193548387,1.36774193548387,1.3741935483871,1.3741935483871,1.37741935483871,1.38064516129032,1.37096774193548,1.37741935483871,1.37741935483871,1.37741935483871,1.36129032258065,1.36451612903226,1.37741935483871,1.36774193548387,1.36129032258065,1.36774193548387,1.37096774193548,1.36451612903226,1.36129032258065,1.36451612903226,1.35483870967742,1.36451612903226,1.36451612903226,1.36129032258065,1.36129032258065,1.35483870967742,1.36451612903226,1.36774193548387,1.36451612903226,1.37741935483871,1.36451612903226,1.36774193548387,1.37096774193548,1.36451612903226,1.36774193548387,1.36451612903226,1.36451612903226,1.37096774193548,1.35806451612903,1.37096774193548,1.3741935483871,1.4,1.4258064516129,1.43225806451613,1.43548387096774,1.41935483870968,1.42903225806452,1.43870967741935,1.41612903225806,1.40322580645161,1.35483870967742,1.35806451612903,1.34838709677419,1.35806451612903,1.34193548387097,1.34516129032258,1.34516129032258,1.35483870967742,1.35806451612903,1.34516129032258,1.3741935483871,1.6,2.07741935483871,2.37096774193548,2.02258064516129,1.67096774193548,1.40967741935484,1.38064516129032,1.37741935483871,1.35483870967742,1.34838709677419,1.34838709677419,1.34193548387097,1.34193548387097,1.34193548387097,1.33225806451613,1.34838709677419,1.34193548387097,1.33870967741935,1.34516129032258,1.34838709677419,1.34516129032258,1.35161290322581,1.34838709677419,1.35161290322581,1.35806451612903,1.35806451612903,1.35483870967742,1.36774193548387,1.36451612903226,1.38387096774194,1.37096774193548,1.38387096774194,1.38709677419355,1.39677419354839,1.40322580645161,1.41612903225806,1.42258064516129,1.43225806451613,1.44516129032258,1.44838709677419,1.44838709677419,1.44193548387097,1.45806451612903,1.45483870967742,1.47096774193548,1.46451612903226,1.46129032258065,1.45483870967742,1.44193548387097,1.42903225806452,1.42258064516129,1.40967741935484,1.40322580645161,1.38709677419355,1.37741935483871,1.37741935483871,1.37096774193548,1.36129032258065,1.37741935483871,1.36129032258065,1.35806451612903,1.35483870967742,1.36451612903226,1.36129032258065,1.36774193548387,1.37096774193548,1.36129032258065,1.3741935483871,1.36774193548387,1.3741935483871,1.36451612903226,1.3741935483871,1.3741935483871,1.36451612903226,1.36129032258065,1.3741935483871,1.36129032258065,1.35806451612903,1.36129032258065,1.35806451612903,1.35483870967742,1.35806451612903,1.36451612903226,1.35806451612903,1.36129032258065,1.35483870967742,1.36451612903226,1.36129032258065,1.36129032258065,1.35161290322581,1.35806451612903,1.35483870967742,1.36129032258065,1.35806451612903,1.36451612903226,1.36129032258065,1.36451612903226,1.35806451612903,1.36451612903226,1.35806451612903,1.36451612903226,1.35806451612903,1.36451612903226,1.35806451612903,1.37096774193548,1.37096774193548,1.39677419354839,1.42258064516129,1.42258064516129,1.43548387096774,1.4258064516129,1.41612903225806,1.42903225806452,1.41935483870968,1.4,1.36451612903226,1.35161290322581,1.34838709677419,1.34516129032258,1.35161290322581,1.34516129032258,1.35483870967742,1.35161290322581,1.36451612903226,1.34516129032258,1.41612903225806,1.68709677419355,2.15483870967742,2.34193548387097,1.89677419354839,1.6,1.3741935483871,1.39032258064516,1.36774193548387,1.35483870967742,1.33870967741935,1.35161290322581,1.33870967741935,1.34516129032258,1.34838709677419,1.33548387096774,1.34193548387097,1.34838709677419,1.33870967741935,1.35483870967742,1.34516129032258,1.35806451612903,1.33225806451613,1.36451612903226,1.35161290322581,1.36129032258065,1.36129032258065,1.36451612903226,1.36451612903226,1.37741935483871,1.38064516129032,1.38064516129032,1.38709677419355,1.39354838709677,1.40322580645161,1.40967741935484,1.41612903225806,1.42258064516129,1.43870967741935,1.44193548387097,1.45161290322581,1.44193548387097,1.45483870967742,1.45483870967742,1.46129032258065,1.45806451612903,1.46129032258065,1.45483870967742,1.46451612903226,1.45483870967742,1.43870967741935,1.4258064516129,1.40967741935484,1.39032258064516,1.38709677419355,1.39032258064516,1.37741935483871,1.37096774193548,1.37096774193548,1.36774193548387,1.36774193548387,1.3741935483871,1.37096774193548,1.37096774193548,1.38064516129032,1.38064516129032,1.38064516129032,1.37741935483871,1.38064516129032,1.38709677419355,1.38064516129032,1.38387096774194,1.3741935483871,1.3741935483871,1.37096774193548,1.38064516129032,1.36451612903226,1.36774193548387,1.37096774193548,1.36774193548387,1.36129032258065,1.36774193548387,1.37096774193548,1.36129032258065,1.36774193548387,1.36129032258065,1.35806451612903,1.36129032258065,1.36129032258065,1.35806451612903,1.36451612903226,1.35161290322581,1.36451612903226,1.36129032258065,1.36129032258065,1.35806451612903,1.36129032258065,1.34838709677419,1.36451612903226,1.35806451612903,1.36774193548387,1.35806451612903,1.36451612903226,1.36129032258065,1.34838709677419,1.36451612903226,1.38709677419355,1.4,1.41290322580645,1.41935483870968,1.41935483870968,1.42258064516129,1.42258064516129,1.42258064516129,1.41935483870968,1.38064516129032,1.34516129032258,1.34838709677419,1.34516129032258,1.35161290322581,1.34516129032258,1.34838709677419,1.34193548387097,1.35483870967742,1.35161290322581,1.35483870967742,1.42258064516129,1.71290322580645,2.17741935483871,2.32903225806452,1.87096774193548,1.5741935483871,1.36774193548387,1.37741935483871,1.35483870967742,1.34516129032258,1.34193548387097,1.34193548387097,1.33225806451613,1.32903225806452,1.33548387096774,1.34193548387097,1.34516129032258,1.33870967741935,1.34516129032258,1.33870967741935,1.33548387096774,1.33870967741935,1.35161290322581,1.35161290322581,1.34838709677419,1.34838709677419,1.34838709677419,1.35806451612903,1.36129032258065,1.37096774193548,1.36129032258065,1.38064516129032,1.37741935483871,1.38709677419355,1.38709677419355,1.4,1.40645161290323,1.4258064516129,1.42903225806452,1.43548387096774,1.44838709677419,1.43870967741935,1.44838709677419,1.46451612903226,1.45483870967742,1.47096774193548,1.45806451612903,1.46129032258065,1.44838709677419,1.44193548387097,1.43225806451613,1.41935483870968,1.41290322580645,1.40645161290323,1.39677419354839,1.38709677419355,1.37096774193548,1.37096774193548,1.3741935483871,1.36774193548387,1.37096774193548,1.37741935483871,1.3741935483871,1.3741935483871,1.3741935483871,1.38064516129032,1.37741935483871,1.36451612903226,1.38387096774194,1.37741935483871,1.37741935483871,1.37741935483871,1.38064516129032,1.3741935483871,1.3741935483871,1.37096774193548,1.3741935483871,1.37741935483871,1.3741935483871,1.36451612903226,1.37096774193548,1.37096774193548,1.37096774193548,1.36451612903226,1.37096774193548,1.36451612903226,1.36451612903226,1.37096774193548,1.36774193548387,1.37096774193548,1.38064516129032,1.35483870967742,1.36451612903226,1.37096774193548,1.35806451612903,1.36451612903226,1.36774193548387,1.36129032258065,1.37096774193548,1.36451612903226,1.37096774193548,1.37096774193548,1.36451612903226,1.36774193548387,1.36774193548387,1.38064516129032,1.39354838709677,1.4258064516129,1.43225806451613,1.43225806451613,1.4258064516129,1.41935483870968,1.42903225806452,1.41290322580645,1.4,1.36451612903226,1.35161290322581,1.34516129032258,1.35483870967742,1.35161290322581,1.34838709677419,1.35483870967742,1.35161290322581,1.36129032258065,1.33548387096774,1.36774193548387,1.59354838709677,2.08064516129032,2.37096774193548,2.00645161290323,1.66129032258065,1.4,1.38709677419355,1.37741935483871,1.35483870967742,1.34193548387097,1.34516129032258,1.34193548387097,1.33548387096774,1.34193548387097,1.34193548387097,1.33870967741935,1.33870967741935,1.33225806451613,1.33548387096774,1.34193548387097,1.34516129032258,1.35161290322581,1.34516129032258,1.34838709677419,1.34838709677419,1.34838709677419,1.36129032258065,1.35806451612903,1.35806451612903,1.36129032258065,1.3741935483871,1.38387096774194,1.39677419354839,1.38709677419355,1.40322580645161,1.40645161290323,1.41935483870968,1.42903225806452,1.44193548387097,1.44516129032258,1.45161290322581,1.45161290322581,1.45483870967742,1.46451612903226,1.46774193548387,1.45483870967742,1.45483870967742,1.44516129032258,1.45161290322581,1.4258064516129,1.4258064516129,1.40645161290323,1.39032258064516,1.38709677419355,1.3741935483871,1.36774193548387,1.36129032258065,1.36774193548387,1.36129032258065,1.36451612903226,1.35483870967742,1.37096774193548,1.36129032258065,1.37096774193548,1.36451612903226,1.36129032258065,1.36774193548387,1.38387096774194,1.3741935483871,1.3741935483871,1.36774193548387,1.37096774193548,1.3741935483871,1.37096774193548,1.37096774193548,1.3741935483871,1.36774193548387,1.36774193548387,1.36451612903226,1.36451612903226,1.36129032258065,1.36451612903226,1.36451612903226,1.36129032258065,1.3741935483871,1.36129032258065,1.36774193548387,1.36774193548387,1.36129032258065,1.35806451612903,1.36129032258065,1.35806451612903,1.38064516129032,1.36129032258065,1.36774193548387,1.35483870967742,1.37096774193548,1.37741935483871,1.36451612903226,1.36451612903226,1.36774193548387,1.36451612903226,1.36451612903226,1.36774193548387,1.36451612903226,1.37096774193548,1.38387096774194,1.40645161290323,1.4258064516129,1.4258064516129,1.4258064516129,1.41935483870968,1.42258064516129,1.4258064516129,1.41290322580645,1.39032258064516,1.36129032258065,1.36129032258065,1.34516129032258,1.34516129032258,1.34516129032258,1.35161290322581,1.34516129032258,1.35483870967742,1.36451612903226,1.35161290322581,1.44193548387097,1.75483870967742,2.18709677419355,2.29677419354839,1.86451612903226,1.56451612903226,1.37741935483871,1.39032258064516,1.36451612903226,1.35161290322581,1.34516129032258,1.33548387096774,1.33225806451613,1.34193548387097,1.34838709677419,1.33870967741935,1.35161290322581,1.35483870967742,1.34193548387097,1.34516129032258,1.35483870967742,1.34516129032258,1.35806451612903,1.35161290322581,1.35483870967742,1.35806451612903,1.36129032258065,1.35161290322581,1.36774193548387,1.3741935483871,1.37741935483871,1.38709677419355,1.38709677419355,1.39032258064516,1.40322580645161,1.4,1.41290322580645,1.4258064516129,1.42903225806452,1.44516129032258,1.44838709677419,1.44838709677419,1.44838709677419,1.45806451612903,1.45161290322581,1.46451612903226,1.45806451612903,1.45806451612903,1.44838709677419,1.43870967741935,1.4258064516129,1.42258064516129,1.40645161290323,1.39354838709677,1.38709677419355,1.38387096774194,1.36774193548387,1.37741935483871,1.36774193548387,1.36451612903226,1.36129032258065,1.36129032258065,1.3741935483871,1.36451612903226,1.37741935483871,1.3741935483871,1.37741935483871,1.38064516129032,1.37096774193548,1.37096774193548,1.3741935483871,1.36774193548387,1.37096774193548,1.3741935483871,1.38064516129032,1.36451612903226,1.36774193548387,1.36774193548387,1.36774193548387,1.36129032258065,1.36774193548387,1.36129032258065,1.36129032258065,1.36451612903226,1.36451612903226,1.36129032258065,1.36774193548387,1.35483870967742,1.35806451612903,1.36451612903226,1.34516129032258,1.37096774193548,1.36451612903226,1.35806451612903,1.35806451612903,1.35806451612903,1.36129032258065,1.35806451612903,1.35483870967742,1.35483870967742,1.36129032258065,1.36129032258065,1.36129032258065,1.36451612903226,1.36129032258065,1.35806451612903,1.37741935483871,1.39677419354839,1.41612903225806,1.43548387096774,1.42258064516129,1.42258064516129,1.41612903225806,1.41290322580645,1.41935483870968,1.40645161290323,1.36774193548387,1.35161290322581,1.35161290322581,1.34193548387097,1.35161290322581,1.35161290322581,1.34838709677419,1.35483870967742,1.36129032258065,1.33548387096774,1.37741935483871,1.60322580645161,2.08709677419355,2.36129032258065,1.99354838709677,1.66451612903226,1.40967741935484,1.38709677419355,1.36451612903226,1.34193548387097,1.34838709677419,1.33870967741935,1.33870967741935,1.34838709677419,1.33548387096774,1.33548387096774,1.33870967741935,1.33870967741935,1.33870967741935,1.34193548387097,1.33870967741935,1.34516129032258,1.34838709677419,1.35161290322581,1.34516129032258,1.35483870967742,1.35483870967742,1.35483870967742,1.37096774193548,1.36774193548387,1.37741935483871,1.3741935483871,1.38387096774194,1.39032258064516,1.38709677419355,1.40322580645161,1.40645161290323,1.41935483870968,1.43548387096774,1.43870967741935,1.44838709677419,1.44838709677419,1.44838709677419,1.45806451612903,1.46451612903226,1.46129032258065,1.47096774193548,1.46451612903226,1.45483870967742,1.45161290322581,1.43870967741935,1.43225806451613,1.41290322580645,1.40967741935484,1.40322580645161,1.39677419354839,1.38387096774194,1.38064516129032,1.3741935483871,1.37741935483871,1.38064516129032,1.38064516129032,1.38064516129032,1.37096774193548,1.3741935483871,1.37741935483871,1.38064516129032,1.38709677419355,1.3741935483871,1.38387096774194,1.37741935483871,1.38064516129032,1.3741935483871,1.39032258064516,1.38709677419355,1.38064516129032,1.37741935483871,1.38064516129032,1.36451612903226,1.3741935483871,1.37096774193548,1.36774193548387,1.36774193548387,1.36451612903226,1.37096774193548,1.36451612903226,1.36774193548387,1.36774193548387,1.3741935483871,1.36129032258065,1.3741935483871,1.35161290322581,1.36451612903226,1.36774193548387,1.36774193548387,1.36774193548387,1.37096774193548,1.35161290322581,1.36451612903226,1.36451612903226,1.36129032258065,1.36451612903226,1.36129032258065,1.36774193548387,1.35161290322581,1.37096774193548,1.3741935483871,1.40322580645161,1.40967741935484,1.43548387096774,1.41290322580645,1.41612903225806,1.43548387096774,1.41935483870968,1.40967741935484,1.38387096774194,1.34516129032258,1.34516129032258,1.34516129032258,1.33225806451613,1.33870967741935,1.34838709677419,1.34838709677419,1.33548387096774,1.34838709677419,1.33870967741935,1.41290322580645,1.68709677419355,2.17096774193548,2.3258064516129,1.8741935483871,1.57096774193548,1.35806451612903,1.37096774193548,1.35483870967742,1.33548387096774,1.34516129032258,1.3258064516129,1.3258064516129,1.3258064516129,1.3258064516129,1.33548387096774,1.33548387096774,1.33548387096774,1.34193548387097,1.32258064516129,1.33548387096774,1.32903225806452,1.33548387096774,1.32903225806452,1.33870967741935,1.33870967741935,1.34193548387097,1.34838709677419,1.34838709677419,1.34838709677419,1.35483870967742,1.36451612903226,1.37096774193548,1.38387096774194,1.38709677419355,1.38387096774194,1.39677419354839,1.40967741935484,1.41935483870968,1.42903225806452,1.43870967741935,1.42903225806452,1.43548387096774,1.44516129032258,1.43870967741935,1.44193548387097,1.43548387096774,1.43548387096774,1.43548387096774,1.42258064516129,1.41935483870968,1.40322580645161,1.38064516129032,1.36774193548387,1.36774193548387,1.36451612903226
1.44516129032258,1.43548387096774,1.42258064516129,1.41290322580645,1.40645161290323,1.38064516129032,1.38709677419355,1.38064516129032,1.36451612903226,1.35806451612903,1.3741935483871,1.35806451612903,1.3741935483871,1.36129032258065,1.3741935483871,1.37096774193548,1.38709677419355,1.37741935483871,1.38387096774194,1.38387096774194,1.38387096774194,1.38064516129032,1.38387096774194,1.39032258064516,1.38709677419355,1.38064516129032,1.37096774193548,1.3741935483871,1.36774193548387,1.38387096774194,1.37096774193548,1.3741935483871,1.37096774193548,1.36774193548387,1.36129032258065,1.36451612903226,1.3741935483871,1.36774193548387,1.36129032258065,1.37096774193548,1.36451612903226,1.37096774193548,1.36774193548387,1.36774193548387,1.36774193548387,1.36774193548387,1.36451612903226,1.36451612903226,1.37096774193548,1.36451612903226,1.36774193548387,1.36774193548387,1.3741935483871,1.36774193548387,1.36774193548387,1.36129032258065,1.36451612903226,1.37096774193548,1.38709677419355,1.40645161290323,1.41935483870968,1.42258064516129,1.43225806451613,1.42258064516129,1.43225806451613,1.41935483870968,1.42903225806452,1.39032258064516,1.35483870967742,1.35161290322581,1.35483870967742,1.35161290322581,1.35161290322581,1.34838709677419,1.34838709677419,1.34516129032258,1.35161290322581,1.35483870967742,1.43225806451613,1.73225806451613,2.18709677419355,2.30967741935484,1.85483870967742,1.58387096774194,1.37741935483871,1.39032258064516,1.35483870967742,1.34838709677419,1.33870967741935,1.34516129032258,1.33548387096774,1.33870967741935,1.33870967741935,1.34516129032258,1.33225806451613,1.33870967741935,1.34838709677419,1.34193548387097,1.33870967741935,1.34838709677419,1.34838709677419,1.34838709677419,1.34838709677419,1.36129032258065,1.35806451612903,1.36129032258065,1.36774193548387,1.36451612903226,1.3741935483871,1.38064516129032,1.39354838709677,1.38709677419355,1.4,1.40967741935484,1.41290322580645,1.41612903225806,1.43548387096774,1.43225806451613,1.44838709677419,1.44838709677419,1.44516129032258,1.44838709677419,1.45483870967742,1.45483870967742,1.46129032258065,1.44838709677419,1.44838709677419,1.44838709677419,1.42258064516129,1.41612903225806,1.40322580645161,1.40645161290323,1.38709677419355,1.38387096774194,1.36774193548387,1.37096774193548,1.36774193548387,1.37096774193548,1.36774193548387,1.37096774193548,1.36451612903226,1.37741935483871,1.36774193548387,1.37096774193548,1.36774193548387,1.3741935483871,1.3741935483871,1.3741935483871,1.37096774193548,1.3741935483871,1.37741935483871,1.36129032258065,1.37741935483871,1.3741935483871,1.3741935483871,1.36129032258065,1.37096774193548,1.36774193548387,1.36451612903226,1.36451612903226,1.36451612903226,1.36129032258065,1.36451612903226,1.36451612903226,1.36774193548387,1.36129032258065,1.36774193548387,1.36129032258065,1.36451612903226,1.36129032258065,1.36451612903226,1.36129032258065,1.36129032258065,1.36774193548387,1.36129032258065,1.36129032258065,1.35483870967742,1.36451612903226,1.3741935483871,1.36129032258065,1.36129032258065,1.37096774193548,1.36129032258065,1.37096774193548,1.38709677419355,1.41290322580645,1.41935483870968,1.43870967741935,1.41935483870968,1.43225806451613,1.43225806451613,1.41290322580645,1.41935483870968,1.39354838709677,1.35161290322581,1.36451612903226,1.34838709677419,1.35161290322581,1.34838709677419,1.35161290322581,1.35161290322581,1.35161290322581,1.35483870967742,1.35483870967742,1.46129032258065,1.79677419354839,2.23548387096774,2.26451612903226,1.83548387096774,1.53548387096774,1.37096774193548,1.37741935483871,1.36129032258065,1.34838709677419,1.35161290322581,1.34516129032258,1.34516129032258,1.33225806451613,1.34193548387097,1.33548387096774,1.34516129032258,1.33870967741935,1.34193548387097,1.34516129032258,1.34838709677419,1.34193548387097,1.35161290322581,1.35806451612903,1.35161290322581,1.35161290322581,1.35806451612903,1.36774193548387,1.37096774193548,1.37096774193548,1.3741935483871,1.3741935483871,1.38387096774194,1.39677419354839,1.4,1.41290322580645,1.42258064516129,1.42903225806452,1.43870967741935,1.44193548387097,1.45483870967742,1.46129032258065,1.45483870967742,1.45161290322581,1.46451612903226,1.46451612903226,1.46774193548387,1.45806451612903,1.44838709677419,1.44193548387097,1.43225806451613,1.41612903225806,1.40322580645161,1.39677419354839,1.39354838709677,1.38064516129032,1.38064516129032,1.36774193548387,1.37096774193548,1.36129032258065,1.36451612903226,1.3741935483871,1.36451612903226,1.36774193548387,1.37096774193548,1.38064516129032,1.36774193548387,1.37096774193548,1.38064516129032,1.37741935483871,1.3741935483871,1.37741935483871,1.3741935483871,1.36451612903226,1.36451612903226,1.36451612903226,1.36451612903226,1.36451612903226,1.36451612903226,1.36774193548387,1.36129032258065,1.37096774193548,1.35806451612903,1.36129032258065,1.35806451612903,1.37096774193548,1.36129032258065,1.35806451612903,1.35806451612903,1.35806451612903,1.35483870967742,1.35806451612903,1.35806451612903,1.36129032258065,1.35483870967742,1.35806451612903,1.36451612903226,1.36129032258065,1.35483870967742,1.35161290322581,1.35806451612903,1.36129032258065,1.36451612903226,1.35806451612903,1.35806451612903,1.3741935483871,1.39354838709677,1.41290322580645,1.41935483870968,1.41935483870968,1.41935483870968,1.41612903225806,1.41935483870968,1.40645161290323,1.39032258064516,1.35483870967742,1.34516129032258,1.34838709677419,1.34516129032258,1.34516129032258,1.34838709677419,1.34516129032258,1.34516129032258,1.34838709677419,1.34193548387097,1.42258064516129,1.69354838709677,2.14838709677419,2.29354838709677,1.85483870967742,1.5741935483871,1.36129032258065,1.3741935483871,1.34838709677419,1.34516129032258,1.35483870967742,1.34193548387097,1.34516129032258,1.33870967741935,1.34516129032258,1.33548387096774,1.34516129032258,1.33870967741935,1.34838709677419,1.34193548387097,1.34838709677419,1.34838709677419,1.34193548387097,1.35483870967742,1.36129032258065,1.35483870967742,1.35806451612903,1.37096774193548,1.3741935483871,1.3741935483871,1.38064516129032,1.38387096774194,1.39032258064516,1.39677419354839,1.39677419354839,1.41612903225806,1.41935483870968,1.43548387096774,1.43870967741935,1.44516129032258,1.44838709677419,1.45161290322581,1.45806451612903,1.46129032258065,1.45806451612903,1.46774193548387,1.46774193548387,1.46129032258065,1.45161290322581,1.44193548387097,1.43225806451613,1.4258064516129,1.40322580645161,1.39677419354839,1.39032258064516,1.38709677419355,1.37741935483871,1.36774193548387,1.37096774193548,1.36774193548387,1.3741935483871,1.37096774193548,1.3741935483871,1.3741935483871,1.38064516129032,1.38387096774194,1.38387096774194,1.38709677419355,1.39032258064516,1.39354838709677,1.38064516129032,1.38064516129032,1.37741935483871,1.39032258064516,1.38387096774194,1.3741935483871,1.38387096774194,1.37096774193548,1.36774193548387,1.3741935483871,1.36451612903226,1.36774193548387,1.37096774193548,1.36774193548387,1.35806451612903,1.36774193548387,1.36774193548387,1.36451612903226,1.36774193548387,1.37096774193548,1.36129032258065,1.36129032258065,1.36129032258065,1.36129032258065,1.36774193548387,1.36129032258065,1.36451612903226,1.36129032258065,1.35806451612903,1.36451612903226,1.36129032258065,1.37096774193548,1.37096774193548,1.37096774193548,1.36774193548387,1.35806451612903,1.37741935483871,1.39677419354839,1.42258064516129,1.4258064516129,1.43225806451613,1.4258064516129,1.42258064516129,1.42258064516129,1.4258064516129,1.39032258064516,1.36451612903226,1.34516129032258,1.34838709677419,1.34838709677419,1.35483870967742,1.34838709677419,1.34516129032258,1.35161290322581,1.36129032258065,1.33548387096774,1.39354838709677,1.62258064516129,2.1,2.36129032258065,1.96451612903226,1.64193548387097,1.39677419354839,1.38709677419355,1.36451612903226,1.35161290322581,1.34193548387097,1.34516129032258,1.33225806451613,1.33870967741935,1.33870967741935,1.34193548387097,1.34193548387097,1.33870967741935,1.34193548387097,1.33548387096774,1.34193548387097,1.33225806451613,1.33548387096774,1.34838709677419,1.35161290322581,1.34838709677419,1.34516129032258,1.36129032258065,1.35806451612903,1.36774193548387,1.38387096774194,1.37741935483871,1.38064516129032,1.37741935483871,1.39354838709677,1.39677419354839,1.41612903225806,1.41612903225806,1.42903225806452,1.42903225806452,1.44516129032258,1.44516129032258,1.44193548387097,1.44838709677419,1.45161290322581,1.45483870967742,1.45161290322581,1.45806451612903,1.44838709677419,1.44193548387097,1.43225806451613,1.42258064516129,1.40967741935484,1.40322580645161,1.38709677419355,1.39032258064516,1.37096774193548,1.38064516129032,1.37096774193548,1.37741935483871,1.36451612903226,1.36774193548387,1.36774193548387,1.37096774193548,1.3741935483871,1.36774193548387,1.3741935483871,1.36774193548387,1.37096774193548,1.3741935483871,1.37096774193548,1.3741935483871,1.36774193548387,1.37096774193548,1.36774193548387,1.37096774193548,1.37096774193548,1.36129032258065,1.36774193548387,1.36774193548387,1.36451612903226,1.35806451612903,1.36774193548387,1.36129032258065,1.36129032258065,1.35806451612903,1.35483870967742,1.36129032258065,1.35806451612903,1.35806451612903,1.36129032258065,1.35806451612903,1.36451612903226,1.35806451612903,1.35806451612903,1.35483870967742,1.36451612903226,1.37096774193548,1.36451612903226,1.36774193548387,1.36451612903226,1.36129032258065,1.36129032258065,1.36451612903226,1.35806451612903,1.3741935483871,1.39032258064516,1.40967741935484,1.4258064516129,1.43548387096774,1.41935483870968,1.4258064516129,1.43225806451613,1.4258064516129,1.41290322580645,1.39677419354839,1.35483870967742,1.34838709677419,1.35161290322581,1.35161290322581,1.35483870967742,1.35483870967742,1.35161290322581,1.35483870967742,1.35483870967742,1.36129032258065,1.46774193548387,1.80322580645161,2.23548387096774,2.23225806451613,1.80967741935484,1.5258064516129,1.3741935483871,1.3741935483871,1.35483870967742,1.34838709677419,1.34838709677419,1.33225806451613,1.33870967741935,1.34516129032258,1.34838709677419,1.34516129032258,1.34516129032258,1.34193548387097,1.34516129032258,1.34838709677419,1.35161290322581,1.34193548387097,1.35483870967742,1.35806451612903,1.35161290322581,1.35806451612903,1.36129032258065,1.36774193548387,1.37096774193548,1.3741935483871,1.37096774193548,1.39354838709677,1.38709677419355,1.40322580645161,1.39677419354839,1.41290322580645,1.42258064516129,1.43870967741935,1.43870967741935,1.44516129032258,1.44516129032258,1.45161290322581,1.45483870967742,1.45483870967742,1.46129032258065,1.46129032258065,1.47096774193548,1.46451612903226,1.45483870967742,1.44516129032258,1.43870967741935,1.41935483870968,1.40322580645161,1.4,1.39032258064516,1.39354838709677,1.38387096774194,1.36774193548387,1.38064516129032,1.36129032258065,1.37096774193548,1.36129032258065,1.3741935483871,1.36774193548387,1.37741935483871,1.3741935483871,1.3741935483871,1.3741935483871,1.3741935483871,1.37096774193548,1.37741935483871,1.3741935483871,1.36774193548387,1.38064516129032,1.36774193548387,1.36774193548387,1.36774193548387,1.3741935483871,1.36451612903226,1.36451612903226,1.36129032258065,1.36451612903226,1.35806451612903,1.3741935483871,1.36451612903226,1.35806451612903,1.35806451612903,1.36451612903226,1.35806451612903,1.37096774193548,1.36129032258065,1.35806451612903,1.36451612903226,1.37096774193548,1.36129032258065,1.36451612903226,1.36451612903226,1.35806451612903,1.36129032258065,1.35806451612903,1.36129032258065,1.36451612903226,1.37096774193548,1.35806451612903,1.36451612903226,1.37741935483871,1.39677419354839,1.41612903225806,1.42258064516129,1.42258064516129,1.4258064516129,1.42258064516129,1.42903225806452,1.41290322580645,1.39677419354839,1.35483870967742,1.35161290322581,1.35161290322581,1.34838709677419,1.34516129032258,1.34516129032258,1.34193548387097,1.35483870967742,1.35806451612903,1.33870967741935,1.40645161290323,1.67096774193548,2.12258064516129,2.3258064516129,1.88387096774194,1.58387096774194,1.38064516129032,1.3741935483871,1.36451612903226,1.34193548387097,1.33225806451613,1.34193548387097,1.34193548387097,1.33548387096774,1.33225806451613,1.34193548387097,1.33870967741935,1.34193548387097,1.33870967741935,1.34516129032258,1.34193548387097,1.35161290322581,1.34516129032258,1.34193548387097,1.34516129032258,1.35161290322581,1.34838709677419,1.35806451612903,1.36774193548387,1.37096774193548,1.37096774193548,1.38064516129032,1.38064516129032,1.4,1.39677419354839,1.40645161290323,1.41935483870968,1.43225806451613,1.42903225806452,1.44516129032258,1.44838709677419,1.45161290322581,1.45161290322581,1.45806451612903,1.45483870967742,1.46129032258065,1.46451612903226,1.45483870967742,1.45483870967742,1.43870967741935,1.42903225806452,1.41290322580645,1.40645161290323,1.39032258064516,1.38709677419355,1.37096774193548,1.37741935483871,1.36129032258065,1.37096774193548,1.36774193548387,1.36774193548387,1.34838709677419,1.3741935483871,1.37096774193548,1.38064516129032,1.3741935483871,1.37741935483871,1.38387096774194,1.38064516129032,1.38387096774194,1.38064516129032,1.38387096774194,1.37741935483871,1.38064516129032,1.3741935483871,1.36774193548387,1.36774193548387,1.37741935483871,1.37096774193548,1.3741935483871,1.36774193548387,1.37096774193548,1.37096774193548,1.36451612903226,1.36129032258065,1.36451612903226,1.37096774193548,1.3741935483871,1.36451612903226,1.36774193548387,1.36451612903226,1.36774193548387,1.36774193548387,1.36451612903226,1.36129032258065,1.36774193548387,1.36774193548387,1.36451612903226,1.35806451612903,1.35806451612903,1.36451612903226,1.36451612903226,1.36774193548387,1.36774193548387,1.35161290322581,1.36451612903226,1.39032258064516,1.39677419354839,1.42903225806452,1.41935483870968,1.43548387096774,1.4258064516129,1.4258064516129,1.42903225806452,1.40967741935484,1.40322580645161,1.36451612903226,1.35806451612903,1.34838709677419,1.34838709677419,1.35161290322581,1.34838709677419,1.34838709677419,1.35483870967742,1.35483870967742,1.36129032258065,1.38709677419355,1.62903225806452,2.10645161290323,2.35806451612903,1.96129032258065,1.64193548387097,1.39677419354839,1.3741935483871,1.36451612903226,1.35806451612903,1.34516129032258,1.34838709677419,1.35161290322581,1.34193548387097,1.33225806451613,1.34193548387097,1.34516129032258,1.34838709677419,1.34838709677419,1.33548387096774,1.34516129032258,1.34516129032258,1.35483870967742,1.34516129032258,1.34838709677419,1.35483870967742,1.36129032258065,1.35806451612903,1.36129032258065,1.36774193548387,1.37741935483871,1.3741935483871,1.39032258064516,1.38709677419355,1.39677419354839,1.39354838709677,1.41612903225806,1.41290322580645,1.42903225806452,1.42903225806452,1.44516129032258,1.44838709677419,1.44838709677419,1.45483870967742,1.44838709677419,1.46129032258065,1.46129032258065,1.45806451612903,1.44838709677419,1.44193548387097,1.43548387096774,1.42258064516129,1.40967741935484,1.40645161290323,1.39032258064516,1.38709677419355,1.3741935483871,1.38387096774194,1.37096774193548,1.3741935483871,1.37096774193548,1.3741935483871,1.36451612903226,1.36774193548387,1.3741935483871,1.37096774193548,1.3741935483871,1.3741935483871,1.37096774193548,1.37096774193548,1.37096774193548,1.37096774193548,1.37096774193548,1.37096774193548,1.36774193548387,1.36774193548387,1.3741935483871,1.36451612903226,1.3741935483871,1.36774193548387,1.37096774193548,1.36129032258065,1.36129032258065,1.36451612903226,1.36774193548387,1.35483870967742,1.37096774193548,1.36129032258065,1.36129032258065,1.36129032258065,1.35806451612903,1.36774193548387,1.35806451612903,1.36129032258065,1.35806451612903,1.36774193548387,1.35806451612903,1.36774193548387,1.36451612903226,1.36774193548387,1.36129032258065,1.36129032258065,1.36774193548387,1.36129032258065,1.35483870967742,1.36774193548387,1.38709677419355,1.40645161290323,1.40967741935484,1.41935483870968,1.4258064516129,1.42903225806452,1.41935483870968,1.42903225806452,1.42258064516129,1.39354838709677,1.35483870967742,1.35161290322581,1.35483870967742,1.32258064516129,1.35483870967742,1.34838709677419,1.36129032258065,1.34193548387097,1.34516129032258,1.34838709677419,1.43870967741935,1.74193548387097,2.19677419354839,2.29677419354839,1.84193548387097,1.54838709677419,1.37741935483871,1.38064516129032,1.35483870967742,1.33870967741935,1.34193548387097,1.34838709677419,1.33225806451613,1.3258064516129,1.34838709677419,1.3258064516129,1.34838709677419,1.36129032258065,1.34516129032258,1.33870967741935,1.33870967741935,1.35483870967742,1.34516129032258,1.34838709677419,1.34838709677419,1.35806451612903,1.36774193548387,1.35806451612903,1.35806451612903,1.36774193548387,1.38064516129032,1.38709677419355,1.37096774193548,1.39354838709677,1.39677419354839,1.42258064516129,1.41612903225806,1.42903225806452,1.43225806451613,1.43870967741935,1.44838709677419,1.43870967741935,1.45483870967742,1.46451612903226,1.45483870967742,1.45483870967742,1.45806451612903,1.45483870967742,1.45483870967742,1.44193548387097,1.43870967741935,1.42258064516129,1.41290322580645,1.38709677419355,1.39354838709677,1.38387096774194,1.37741935483871,1.35806451612903,1.36129032258065,1.36774193548387,1.34516129032258,1.39032258064516,1.37096774193548,1.36774193548387,1.37096774193548,1.38387096774194,1.35483870967742,1.37741935483871,1.36129032258065,1.37096774193548,1.37096774193548,1.3741935483871,1.36774193548387,1.38387096774194,1.36774193548387,1.38064516129032,1.39032258064516,1.35806451612903,1.3741935483871,1.34838709677419,1.38064516129032,1.36774193548387,1.36129032258065,1.38387096774194,1.35806451612903,1.37096774193548,1.35483870967742,1.34193548387097,1.38064516129032,1.35483870967742,1.35483870967742,1.35806451612903,1.39354838709677,1.36129032258065,1.3741935483871,1.36774193548387,1.36129032258065,1.35483870967742,1.36451612903226,1.36129032258065,1.35806451612903,1.35806451612903,1.36774193548387,1.35483870967742,1.3741935483871,1.39354838709677,1.40645161290323,1.41935483870968,1.43225806451613,1.41290322580645,1.42903225806452,1.43225806451613,1.42903225806452,1.40967741935484,1.38387096774194,1.35161290322581,1.34516129032258,1.35161290322581,1.34193548387097,1.35161290322581,1.33870967741935,1.35161290322581,1.34193548387097,1.35806451612903,1.35483870967742,1.4741935483871,1.83870967741935,2.25483870967742,2.15483870967742,1.77741935483871,1.5,1.37741935483871,1.3741935483871,1.36129032258065,1.33870967741935,1.34838709677419,1.34838709677419,1.34516129032258,1.33870967741935,1.34516129032258,1.33870967741935,1.34516129032258,1.34838709677419,1.33870967741935,1.34838709677419,1.34838709677419,1.34838709677419,1.34516129032258,1.36129032258065,1.35806451612903,1.35806451612903,1.36451612903226,1.36774193548387,1.36774193548387,1.38387096774194,1.38064516129032,1.38709677419355,1.38387096774194,1.39677419354839,1.40645161290323,1.41935483870968,1.41935483870968,1.43870967741935,1.44516129032258,1.44838709677419,1.46129032258065,1.46451612903226,1.46451612903226,1.46774193548387,1.46451612903226,1.46451612903226,1.46129032258065,1.46129032258065,1.46129032258065,1.44193548387097,1.42903225806452,1.41290322580645,1.40967741935484,1.39677419354839,1.38064516129032,1.38064516129032,1.36774193548387,1.37096774193548,1.37096774193548,1.36451612903226,1.37741935483871,1.35806451612903,1.3741935483871,1.37096774193548,1.38064516129032,1.38064516129032,1.38387096774194,1.38387096774194,1.38709677419355,1.38709677419355,1.38709677419355,1.3741935483871,1.37741935483871,1.37741935483871,1.37741935483871,1.3741935483871,1.37096774193548,1.37096774193548,1.36774193548387,1.36451612903226,1.36451612903226,1.36451612903226,1.36129032258065,1.36451612903226,1.36451612903226,1.36774193548387,1.35806451612903,1.36129032258065,1.35806451612903,1.36774193548387,1.36129032258065,1.35806451612903,1.36451612903226,1.36129032258065,1.36451612903226,1.35806451612903,1.36451612903226,1.35161290322581,1.36451612903226,1.35806451612903,1.35806451612903,1.36451612903226,1.36451612903226,1.35483870967742,1.36129032258065,1.3741935483871,1.39677419354839,1.40967741935484,1.4258064516129,1.4258064516129,1.4258064516129,1.41290322580645,1.41935483870968,1.40645161290323,1.4,1.35806451612903,1.35161290322581,1.34516129032258,1.33870967741935,1.34838709677419,1.33870967741935,1.34516129032258,1.34193548387097,1.35161290322581,1.33548387096774,1.38064516129032,1.60645161290323,2.07741935483871,2.33870967741935,1.97096774193548,1.64193548387097,1.39677419354839,1.37096774193548,1.36451612903226,1.34193548387097,1.33870967741935,1.32903225806452,1.33225806451613,1.32903225806452,1.33225806451613,1.33225806451613,1.33225806451613,1.33225806451613,1.33548387096774,1.34193548387097,1.33225806451613,1.33870967741935,1.33870967741935,1.34516129032258,1.34193548387097,1.35806451612903,1.34838709677419,1.35483870967742,1.35161290322581,1.36451612903226,1.36451612903226,1.3741935483871,1.37096774193548,1.38709677419355,1.39032258064516,1.40322580645161,1.40645161290323,1.4258064516129,1.42258064516129,1.43548387096774,1.43870967741935,1.44516129032258
1.3741935483871,1.38064516129032,1.38064516129032,1.38709677419355,1.37741935483871,1.38064516129032,1.37741935483871,1.38709677419355,1.37096774193548,1.3741935483871,1.38064516129032,1.37096774193548,1.37096774193548,1.3741935483871,1.37096774193548,1.38064516129032,1.36129032258065,1.36774193548387,1.37096774193548,1.37096774193548,1.37096774193548,1.37096774193548,1.3741935483871,1.36774193548387,1.36451612903226,1.36774193548387,1.36774193548387,1.36129032258065,1.36774193548387,1.35806451612903,1.35806451612903,1.36451612903226,1.36129032258065,1.36451612903226,1.36451612903226,1.3741935483871,1.37741935483871,1.36451612903226,1.36774193548387,1.37096774193548,1.39677419354839,1.40645161290323,1.42903225806452,1.4258064516129,1.41935483870968,1.42258064516129,1.43225806451613,1.42258064516129,1.40322580645161,1.3741935483871,1.34838709677419,1.35161290322581,1.34193548387097,1.35161290322581,1.34516129032258,1.34193548387097,1.35161290322581,1.36129032258065,1.33548387096774,1.37096774193548,1.50645161290323,1.92903225806452,2.29677419354839,2.08387096774194,1.72258064516129,1.44838709677419,1.37096774193548,1.3741935483871,1.35161290322581,1.34838709677419,1.34516129032258,1.33870967741935,1.33870967741935,1.34516129032258,1.33870967741935,1.34193548387097,1.33870967741935,1.33548387096774,1.34193548387097,1.33548387096774,1.34516129032258,1.34838709677419,1.34838709677419,1.35161290322581,1.35161290322581,1.35161290322581,1.35806451612903,1.35161290322581,1.36774193548387,1.36129032258065,1.37741935483871,1.3741935483871,1.39032258064516,1.39354838709677,1.40967741935484,1.40967741935484,1.41935483870968,1.42903225806452,1.44516129032258,1.43548387096774,1.45806451612903,1.44516129032258,1.45483870967742,1.45806451612903,1.46451612903226,1.46451612903226,1.46129032258065,1.44516129032258,1.44838709677419,1.43225806451613,1.42903225806452,1.40645161290323,1.39677419354839,1.39354838709677,1.36774193548387,1.37096774193548,1.35806451612903,1.37096774193548,1.36129032258065,1.36774193548387,1.36451612903226,1.36451612903226,1.36774193548387,1.36774193548387,1.36774193548387,1.3741935483871,1.37096774193548,1.37741935483871,1.37096774193548,1.38064516129032,1.3741935483871,1.37096774193548,1.3741935483871,1.37096774193548,1.37741935483871,1.36774193548387,1.36774193548387,1.36774193548387,1.37096774193548,1.36451612903226,1.36129032258065,1.36129032258065,1.36451612903226,1.35483870967742,1.36451612903226,1.36451612903226,1.36451612903226,1.36451612903226,1.36129032258065,1.36451612903226,1.36451612903226,1.36451612903226,1.35483870967742,1.37096774193548,1.35806451612903,1.36129032258065,1.36129032258065,1.36451612903226,1.36129032258065,1.36129032258065,1.36129032258065,1.36774193548387,1.36129032258065,1.36129032258065,1.36774193548387,1.39032258064516,1.4,1.4258064516129,1.41935483870968,1.4258064516129,1.42258064516129,1.4258064516129,1.42903225806452,1.41935483870968,1.39677419354839,1.37096774193548,1.35806451612903,1.35161290322581,1.35483870967742,1.34838709677419,1.35483870967742,1.34838709677419,1.35483870967742,1.36774193548387,1.34193548387097,1.40645161290323,1.64516129032258,2.1,2.33225806451613,1.93870967741935,1.63225806451613,1.39032258064516,1.39677419354839,1.36451612903226,1.34838709677419,1.34516129032258,1.34838709677419,1.34516129032258,1.34516129032258,1.35161290322581,1.34193548387097,1.34838709677419,1.34516129032258,1.34193548387097,1.34838709677419,1.36129032258065,1.34516129032258,1.34838709677419,1.34838709677419,1.35806451612903,1.35161290322581,1.35806451612903,1.35806451612903,1.37096774193548,1.36451612903226,1.38387096774194,1.37741935483871,1.39032258064516,1.39032258064516,1.40645161290323,1.40967741935484,1.41935483870968,1.4258064516129,1.43548387096774,1.43870967741935,1.44838709677419,1.45483870967742,1.45483870967742,1.45161290322581,1.45483870967742,1.46451612903226,1.46451612903226,1.46129032258065,1.45483870967742,1.44193548387097,1.43548387096774,1.42903225806452,1.40645161290323,1.40645161290323,1.38709677419355,1.38709677419355,1.3741935483871,1.3741935483871,1.37096774193548,1.3741935483871,1.36129032258065,1.37096774193548,1.37096774193548,1.37096774193548,1.37741935483871,1.37741935483871,1.3741935483871,1.36774193548387,1.36774193548387,1.37741935483871,1.3741935483871,1.37096774193548,1.37741935483871,1.36451612903226,1.3741935483871,1.37741935483871,1.36451612903226,1.36774193548387,1.37096774193548,1.35806451612903,1.37096774193548,1.36129032258065,1.37096774193548,1.36129032258065,1.35806451612903,1.36129032258065,1.35806451612903,1.35806451612903,1.36129032258065,1.36774193548387,1.35806451612903,1.36451612903226,1.35483870967742,1.36129032258065,1.36451612903226,1.36451612903226,1.35161290322581,1.36451612903226,1.35161290322581,1.36129032258065,1.36451612903226,1.36129032258065,1.36451612903226,1.37096774193548,1.34838709677419,1.37741935483871,1.38064516129032,1.40967741935484,1.41290322580645,1.42903225806452,1.41612903225806,1.41935483870968,1.41612903225806,1.41612903225806,1.41290322580645,1.38064516129032,1.35806451612903,1.35483870967742,1.34516129032258,1.33870967741935,1.34838709677419,1.34516129032258,1.34193548387097,1.34838709677419,1.35806451612903,1.35161290322581,1.45161290322581,1.75161290322581,2.18709677419355,2.25483870967742,1.81290322580645,1.54516129032258,1.37741935483871,1.3741935483871,1.35483870967742,1.33870967741935,1.34516129032258,1.33548387096774,1.33870967741935,1.33870967741935,1.33870967741935,1.33870967741935,1.33870967741935,1.33548387096774,1.33870967741935,1.33870967741935,1.35483870967742,1.34516129032258,1.34516129032258,1.34838709677419,1.34516129032258,1.35161290322581,1.34838709677419,1.36129032258065,1.36774193548387,1.37096774193548,1.37096774193548,1.38387096774194,1.38064516129032,1.38064516129032,1.39677419354839,1.41612903225806,1.41612903225806,1.43225806451613,1.43548387096774,1.43870967741935,1.44516129032258,1.45161290322581,1.45161290322581,1.45806451612903,1.45806451612903,1.46451612903226,1.46129032258065,1.45806451612903,1.44516129032258,1.43548387096774,1.43870967741935,1.41935483870968,1.41612903225806,1.40322580645161,1.39677419354839,1.38709677419355,1.38387096774194,1.3741935483871,1.3741935483871,1.3741935483871,1.3741935483871,1.37096774193548,1.37096774193548,1.37096774193548,1.3741935483871,1.38064516129032,1.37741935483871,1.37741935483871,1.37741935483871,1.3741935483871,1.37741935483871,1.38387096774194,1.3741935483871,1.38064516129032,1.37096774193548,1.37741935483871,1.37096774193548,1.37741935483871,1.37096774193548,1.3741935483871,1.36774193548387,1.37096774193548,1.37096774193548,1.37096774193548,1.3741935483871,1.3741935483871,1.37096774193548,1.3741935483871,1.37096774193548,1.36774193548387,1.36774193548387,1.36451612903226,1.37096774193548,1.35806451612903,1.37741935483871,1.36129032258065,1.36774193548387,1.36774193548387,1.36774193548387,1.36774193548387,1.37096774193548,1.36451612903226,1.36774193548387,1.36451612903226,1.3741935483871,1.3741935483871,1.40322580645161,1.41290322580645,1.42903225806452,1.43870967741935,1.42258064516129,1.42903225806452,1.42903225806452,1.4258064516129,1.41612903225806,1.38387096774194,1.35483870967742,1.34838709677419,1.34516129032258,1.34516129032258,1.34838709677419,1.34838709677419,1.34838709677419,1.35483870967742,1.34838709677419,1.37741935483871,1.49032258064516,1.86451612903226,2.26129032258065,2.14838709677419,1.7741935483871,1.49677419354839,1.36774193548387,1.3741935483871,1.35161290322581,1.34193548387097,1.34193548387097,1.33870967741935,1.34193548387097,1.33548387096774,1.34516129032258,1.33870967741935,1.34516129032258,1.34193548387097,1.34193548387097,1.34193548387097,1.34193548387097,1.34193548387097,1.34838709677419,1.34516129032258,1.35806451612903,1.34516129032258,1.35806451612903,1.35806451612903,1.36774193548387,1.36774193548387,1.37096774193548,1.3741935483871,1.39032258064516,1.38387096774194,1.40967741935484,1.40645161290323,1.41935483870968,1.42903225806452,1.43548387096774,1.44193548387097,1.44516129032258,1.45161290322581,1.45806451612903,1.46451612903226,1.45806451612903,1.46451612903226,1.46129032258065,1.46129032258065,1.43870967741935,1.43870967741935,1.41290322580645,1.41935483870968,1.4,1.38709677419355,1.37096774193548,1.37096774193548,1.36451612903226,1.36774193548387,1.36774193548387,1.36129032258065,1.36129032258065,1.36774193548387,1.35483870967742,1.35161290322581,1.36129032258065,1.36774193548387,1.37741935483871,1.37096774193548,1.3741935483871,1.36451612903226,1.36774193548387,1.3741935483871,1.37096774193548,1.36451612903226,1.37096774193548,1.36451612903226,1.36129032258065,1.36129032258065,1.36129032258065,1.36451612903226,1.3741935483871,1.36129032258065,1.36129032258065,1.36129032258065,1.36451612903226,1.35806451612903,1.37096774193548,1.36129032258065,1.36774193548387,1.35806451612903,1.36451612903226,1.36129032258065,1.35806451612903,1.36451612903226,1.36451612903226,1.36129032258065,1.36451612903226,1.37096774193548,1.35806451612903,1.37096774193548,1.36451612903226,1.37096774193548,1.36451612903226,1.37096774193548,1.35806451612903,1.3741935483871,1.38387096774194,1.40645161290323,1.41935483870968,1.4258064516129,1.42258064516129,1.4258064516129,1.4258064516129,1.41612903225806,1.41935483870968,1.39354838709677,1.35806451612903,1.35161290322581,1.35161290322581,1.34516129032258,1.35806451612903,1.34193548387097,1.34838709677419,1.35483870967742,1.36129032258065,1.35483870967742,1.45806451612903,1.75806451612903,2.18709677419355,2.25806451612903,1.83870967741935,1.53870967741935,1.3741935483871,1.38387096774194,1.36774193548387,1.35161290322581,1.34516129032258,1.34516129032258,1.34838709677419,1.34193548387097,1.34193548387097,1.35161290322581,1.34193548387097,1.35161290322581,1.34516129032258,1.35161290322581,1.34838709677419,1.35161290322581,1.35161290322581,1.35806451612903,1.35483870967742,1.36129032258065,1.36129032258065,1.36774193548387,1.36129032258065,1.38064516129032,1.37741935483871,1.39032258064516,1.39032258064516,1.38709677419355,1.41290322580645,1.40645161290323,1.41612903225806,1.42903225806452,1.43548387096774,1.44838709677419,1.45483870967742,1.46129032258065,1.45806451612903,1.45806451612903,1.46129032258065,1.46451612903226,1.46774193548387,1.46774193548387,1.45161290322581,1.43870967741935,1.43548387096774,1.42258064516129,1.40967741935484,1.39677419354839,1.39354838709677,1.39032258064516,1.37741935483871,1.36451612903226,1.3741935483871,1.37096774193548,1.36774193548387,1.3741935483871,1.3741935483871,1.36774193548387,1.37741935483871,1.37741935483871,1.36774193548387,1.38387096774194,1.3741935483871,1.38064516129032,1.37741935483871,1.37741935483871,1.37096774193548,1.38387096774194,1.36451612903226,1.37096774193548,1.36129032258065,1.3741935483871,1.36451612903226,1.37096774193548,1.36129032258065,1.36774193548387,1.36774193548387,1.36451612903226,1.36451612903226,1.36451612903226,1.36774193548387,1.36129032258065,1.36774193548387,1.35806451612903,1.36129032258065,1.36129032258065,1.36129032258065,1.36129032258065,1.36774193548387,1.35806451612903,1.36451612903226,1.36129032258065,1.36451612903226,1.36129032258065,1.36129032258065,1.36129032258065,1.36451612903226,1.36774193548387,1.36451612903226,1.35806451612903,1.38064516129032,1.40322580645161,1.41935483870968,1.42258064516129,1.4258064516129,1.41935483870968,1.43225806451613,1.4258064516129,1.41935483870968,1.39032258064516,1.35483870967742,1.35161290322581,1.35161290322581,1.34193548387097,1.35161290322581,1.35483870967742,1.34516129032258,1.34838709677419,1.34838709677419,1.34838709677419,1.40322580645161,1.66774193548387,2.11935483870968,2.32903225806452,1.88709677419355,1.6,1.38064516129032,1.38064516129032,1.35806451612903,1.33870967741935,1.35483870967742,1.3258064516129,1.34193548387097,1.33870967741935,1.34193548387097,1.33870967741935,1.33870967741935,1.34193548387097,1.34516129032258,1.33548387096774,1.34516129032258,1.34193548387097,1.34838709677419,1.34516129032258,1.35161290322581,1.35161290322581,1.35161290322581,1.35483870967742,1.36774193548387,1.35806451612903,1.3741935483871,1.37741935483871,1.38387096774194,1.38709677419355,1.4,1.40322580645161,1.41290322580645,1.42903225806452,1.4258064516129,1.44193548387097,1.43870967741935,1.45483870967742,1.44838709677419,1.45161290322581,1.45806451612903,1.45806451612903,1.45806451612903,1.46129032258065,1.44516129032258,1.43548387096774,1.42903225806452,1.42258064516129,1.40322580645161,1.4,1.38709677419355,1.39032258064516,1.37096774193548,1.37741935483871,1.36774193548387,1.37096774193548,1.37096774193548,1.36451612903226,1.36451612903226,1.37096774193548,1.36774193548387,1.37096774193548,1.3741935483871,1.37096774193548,1.37741935483871,1.3741935483871,1.37096774193548,1.36774193548387,1.37096774193548,1.37096774193548,1.3741935483871,1.36451612903226,1.37741935483871,1.35806451612903,1.36451612903226,1.36129032258065,1.36774193548387,1.36451612903226,1.36774193548387,1.36451612903226,1.36129032258065,1.36774193548387,1.36774193548387,1.37096774193548,1.35806451612903,1.36451612903226,1.36129032258065,1.36451612903226,1.36129032258065,1.36774193548387,1.36129032258065,1.35806451612903,1.36451612903226,1.36451612903226,1.36774193548387,1.36451612903226,1.36774193548387,1.36774193548387,1.36774193548387,1.3741935483871,1.36451612903226,1.38387096774194,1.39677419354839,1.41290322580645,1.41290322580645,1.43870967741935,1.43225806451613,1.43225806451613,1.43225806451613,1.41935483870968,1.42258064516129,1.38387096774194,1.35483870967742,1.35483870967742,1.35483870967742,1.35161290322581,1.34516129032258,1.35161290322581,1.35161290322581,1.35483870967742,1.36129032258065,1.36774193548387,1.45806451612903,1.7741935483871,2.20967741935484,2.24193548387097,1.81935483870968,1.53548387096774,1.3741935483871,1.38709677419355,1.36129032258065,1.35161290322581,1.34838709677419,1.34516129032258,1.34516129032258,1.34516129032258,1.33870967741935,1.35161290322581,1.34838709677419,1.35161290322581,1.34838709677419,1.34838709677419,1.34516129032258,1.34838709677419,1.34838709677419,1.34838709677419,1.35161290322581,1.36129032258065,1.35806451612903,1.37096774193548,1.36129032258065,1.38064516129032,1.39032258064516,1.38709677419355,1.39032258064516,1.39677419354839,1.40967741935484,1.41290322580645,1.41935483870968,1.43548387096774,1.43870967741935,1.44838709677419,1.45483870967742,1.46129032258065,1.46451612903226,1.45806451612903,1.47096774193548,1.47096774193548,1.46774193548387,1.46129032258065,1.45806451612903,1.43548387096774,1.43870967741935,1.41612903225806,1.40645161290323,1.39677419354839,1.38709677419355,1.37741935483871,1.3741935483871,1.37096774193548,1.36774193548387,1.36451612903226,1.36129032258065,1.37096774193548,1.36129032258065,1.35806451612903,1.36129032258065,1.36774193548387,1.36451612903226,1.36774193548387,1.36774193548387,1.37096774193548,1.3741935483871,1.36774193548387,1.36451612903226,1.36774193548387,1.36774193548387,1.35806451612903,1.36129032258065,1.36774193548387,1.36129032258065,1.36774193548387,1.36129032258065,1.36129032258065,1.35806451612903,1.35806451612903,1.36129032258065,1.36451612903226,1.36129032258065,1.36129032258065,1.35483870967742,1.35806451612903,1.35483870967742,1.35806451612903,1.35806451612903,1.35161290322581,1.36129032258065,1.35806451612903,1.36129032258065,1.35806451612903,1.36129032258065,1.35483870967742,1.35806451612903,1.35806451612903,1.36774193548387,1.35161290322581,1.35806451612903,1.37096774193548,1.39677419354839,1.40645161290323,1.41935483870968,1.42903225806452,1.41935483870968,1.42258064516129,1.41935483870968,1.41935483870968,1.4,1.35806451612903,1.35483870967742,1.35161290322581,1.34193548387097,1.34838709677419,1.34193548387097,1.35161290322581,1.34516129032258,1.35483870967742,1.33225806451613,1.39354838709677,1.61935483870968,2.09677419354839,2.34838709677419,1.96451612903226,1.64516129032258,1.39677419354839,1.38064516129032,1.36774193548387,1.34838709677419,1.33870967741935,1.34516129032258,1.34516129032258,1.33548387096774,1.33870967741935,1.34193548387097,1.33870967741935,1.34516129032258,1.34838709677419,1.34193548387097,1.34516129032258,1.34516129032258,1.35161290322581,1.35483870967742,1.35161290322581,1.35806451612903,1.35483870967742,1.37096774193548,1.36451612903226,1.36129032258065,1.37096774193548,1.38064516129032,1.38709677419355,1.39354838709677,1.40322580645161,1.40645161290323,1.41935483870968,1.4258064516129,1.44193548387097,1.44516129032258,1.44193548387097,1.45161290322581,1.45806451612903,1.45806451612903,1.46774193548387,1.46451612903226,1.46774193548387,1.45806451612903,1.45483870967742,1.44516129032258,1.43870967741935,1.41935483870968,1.41290322580645,1.39354838709677,1.39354838709677,1.38064516129032,1.38064516129032,1.36774193548387,1.36451612903226,1.36774193548387,1.36774193548387,1.37096774193548,1.37096774193548,1.36774193548387,1.3741935483871,1.3741935483871,1.37096774193548,1.38387096774194,1.38064516129032,1.38387096774194,1.37741935483871,1.38064516129032,1.3741935483871,1.36774193548387,1.3741935483871,1.37741935483871,1.37096774193548,1.37096774193548,1.36451612903226,1.3741935483871,1.35806451612903,1.36774193548387,1.37096774193548,1.35483870967742,1.36451612903226,1.36451612903226,1.36774193548387,1.36451612903226,1.36451612903226,1.35483870967742,1.36129032258065,1.36451612903226,1.37096774193548,1.35806451612903,1.36129032258065,1.35806451612903,1.3741935483871,1.35483870967742,1.35806451612903,1.35806451612903,1.36774193548387,1.36129032258065,1.36451612903226,1.36774193548387,1.36451612903226,1.36451612903226,1.38064516129032,1.40322580645161,1.41612903225806,1.4258064516129,1.42903225806452,1.42258064516129,1.42903225806452,1.42258064516129,1.41290322580645,1.40322580645161,1.35806451612903,1.35483870967742,1.35161290322581,1.34838709677419,1.34516129032258,1.34838709677419,1.34516129032258,1.35161290322581,1.35161290322581,1.34516129032258,1.39354838709677,1.62258064516129,2.08387096774194,2.34193548387097,1.97096774193548,1.64516129032258,1.39677419354839,1.38064516129032,1.36774193548387,1.34838709677419,1.34193548387097,1.33870967741935,1.34193548387097,1.33870967741935,1.33870967741935,1.33870967741935,1.34516129032258,1.33870967741935,1.34516129032258,1.33870967741935,1.33870967741935,1.34516129032258,1.35161290322581,1.34193548387097,1.35483870967742,1.35161290322581,1.35806451612903,1.35806451612903,1.36774193548387,1.37096774193548,1.37096774193548,1.38064516129032,1.38387096774194,1.39032258064516,1.39677419354839,1.40967741935484,1.41290322580645,1.4258064516129,1.43225806451613,1.44838709677419,1.44838709677419,1.45806451612903,1.45483870967742,1.46451612903226,1.46129032258065,1.47096774193548,1.46774193548387,1.46451612903226,1.45483870967742,1.45483870967742,1.43548387096774,1.43225806451613,1.41612903225806,1.40645161290323,1.39677419354839,1.39032258064516,1.37096774193548,1.37741935483871,1.37741935483871,1.3741935483871,1.3741935483871,1.36774193548387,1.37741935483871,1.36774193548387,1.3741935483871,1.3741935483871,1.3741935483871,1.37096774193548,1.37741935483871,1.3741935483871,1.3741935483871,1.38064516129032,1.37741935483871,1.3741935483871,1.38064516129032,1.36774193548387,1.38709677419355,1.3741935483871,1.36451612903226,1.36774193548387,1.3741935483871,1.37096774193548,1.36774193548387,1.36451612903226,1.36774193548387,1.3741935483871,1.37096774193548,1.36451612903226,1.36129032258065,1.35806451612903,1.3741935483871,1.37096774193548,1.35806451612903,1.36129032258065,1.36129032258065,1.36774193548387,1.36129032258065,1.36129032258065,1.36129032258065,1.36774193548387,1.36774193548387,1.36774193548387,1.36774193548387,1.36451612903226,1.35806451612903,1.3741935483871,1.38709677419355,1.40645161290323,1.4258064516129,1.4258064516129,1.42258064516129,1.41935483870968,1.42258064516129,1.41612903225806,1.42258064516129,1.38064516129032,1.34838709677419,1.34516129032258,1.35483870967742,1.33870967741935,1.35161290322581,1.33870967741935,1.34838709677419,1.33870967741935,1.34516129032258,1.34516129032258,1.43225806451613,1.73870967741935,2.18709677419355,2.27741935483871,1.8258064516129,1.53548387096774,1.35806451612903,1.37096774193548,1.34838709677419,1.33870967741935,1.33225806451613,1.32903225806452,1.32258064516129,1.32903225806452,1.3258064516129,1.32258064516129,1.33225806451613,1.32903225806452,1.3258064516129,1.33870967741935,1.3258064516129,1.3258064516129,1.33225806451613,1.33548387096774,1.33548387096774,1.34193548387097,1.33548387096774,1.35161290322581,1.34516129032258,1.36129032258065,1.35806451612903,1.36774193548387,1.36774193548387,1.37741935483871,1.39354838709677,1.39354838709677,1.40645161290323,1.41290322580645,1.42903225806452,1.43548387096774,1.43548387096774,1.44516129032258,1.44516129032258,1.45161290322581,1.44838709677419,1.45161290322581,1.45161290322581,1.44838709677419,1.43870967741935,1.41935483870968,1.41935483870968,1.4,1.39354838709677,1.37741935483871,1.37096774193548,1.36774193548387,1.35483870967742,1.35161290322581
1.43548387096774,1.42258064516129,1.40967741935484,1.40967741935484,1.40322580645161,1.39354838709677,1.38709677419355,1.38387096774194,1.38387096774194,1.38064516129032,1.3741935483871,1.38064516129032,1.38064516129032,1.38064516129032,1.38064516129032,1.38709677419355,1.38709677419355,1.39032258064516,1.38064516129032,1.38064516129032,1.38064516129032,1.38709677419355,1.38064516129032,1.38387096774194,1.38064516129032,1.38064516129032,1.37741935483871,1.38064516129032,1.37096774193548,1.37741935483871,1.37096774193548,1.38064516129032,1.3741935483871,1.3741935483871,1.38064516129032,1.38064516129032,1.37096774193548,1.36451612903226,1.36774193548387,1.37096774193548,1.3741935483871,1.36774193548387,1.37096774193548,1.37096774193548,1.37741935483871,1.3741935483871,1.3741935483871,1.3741935483871,1.37096774193548,1.37096774193548,1.37741935483871,1.37096774193548,1.38709677419355,1.36774193548387,1.3741935483871,1.38387096774194,1.40967741935484,1.42258064516129,1.43870967741935,1.43870967741935,1.43548387096774,1.43548387096774,1.43225806451613,1.42903225806452,1.41612903225806,1.3741935483871,1.35483870967742,1.35806451612903,1.35161290322581,1.35161290322581,1.34838709677419,1.35483870967742,1.35161290322581,1.36774193548387,1.34516129032258,1.37741935483871,1.5258064516129,1.98387096774194,2.31612903225806,2.07741935483871,1.71290322580645,1.44516129032258,1.38064516129032,1.37096774193548,1.35483870967742,1.34838709677419,1.34838709677419,1.34516129032258,1.34193548387097,1.33225806451613,1.33870967741935,1.33870967741935,1.33870967741935,1.33870967741935,1.34193548387097,1.34193548387097,1.34516129032258,1.34193548387097,1.34516129032258,1.34516129032258,1.35483870967742,1.35161290322581,1.35483870967742,1.36129032258065,1.36774193548387,1.36774193548387,1.37741935483871,1.38064516129032,1.38709677419355,1.39354838709677,1.4,1.41290322580645,1.41935483870968,1.43225806451613,1.43548387096774,1.44193548387097,1.44193548387097,1.44838709677419,1.45161290322581,1.45483870967742,1.45483870967742,1.45806451612903,1.45806451612903,1.45483870967742,1.44516129032258,1.43870967741935,1.41612903225806,1.41290322580645,1.4,1.39032258064516,1.38387096774194,1.3741935483871,1.36774193548387,1.36451612903226,1.36451612903226,1.36774193548387,1.36451612903226,1.36451612903226,1.36451612903226,1.36451612903226,1.36774193548387,1.36774193548387,1.37096774193548,1.36774193548387,1.37741935483871,1.37096774193548,1.3741935483871,1.37096774193548,1.36774193548387,1.36774193548387,1.37096774193548,1.36451612903226,1.37741935483871,1.36451612903226,1.36451612903226,1.36129032258065,1.36451612903226,1.36129032258065,1.36451612903226,1.35806451612903,1.35806451612903,1.36129032258065,1.35806451612903,1.36774193548387,1.35806451612903,1.36129032258065,1.35161290322581,1.36129032258065,1.36129032258065,1.36451612903226,1.35806451612903,1.36451612903226,1.36129032258065,1.36451612903226,1.36129032258065,1.36129032258065,1.35483870967742,1.36774193548387,1.36129032258065,1.36129032258065,1.36129032258065,1.37741935483871,1.39354838709677,1.41935483870968,1.42258064516129,1.42258064516129,1.41935483870968,1.41935483870968,1.4258064516129,1.41612903225806,1.4,1.36129032258065,1.35161290322581,1.34838709677419,1.34193548387097,1.34516129032258,1.34838709677419,1.34193548387097,1.35483870967742,1.35806451612903,1.34193548387097,1.38709677419355,1.64838709677419,2.10645161290323,2.35483870967742,1.91935483870968,1.62258064516129,1.38387096774194,1.38064516129032,1.36451612903226,1.34838709677419,1.34838709677419,1.34193548387097,1.33870967741935,1.33870967741935,1.34193548387097,1.34193548387097,1.34838709677419,1.34516129032258,1.34516129032258,1.34516129032258,1.34838709677419,1.34838709677419,1.35483870967742,1.34838709677419,1.35806451612903,1.35483870967742,1.36129032258065,1.36129032258065,1.37741935483871,1.37096774193548,1.37741935483871,1.38387096774194,1.38709677419355,1.39354838709677,1.4,1.40645161290323,1.41290322580645,1.4258064516129,1.4258064516129,1.43870967741935,1.44516129032258,1.44838709677419,1.44838709677419,1.45806451612903,1.45483870967742,1.46129032258065,1.45806451612903,1.45483870967742,1.44516129032258,1.45483870967742,1.43548387096774,1.42903225806452,1.41612903225806,1.40322580645161,1.38709677419355,1.38387096774194,1.38064516129032,1.3741935483871,1.37096774193548,1.37096774193548,1.37096774193548,1.36774193548387,1.37096774193548,1.37096774193548,1.38064516129032,1.3741935483871,1.38387096774194,1.38064516129032,1.38387096774194,1.38387096774194,1.38387096774194,1.37741935483871,1.38064516129032,1.38387096774194,1.37096774193548,1.38064516129032,1.38064516129032,1.3741935483871,1.3741935483871,1.36774193548387,1.36774193548387,1.36774193548387,1.36774193548387,1.36451612903226,1.36774193548387,1.36451612903226,1.36774193548387,1.36451612903226,1.35806451612903,1.36774193548387,1.36129032258065,1.36451612903226,1.36451612903226,1.36451612903226,1.36129032258065,1.36451612903226,1.36129032258065,1.36451612903226,1.36129032258065,1.36129032258065,1.36129032258065,1.37096774193548,1.36774193548387,1.36451612903226,1.35806451612903,1.36774193548387,1.38387096774194,1.40967741935484,1.41290322580645,1.4258064516129,1.42258064516129,1.4258064516129,1.42903225806452,1.41935483870968,1.41935483870968,1.38709677419355,1.35161290322581,1.35161290322581,1.35483870967742,1.34838709677419,1.35161290322581,1.33870967741935,1.34838709677419,1.34838709677419,1.36129032258065,1.35161290322581,1.43870967741935,1.73548387096774,2.18387096774194,2.28387096774194,1.82258064516129,1.55161290322581,1.37096774193548,1.37741935483871,1.35483870967742,1.34516129032258,1.33870967741935,1.34193548387097,1.33548387096774,1.33870967741935,1.33548387096774,1.33870967741935,1.33870967741935,1.33870967741935,1.33548387096774,1.34193548387097,1.34193548387097,1.34193548387097,1.34516129032258,1.35483870967742,1.34838709677419,1.35806451612903,1.35806451612903,1.36129032258065,1.36129032258065,1.36774193548387,1.37096774193548,1.37741935483871,1.38064516129032,1.38387096774194,1.39354838709677,1.40322580645161,1.41290322580645,1.41612903225806,1.43225806451613,1.43225806451613,1.44193548387097,1.43870967741935,1.44516129032258,1.44838709677419,1.44838709677419,1.45806451612903,1.45806451612903,1.45161290322581,1.44838709677419,1.43548387096774,1.42903225806452,1.41612903225806,1.41290322580645,1.4,1.39354838709677,1.38064516129032,1.38064516129032,1.37741935483871,1.37096774193548,1.3741935483871,1.37096774193548,1.36774193548387,1.3741935483871,1.3741935483871,1.3741935483871,1.37741935483871,1.37096774193548,1.37741935483871,1.37741935483871,1.38064516129032,1.37096774193548,1.37741935483871,1.36774193548387,1.38387096774194,1.37741935483871,1.37741935483871,1.36774193548387,1.37741935483871,1.36774193548387,1.3741935483871,1.37096774193548,1.37096774193548,1.37096774193548,1.36774193548387,1.36129032258065,1.36774193548387,1.36774193548387,1.36451612903226,1.36774193548387,1.36451612903226,1.36774193548387,1.36451612903226,1.36451612903226,1.36129032258065,1.36451612903226,1.36451612903226,1.36774193548387,1.36451612903226,1.36774193548387,1.36451612903226,1.36451612903226,1.36129032258065,1.36774193548387,1.36129032258065,1.37096774193548,1.37741935483871,1.40645161290323,1.42258064516129,1.43548387096774,1.43870967741935,1.42903225806452,1.42903225806452,1.4258064516129,1.42903225806452,1.40967741935484,1.36774193548387,1.35806451612903,1.35161290322581,1.35161290322581,1.34838709677419,1.34838709677419,1.35161290322581,1.35161290322581,1.36129032258065,1.34516129032258,1.36774193548387,1.55483870967742,2.02258064516129,2.33548387096774,2.04838709677419,1.69032258064516,1.42903225806452,1.37741935483871,1.36774193548387,1.36129032258065,1.33870967741935,1.33870967741935,1.33225806451613,1.33548387096774,1.34193548387097,1.34193548387097,1.33548387096774,1.34193548387097,1.33548387096774,1.34193548387097,1.34516129032258,1.34838709677419,1.34193548387097,1.34838709677419,1.34516129032258,1.35483870967742,1.35161290322581,1.36129032258065,1.36129032258065,1.36774193548387,1.37096774193548,1.38064516129032,1.38064516129032,1.39032258064516,1.39032258064516,1.40645161290323,1.40967741935484,1.42258064516129,1.43225806451613,1.43548387096774,1.44516129032258,1.44516129032258,1.45483870967742,1.45483870967742,1.46129032258065,1.45483870967742,1.46129032258065,1.45806451612903,1.45806451612903,1.43225806451613,1.43548387096774,1.41935483870968,1.41290322580645,1.39677419354839,1.4,1.38064516129032,1.37741935483871,1.37096774193548,1.36774193548387,1.36129032258065,1.36451612903226,1.36451612903226,1.36451612903226,1.36451612903226,1.36129032258065,1.3741935483871,1.37741935483871,1.3741935483871,1.37741935483871,1.37741935483871,1.37741935483871,1.38064516129032,1.36774193548387,1.37741935483871,1.37096774193548,1.37741935483871,1.37096774193548,1.37096774193548,1.36451612903226,1.36774193548387,1.36774193548387,1.36774193548387,1.36129032258065,1.36451612903226,1.36774193548387,1.35806451612903,1.36774193548387,1.36129032258065,1.36129032258065,1.36129032258065,1.36129032258065,1.36129032258065,1.36129032258065,1.35161290322581,1.36774193548387,1.35806451612903,1.36451612903226,1.36129032258065,1.36129032258065,1.35483870967742,1.36129032258065,1.36129032258065,1.37096774193548,1.36451612903226,1.35806451612903,1.36774193548387,1.38387096774194,1.40967741935484,1.41612903225806,1.4258064516129,1.41935483870968,1.42903225806452,1.42258064516129,1.41935483870968,1.41290322580645,1.38709677419355,1.35483870967742,1.35806451612903,1.35483870967742,1.34838709677419,1.34516129032258,1.34838709677419,1.34516129032258,1.35806451612903,1.34838709677419,1.36129032258065,1.46451612903226,1.79677419354839,2.20967741935484,2.21612903225806,1.8,1.5258064516129,1.36774193548387,1.37741935483871,1.35806451612903,1.35483870967742,1.34516129032258,1.33870967741935,1.34516129032258,1.33548387096774,1.34193548387097,1.34516129032258,1.34193548387097,1.34193548387097,1.34516129032258,1.34193548387097,1.35161290322581,1.34838709677419,1.35161290322581,1.35161290322581,1.35483870967742,1.35161290322581,1.36451612903226,1.36451612903226,1.36774193548387,1.37096774193548,1.37741935483871,1.38387096774194,1.38709677419355,1.39354838709677,1.4,1.40967741935484,1.41935483870968,1.42258064516129,1.43548387096774,1.44193548387097,1.44193548387097,1.45483870967742,1.44838709677419,1.44838709677419,1.45806451612903,1.46129032258065,1.44838709677419,1.45806451612903,1.44193548387097,1.44516129032258,1.4258064516129,1.4258064516129,1.40322580645161,1.39677419354839,1.38709677419355,1.38387096774194,1.3741935483871,1.3741935483871,1.36774193548387,1.36451612903226,1.3741935483871,1.37096774193548,1.3741935483871,1.37741935483871,1.37741935483871,1.37741935483871,1.37741935483871,1.37741935483871,1.38064516129032,1.37741935483871,1.37741935483871,1.37096774193548,1.38387096774194,1.38064516129032,1.37741935483871,1.38064516129032,1.3741935483871,1.36774193548387,1.36451612903226,1.37096774193548,1.37096774193548,1.36451612903226,1.36774193548387,1.36451612903226,1.36451612903226,1.36774193548387,1.36129032258065,1.36451612903226,1.36451612903226,1.3741935483871,1.36129032258065,1.36451612903226,1.36129032258065,1.36451612903226,1.36129032258065,1.36451612903226,1.36451612903226,1.36451612903226,1.36129032258065,1.36129032258065,1.35483870967742,1.36451612903226,1.36774193548387,1.35806451612903,1.36451612903226,1.37741935483871,1.40322580645161,1.41935483870968,1.4258064516129,1.42903225806452,1.4258064516129,1.42258064516129,1.4258064516129,1.41290322580645,1.40645161290323,1.3741935483871,1.35806451612903,1.34838709677419,1.34838709677419,1.34838709677419,1.35483870967742,1.34516129032258,1.34838709677419,1.35161290322581,1.35161290322581,1.37096774193548,1.51290322580645,1.92258064516129,2.28387096774194,2.07096774193548,1.7258064516129,1.45483870967742,1.38387096774194,1.37096774193548,1.35806451612903,1.34516129032258,1.33548387096774,1.33870967741935,1.33870967741935,1.34193548387097,1.33870967741935,1.34516129032258,1.34516129032258,1.34516129032258,1.34193548387097,1.34193548387097,1.33548387096774,1.35483870967742,1.35161290322581,1.35806451612903,1.35161290322581,1.36451612903226,1.36129032258065,1.36774193548387,1.36774193548387,1.37741935483871,1.38064516129032,1.38709677419355,1.39354838709677,1.39677419354839,1.40645161290323,1.41290322580645,1.41612903225806,1.43548387096774,1.44193548387097,1.45161290322581,1.44838709677419,1.45161290322581,1.45806451612903,1.45806451612903,1.46451612903226,1.46129032258065,1.46451612903226,1.45483870967742,1.45483870967742,1.44838709677419,1.43548387096774,1.42258064516129,1.40645161290323,1.39677419354839,1.38387096774194,1.38387096774194,1.38387096774194,1.37741935483871,1.37096774193548,1.37096774193548,1.37096774193548,1.37096774193548,1.36129032258065,1.37741935483871,1.37096774193548,1.37741935483871,1.3741935483871,1.37741935483871,1.36129032258065,1.37096774193548,1.37096774193548,1.3741935483871,1.36774193548387,1.37741935483871,1.37096774193548,1.37096774193548,1.36774193548387,1.3741935483871,1.35806451612903,1.35806451612903,1.35806451612903,1.36451612903226,1.36774193548387,1.36774193548387,1.36451612903226,1.36451612903226,1.36451612903226,1.36451612903226,1.36451612903226,1.36129032258065,1.35483870967742,1.36129032258065,1.36129032258065,1.36129032258065,1.36774193548387,1.35483870967742,1.36451612903226,1.35483870967742,1.36774193548387,1.36129032258065,1.36451612903226,1.36774193548387,1.35806451612903,1.36129032258065,1.37096774193548,1.4,1.42258064516129,1.4258064516129,1.4258064516129,1.41935483870968,1.41935483870968,1.43225806451613,1.41612903225806,1.40322580645161,1.36774193548387,1.34516129032258,1.35161290322581,1.33870967741935,1.34193548387097,1.34838709677419,1.34516129032258,1.34838709677419,1.35483870967742,1.34516129032258,1.35806451612903,1.56451612903226,2.01935483870968,2.31612903225806,1.99677419354839,1.65161290322581,1.40645161290323,1.3741935483871,1.36774193548387,1.34838709677419,1.34516129032258,1.33870967741935,1.34193548387097,1.33870967741935,1.33870967741935,1.33548387096774,1.33548387096774,1.34193548387097,1.34838709677419,1.34193548387097,1.34516129032258,1.34516129032258,1.34838709677419,1.34838709677419,1.35483870967742,1.35483870967742,1.35806451612903,1.35483870967742,1.36451612903226,1.37096774193548,1.37096774193548,1.38064516129032,1.38064516129032,1.39354838709677,1.39354838709677,1.40322580645161,1.41612903225806,1.42258064516129,1.43225806451613,1.44193548387097,1.44193548387097,1.45161290322581,1.45483870967742,1.44838709677419,1.46129032258065,1.46451612903226,1.46129032258065,1.46129032258065,1.45161290322581,1.44838709677419,1.43548387096774,1.4258064516129,1.40967741935484,1.4,1.39032258064516,1.38387096774194,1.37741935483871,1.37096774193548,1.36129032258065,1.36451612903226,1.36774193548387,1.36774193548387,1.3741935483871,1.36774193548387,1.38064516129032,1.3741935483871,1.38709677419355,1.37741935483871,1.38387096774194,1.37741935483871,1.38709677419355,1.38387096774194,1.38064516129032,1.38064516129032,1.38387096774194,1.37741935483871,1.38064516129032,1.36129032258065,1.37096774193548,1.36129032258065,1.3741935483871,1.37741935483871,1.37096774193548,1.37096774193548,1.36774193548387,1.36451612903226,1.36129032258065,1.36774193548387,1.36451612903226,1.36774193548387,1.36129032258065,1.36774193548387,1.36451612903226,1.3741935483871,1.36129032258065,1.36774193548387,1.36451612903226,1.36451612903226,1.36451612903226,1.36774193548387,1.37096774193548,1.36774193548387,1.36451612903226,1.37096774193548,1.36129032258065,1.36129032258065,1.3741935483871,1.39677419354839,1.41290322580645,1.42258064516129,1.42903225806452,1.4258064516129,1.42903225806452,1.4258064516129,1.41612903225806,1.41612903225806,1.37096774193548,1.35806451612903,1.35483870967742,1.35161290322581,1.34838709677419,1.35161290322581,1.35161290322581,1.34838709677419,1.36451612903226,1.34838709677419,1.38387096774194,1.5741935483871,2.03870967741935,2.32258064516129,2.01935483870968,1.6741935483871,1.41612903225806,1.38064516129032,1.36774193548387,1.35483870967742,1.34516129032258,1.34516129032258,1.33548387096774,1.33870967741935,1.33870967741935,1.34193548387097,1.34193548387097,1.33870967741935,1.34516129032258,1.34838709677419,1.34838709677419,1.34193548387097,1.34193548387097,1.34838709677419,1.34838709677419,1.35806451612903,1.35483870967742,1.36774193548387,1.36451612903226,1.36774193548387,1.3741935483871,1.37741935483871,1.38709677419355,1.39354838709677,1.39677419354839,1.40322580645161,1.40967741935484,1.41612903225806,1.42903225806452,1.43225806451613,1.44193548387097,1.44193548387097,1.44516129032258,1.44516129032258,1.45483870967742,1.45161290322581,1.46129032258065,1.45161290322581,1.45483870967742,1.44193548387097,1.44193548387097,1.41935483870968,1.41935483870968,1.4,1.39354838709677,1.38709677419355,1.38064516129032,1.37096774193548,1.36774193548387,1.37096774193548,1.36774193548387,1.36774193548387,1.36774193548387,1.37096774193548,1.37096774193548,1.3741935483871,1.36774193548387,1.37741935483871,1.3741935483871,1.3741935483871,1.37096774193548,1.3741935483871,1.3741935483871,1.3741935483871,1.36774193548387,1.37096774193548,1.37096774193548,1.37096774193548,1.36451612903226,1.36451612903226,1.36774193548387,1.36451612903226,1.36774193548387,1.36129032258065,1.36451612903226,1.36129032258065,1.35806451612903,1.36129032258065,1.36774193548387,1.36129032258065,1.36774193548387,1.35806451612903,1.36129032258065,1.35806451612903,1.36451612903226,1.35806451612903,1.36129032258065,1.35483870967742,1.36129032258065,1.35483870967742,1.36451612903226,1.36129032258065,1.36451612903226,1.36451612903226,1.35806451612903,1.3741935483871,1.39032258064516,1.4,1.42258064516129,1.4258064516129,1.41935483870968,1.42258064516129,1.42258064516129,1.41612903225806,1.40967741935484,1.38709677419355,1.34838709677419,1.35161290322581,1.34838709677419,1.34838709677419,1.34516129032258,1.34838709677419,1.34838709677419,1.35483870967742,1.35161290322581,1.35806451612903,1.43548387096774,1.75483870967742,2.18064516129032,2.28064516129032,1.83225806451613,1.55161290322581,1.3741935483871,1.37741935483871,1.35483870967742,1.34516129032258,1.34516129032258,1.34193548387097,1.33870967741935,1.32903225806452,1.34193548387097,1.33870967741935,1.34193548387097,1.34193548387097,1.34193548387097,1.34838709677419,1.34838709677419,1.34516129032258,1.35161290322581,1.34838709677419,1.35806451612903,1.35483870967742,1.36451612903226,1.36451612903226,1.37096774193548,1.37741935483871,1.3741935483871,1.38064516129032,1.38709677419355,1.39354838709677,1.4,1.41290322580645,1.41612903225806,1.42903225806452,1.43548387096774,1.44193548387097,1.44838709677419,1.45161290322581,1.45161290322581,1.45806451612903,1.45806451612903,1.46129032258065,1.46451612903226,1.46451612903226,1.45483870967742,1.45483870967742,1.43548387096774,1.42903225806452,1.41612903225806,1.40967741935484,1.39354838709677,1.38709677419355,1.38709677419355,1.38387096774194,1.37741935483871,1.37741935483871,1.38387096774194,1.37741935483871,1.38064516129032,1.37741935483871,1.38387096774194,1.37741935483871,1.38387096774194,1.3741935483871,1.38064516129032,1.38064516129032,1.38387096774194,1.38064516129032,1.37741935483871,1.3741935483871,1.38064516129032,1.37096774193548,1.37741935483871,1.3741935483871,1.3741935483871,1.37096774193548,1.3741935483871,1.3741935483871,1.37096774193548,1.36774193548387,1.36451612903226,1.36774193548387,1.37096774193548,1.36774193548387,1.36451612903226,1.36451612903226,1.37096774193548,1.36774193548387,1.36774193548387,1.36774193548387,1.36451612903226,1.35483870967742,1.36129032258065,1.36774193548387,1.36129032258065,1.35483870967742,1.35806451612903,1.36774193548387,1.36129032258065,1.37096774193548,1.36129032258065,1.37741935483871,1.40645161290323,1.41290322580645,1.41935483870968,1.41935483870968,1.41935483870968,1.42258064516129,1.41612903225806,1.40967741935484,1.38387096774194,1.35161290322581,1.35161290322581,1.34193548387097,1.34193548387097,1.34193548387097,1.34516129032258,1.34193548387097,1.34516129032258,1.34838709677419,1.33225806451613,1.40645161290323,1.69677419354839,2.14838709677419,2.30645161290323,1.84838709677419,1.56129032258065,1.36129032258065,1.37096774193548,1.35806451612903,1.34193548387097,1.33225806451613,1.33225806451613,1.32903225806452,1.3258064516129,1.33225806451613,1.33225806451613,1.34193548387097,1.32903225806452,1.34193548387097,1.33225806451613,1.33225806451613,1.33225806451613,1.33548387096774,1.33870967741935,1.34838709677419,1.34838709677419,1.34516129032258,1.34516129032258,1.35161290322581,1.34838709677419,1.36451612903226,1.3741935483871,1.37096774193548,1.38387096774194,1.38709677419355,1.39354838709677,1.4,1.41290322580645,1.41612903225806,1.4258064516129,1.43225806451613,1.43870967741935,1.43548387096774,1.44193548387097,1.43870967741935
1.38709677419355,1.38387096774194,1.37741935483871,1.38064516129032,1.37096774193548,1.37741935483871,1.3741935483871,1.3741935483871,1.36774193548387,1.38387096774194,1.37741935483871,1.38064516129032,1.38387096774194,1.37741935483871,1.3741935483871,1.38387096774194,1.37741935483871,1.37741935483871,1.37741935483871,1.37096774193548,1.38387096774194,1.37096774193548,1.37096774193548,1.3741935483871,1.3741935483871,1.36451612903226,1.36774193548387,1.36774193548387,1.37096774193548,1.36129032258065,1.36774193548387,1.36129032258065,1.36774193548387,1.36451612903226,1.36451612903226,1.36451612903226,1.36451612903226,1.36129032258065,1.36451612903226,1.36774193548387,1.35483870967742,1.36774193548387,1.36129032258065,1.36774193548387,1.36774193548387,1.36774193548387,1.37096774193548,1.36129032258065,1.36129032258065,1.37741935483871,1.39354838709677,1.41290322580645,1.41612903225806,1.43225806451613,1.41612903225806,1.4258064516129,1.4258064516129,1.4258064516129,1.40645161290323,1.3741935483871,1.35483870967742,1.35161290322581,1.35161290322581,1.34838709677419,1.34838709677419,1.34838709677419,1.34838709677419,1.35483870967742,1.35161290322581,1.35806451612903,1.49677419354839,1.86774193548387,2.24516129032258,2.08387096774194,1.73870967741935,1.4741935483871,1.3741935483871,1.37096774193548,1.35806451612903,1.34193548387097,1.34193548387097,1.34516129032258,1.34516129032258,1.33870967741935,1.33870967741935,1.34193548387097,1.34516129032258,1.34516129032258,1.34516129032258,1.34516129032258,1.35161290322581,1.35161290322581,1.34838709677419,1.35806451612903,1.35161290322581,1.36129032258065,1.35806451612903,1.37096774193548,1.36774193548387,1.38064516129032,1.38064516129032,1.38709677419355,1.39354838709677,1.40322580645161,1.40645161290323,1.41612903225806,1.42903225806452,1.43870967741935,1.43870967741935,1.44838709677419,1.45161290322581,1.45161290322581,1.45161290322581,1.45483870967742,1.46451612903226,1.46451612903226,1.46451612903226,1.45806451612903,1.44838709677419,1.43548387096774,1.43225806451613,1.41935483870968,1.40967741935484,1.39032258064516,1.38709677419355,1.3741935483871,1.37741935483871,1.36774193548387,1.37096774193548,1.37096774193548,1.3741935483871,1.37096774193548,1.37741935483871,1.3741935483871,1.38064516129032,1.38387096774194,1.38387096774194,1.38064516129032,1.38064516129032,1.38387096774194,1.38387096774194,1.38709677419355,1.3741935483871,1.38064516129032,1.3741935483871,1.37741935483871,1.37096774193548,1.37096774193548,1.37096774193548,1.37096774193548,1.36451612903226,1.3741935483871,1.36451612903226,1.36451612903226,1.36129032258065,1.36451612903226,1.36451612903226,1.36774193548387,1.36129032258065,1.36451612903226,1.36129032258065,1.36129032258065,1.36451612903226,1.36129032258065,1.36451612903226,1.36129032258065,1.36451612903226,1.36129032258065,1.36451612903226,1.36774193548387,1.35806451612903,1.35806451612903,1.36774193548387,1.36129032258065,1.36451612903226,1.36774193548387,1.39032258064516,1.40322580645161,1.4258064516129,1.42903225806452,1.4258064516129,1.42258064516129,1.4258064516129,1.41935483870968,1.41612903225806,1.38387096774194,1.35483870967742,1.35806451612903,1.34838709677419,1.34516129032258,1.34193548387097,1.34516129032258,1.34516129032258,1.35161290322581,1.34838709677419,1.35806451612903,1.45161290322581,1.79032258064516,2.21290322580645,2.23870967741935,1.81290322580645,1.53870967741935,1.36451612903226,1.38064516129032,1.35483870967742,1.34838709677419,1.33870967741935,1.34193548387097,1.33870967741935,1.33870967741935,1.33225806451613,1.33870967741935,1.33870967741935,1.34193548387097,1.34516129032258,1.33870967741935,1.34193548387097,1.33870967741935,1.34838709677419,1.34193548387097,1.35161290322581,1.34838709677419,1.35806451612903,1.35483870967742,1.36451612903226,1.36451612903226,1.37096774193548,1.3741935483871,1.38064516129032,1.38709677419355,1.39354838709677,1.4,1.41612903225806,1.41935483870968,1.42903225806452,1.43548387096774,1.44193548387097,1.43870967741935,1.44516129032258,1.44516129032258,1.45161290322581,1.45161290322581,1.45161290322581,1.45483870967742,1.44516129032258,1.44193548387097,1.4258064516129,1.41935483870968,1.41290322580645,1.4,1.39032258064516,1.38387096774194,1.37741935483871,1.3741935483871,1.36774193548387,1.3741935483871,1.36774193548387,1.37096774193548,1.36774193548387,1.37096774193548,1.3741935483871,1.37096774193548,1.3741935483871,1.37096774193548,1.37741935483871,1.37741935483871,1.38064516129032,1.3741935483871,1.3741935483871,1.3741935483871,1.37741935483871,1.37096774193548,1.37096774193548,1.37096774193548,1.37096774193548,1.36774193548387,1.37096774193548,1.36451612903226,1.3741935483871,1.36451612903226,1.36774193548387,1.36129032258065,1.36774193548387,1.35806451612903,1.36774193548387,1.36774193548387,1.36774193548387,1.36774193548387,1.36451612903226,1.36774193548387,1.36774193548387,1.37096774193548,1.36451612903226,1.36774193548387,1.36451612903226,1.37096774193548,1.36774193548387,1.36774193548387,1.36774193548387,1.37096774193548,1.36774193548387,1.38709677419355,1.4,1.42258064516129,1.42903225806452,1.44193548387097,1.4258064516129,1.43548387096774,1.42903225806452,1.41935483870968,1.40967741935484,1.37741935483871,1.35483870967742,1.35161290322581,1.35161290322581,1.34838709677419,1.35483870967742,1.35161290322581,1.35483870967742,1.35483870967742,1.35161290322581,1.36451612903226,1.52903225806452,1.96129032258065,2.32258064516129,2.1,1.73870967741935,1.45161290322581,1.38387096774194,1.37096774193548,1.36129032258065,1.34516129032258,1.34838709677419,1.34193548387097,1.33870967741935,1.34193548387097,1.33548387096774,1.34193548387097,1.33870967741935,1.33548387096774,1.34193548387097,1.34516129032258,1.34516129032258,1.34516129032258,1.34838709677419,1.35483870967742,1.35483870967742,1.35806451612903,1.35483870967742,1.35806451612903,1.36451612903226,1.3741935483871,1.37741935483871,1.38387096774194,1.38064516129032,1.4,1.40322580645161,1.41612903225806,1.41612903225806,1.42903225806452,1.43548387096774,1.43870967741935,1.45161290322581,1.45161290322581,1.45483870967742,1.46451612903226,1.46129032258065,1.46129032258065,1.46451612903226,1.45483870967742,1.45161290322581,1.43870967741935,1.42258064516129,1.40967741935484,1.40322580645161,1.39032258064516,1.38387096774194,1.3741935483871,1.3741935483871,1.36451612903226,1.36774193548387,1.36451612903226,1.37096774193548,1.35806451612903,1.37096774193548,1.35806451612903,1.36774193548387,1.37096774193548,1.37096774193548,1.3741935483871,1.3741935483871,1.36774193548387,1.36774193548387,1.36774193548387,1.37096774193548,1.3741935483871,1.36774193548387,1.36774193548387,1.36129032258065,1.36129032258065,1.36774193548387,1.36774193548387,1.36129032258065,1.36129032258065,1.36129032258065,1.35806451612903,1.36129032258065,1.36129032258065,1.35483870967742,1.35806451612903,1.35806451612903,1.35483870967742,1.36129032258065,1.35806451612903,1.35806451612903,1.36129032258065,1.35806451612903,1.35806451612903,1.36129032258065,1.35806451612903,1.36129032258065,1.35483870967742,1.36129032258065,1.35806451612903,1.36451612903226,1.35483870967742,1.36129032258065,1.37096774193548,1.39677419354839,1.40967741935484,1.42258064516129,1.4258064516129,1.41935483870968,1.4258064516129,1.4258064516129,1.41290322580645,1.40645161290323,1.36774193548387,1.34838709677419,1.34516129032258,1.34516129032258,1.34838709677419,1.34193548387097,1.35161290322581,1.34516129032258,1.36129032258065,1.34193548387097,1.37741935483871,1.58064516129032,2.04838709677419,2.32903225806452,2.00967741935484,1.66774193548387,1.41290322580645,1.3741935483871,1.36774193548387,1.34838709677419,1.34838709677419,1.34516129032258,1.34516129032258,1.34516129032258,1.34193548387097,1.34516129032258,1.34193548387097,1.33870967741935,1.34516129032258,1.34838709677419,1.35161290322581,1.35483870967742,1.34516129032258,1.35483870967742,1.35483870967742,1.35806451612903,1.35806451612903,1.36451612903226,1.36774193548387,1.3741935483871,1.37741935483871,1.38064516129032,1.38709677419355,1.4,1.4,1.41290322580645,1.41612903225806,1.42903225806452,1.43548387096774,1.43870967741935,1.44516129032258,1.45806451612903,1.45806451612903,1.45161290322581,1.46129032258065,1.46451612903226,1.46451612903226,1.45806451612903,1.45806451612903,1.44516129032258,1.44193548387097,1.4258064516129,1.41290322580645,1.40645161290323,1.39677419354839,1.38387096774194,1.38387096774194,1.3741935483871,1.3741935483871,1.37096774193548,1.3741935483871,1.3741935483871,1.37741935483871,1.3741935483871,1.37741935483871,1.38709677419355,1.38387096774194,1.38387096774194,1.38709677419355,1.38709677419355,1.38387096774194,1.38387096774194,1.38064516129032,1.38387096774194,1.37741935483871,1.37741935483871,1.3741935483871,1.37741935483871,1.37096774193548,1.37096774193548,1.36451612903226,1.36774193548387,1.36774193548387,1.37096774193548,1.36129032258065,1.36774193548387,1.36451612903226,1.36129032258065,1.36451612903226,1.36451612903226,1.36774193548387,1.36129032258065,1.36774193548387,1.36451612903226,1.36129032258065,1.36451612903226,1.35806451612903,1.36451612903226,1.36774193548387,1.35806451612903,1.36451612903226,1.36129032258065,1.35806451612903,1.36774193548387,1.36451612903226,1.36129032258065,1.37096774193548,1.38709677419355,1.40967741935484,1.41612903225806,1.43225806451613,1.41935483870968,1.42903225806452,1.4258064516129,1.41935483870968,1.41290322580645,1.38064516129032,1.35483870967742,1.35161290322581,1.34838709677419,1.34838709677419,1.34193548387097,1.34193548387097,1.34516129032258,1.34838709677419,1.35161290322581,1.35483870967742,1.45806451612903,1.79354838709677,2.22258064516129,2.2258064516129,1.80967741935484,1.5258064516129,1.36774193548387,1.37096774193548,1.35483870967742,1.33870967741935,1.33870967741935,1.33870967741935,1.33870967741935,1.33225806451613,1.33225806451613,1.33548387096774,1.33225806451613,1.33870967741935,1.33548387096774,1.33548387096774,1.33870967741935,1.34193548387097,1.33870967741935,1.34838709677419,1.34516129032258,1.35483870967742,1.34838709677419,1.35806451612903,1.35483870967742,1.36774193548387,1.36774193548387,1.37741935483871,1.38387096774194,1.38709677419355,1.39677419354839,1.40322580645161,1.40967741935484,1.41935483870968,1.4258064516129,1.43548387096774,1.43548387096774,1.44193548387097,1.45161290322581,1.45161290322581,1.45483870967742,1.45161290322581,1.45806451612903,1.45161290322581,1.44516129032258,1.43870967741935,1.43225806451613,1.41935483870968,1.40645161290323,1.4,1.39032258064516,1.38709677419355,1.38064516129032,1.3741935483871,1.3741935483871,1.37096774193548,1.37096774193548,1.37096774193548,1.36774193548387,1.36774193548387,1.37096774193548,1.3741935483871,1.37741935483871,1.37741935483871,1.37741935483871,1.37741935483871,1.37741935483871,1.37741935483871,1.3741935483871,1.37741935483871,1.37096774193548,1.3741935483871,1.37096774193548,1.3741935483871,1.37096774193548,1.37096774193548,1.36451612903226,1.37096774193548,1.36451612903226,1.3741935483871,1.37096774193548,1.36774193548387,1.36774193548387,1.36451612903226,1.36451612903226,1.36774193548387,1.37096774193548,1.37096774193548,1.36774193548387,1.36451612903226,1.37096774193548,1.36451612903226,1.36774193548387,1.36774193548387,1.3741935483871,1.37096774193548,1.36774193548387,1.36451612903226,1.3741935483871,1.36451612903226,1.37096774193548,1.38387096774194,1.4,1.41612903225806,1.43548387096774,1.43870967741935,1.43548387096774,1.42903225806452,1.42903225806452,1.42258064516129,1.41612903225806,1.38064516129032,1.35483870967742,1.35806451612903,1.35161290322581,1.35161290322581,1.34516129032258,1.35483870967742,1.35161290322581,1.35483870967742,1.34838709677419,1.36129032258065,1.49354838709677,1.86774193548387,2.28064516129032,2.17741935483871,1.79032258064516,1.50322580645161,1.37096774193548,1.37741935483871,1.36451612903226,1.34838709677419,1.33870967741935,1.33548387096774,1.33870967741935,1.33548387096774,1.34193548387097,1.34193548387097,1.34193548387097,1.34193548387097,1.34516129032258,1.33870967741935,1.34193548387097,1.34193548387097,1.35161290322581,1.34516129032258,1.35806451612903,1.35483870967742,1.36451612903226,1.35806451612903,1.36774193548387,1.36774193548387,1.38064516129032,1.37096774193548,1.39032258064516,1.39032258064516,1.40645161290323,1.41290322580645,1.41612903225806,1.42903225806452,1.43870967741935,1.44838709677419,1.44838709677419,1.45806451612903,1.45483870967742,1.45483870967742,1.46129032258065,1.46129032258065,1.46451612903226,1.45161290322581,1.44838709677419,1.44193548387097,1.42903225806452,1.41612903225806,1.39677419354839,1.39677419354839,1.38064516129032,1.38064516129032,1.3741935483871,1.37096774193548,1.36129032258065,1.36129032258065,1.36451612903226,1.36129032258065,1.35483870967742,1.36129032258065,1.36451612903226,1.3741935483871,1.37096774193548,1.36451612903226,1.36451612903226,1.36774193548387,1.3741935483871,1.36774193548387,1.38064516129032,1.36774193548387,1.36129032258065,1.36774193548387,1.36129032258065,1.36774193548387,1.36774193548387,1.36451612903226,1.36451612903226,1.36129032258065,1.36129032258065,1.35483870967742,1.36451612903226,1.35483870967742,1.35483870967742,1.35806451612903,1.35806451612903,1.35806451612903,1.35483870967742,1.35483870967742,1.35161290322581,1.35806451612903,1.35161290322581,1.35806451612903,1.35806451612903,1.35806451612903,1.34838709677419,1.35806451612903,1.35806451612903,1.36774193548387,1.36451612903226,1.38387096774194,1.39677419354839,1.40322580645161,1.40645161290323,1.4,1.39677419354839,1.40967741935484,1.40322580645161,1.40322580645161,1.39354838709677,1.37096774193548,1.35483870967742,1.34516129032258,1.35161290322581,1.34516129032258,1.34838709677419,1.34516129032258,1.34838709677419,1.36129032258065,1.33548387096774,1.37741935483871,1.61935483870968,2.08709677419355,2.35161290322581,1.96774193548387,1.65161290322581,1.39354838709677,1.38709677419355,1.36774193548387,1.35161290322581,1.34516129032258,1.34193548387097,1.33870967741935,1.34193548387097,1.34193548387097,1.34516129032258,1.33870967741935,1.34193548387097,1.34516129032258,1.34516129032258,1.34516129032258,1.34516129032258,1.34838709677419,1.34838709677419,1.36129032258065,1.35806451612903,1.36129032258065,1.36129032258065,1.36774193548387,1.37096774193548,1.38387096774194,1.37741935483871,1.39354838709677,1.39677419354839,1.40645161290323,1.40967741935484,1.41935483870968,1.4258064516129,1.43548387096774,1.43870967741935,1.45483870967742,1.45483870967742,1.45806451612903,1.46451612903226,1.46129032258065,1.46774193548387,1.45806451612903,1.46774193548387,1.45161290322581,1.45161290322581,1.43870967741935,1.4258064516129,1.41290322580645,1.40322580645161,1.39354838709677,1.38709677419355,1.3741935483871,1.3741935483871,1.36774193548387,1.37741935483871,1.37096774193548,1.37741935483871,1.37741935483871,1.38064516129032,1.37741935483871,1.38064516129032,1.38387096774194,1.38709677419355,1.39032258064516,1.38709677419355,1.39032258064516,1.38709677419355,1.38387096774194,1.38064516129032,1.38387096774194,1.37741935483871,1.38387096774194,1.3741935483871,1.37741935483871,1.3741935483871,1.37096774193548,1.36774193548387,1.37096774193548,1.36774193548387,1.37096774193548,1.37096774193548,1.36774193548387,1.36774193548387,1.36774193548387,1.36451612903226,1.36774193548387,1.36451612903226,1.36451612903226,1.36451612903226,1.36129032258065,1.36774193548387,1.36774193548387,1.36451612903226,1.36774193548387,1.36774193548387,1.36129032258065,1.36774193548387,1.36129032258065,1.36774193548387,1.36129032258065,1.37096774193548,1.35483870967742,1.36774193548387,1.37741935483871,1.40322580645161,1.41935483870968,1.42903225806452,1.43225806451613,1.42258064516129,1.4258064516129,1.42903225806452,1.41612903225806,1.40967741935484,1.36774193548387,1.35161290322581,1.35483870967742,1.34516129032258,1.35161290322581,1.33870967741935,1.35161290322581,1.34838709677419,1.36774193548387,1.34516129032258,1.37096774193548,1.56129032258065,2.03870967741935,2.3258064516129,2.03548387096774,1.67741935483871,1.42258064516129,1.38387096774194,1.36774193548387,1.34838709677419,1.34193548387097,1.33870967741935,1.33225806451613,1.33870967741935,1.33225806451613,1.33225806451613,1.32903225806452,1.33548387096774,1.33548387096774,1.34193548387097,1.33225806451613,1.33870967741935,1.33870967741935,1.34516129032258,1.34193548387097,1.34838709677419,1.35161290322581,1.35161290322581,1.35806451612903,1.36451612903226,1.36451612903226,1.37096774193548,1.3741935483871,1.38064516129032,1.38709677419355,1.39677419354839,1.40322580645161,1.41290322580645,1.41612903225806,1.42903225806452,1.43870967741935,1.44193548387097,1.44193548387097,1.44193548387097,1.44838709677419,1.45161290322581,1.45483870967742,1.45161290322581,1.45161290322581,1.44193548387097,1.43225806451613,1.41612903225806,1.41612903225806,1.4,1.4,1.38387096774194,1.38387096774194,1.37741935483871,1.37096774193548,1.36774193548387,1.37096774193548,1.36774193548387,1.37096774193548,1.36774193548387,1.36774193548387,1.3741935483871,1.3741935483871,1.3741935483871,1.3741935483871,1.37096774193548,1.3741935483871,1.37741935483871,1.3741935483871,1.37741935483871,1.37096774193548,1.37096774193548,1.36451612903226,1.37096774193548,1.36774193548387,1.37096774193548,1.37096774193548,1.36451612903226,1.36451612903226,1.36451612903226,1.36129032258065,1.36129032258065,1.36451612903226,1.36774193548387,1.36451612903226,1.36774193548387,1.36774193548387,1.36129032258065,1.36451612903226,1.36451612903226,1.36774193548387,1.36451612903226,1.36451612903226,1.36129032258065,1.36451612903226,1.36129032258065,1.36451612903226,1.36451612903226,1.37096774193548,1.36451612903226,1.36451612903226,1.36129032258065,1.39032258064516,1.40645161290323,1.41935483870968,1.4258064516129,1.4258064516129,1.42903225806452,1.43225806451613,1.42258064516129,1.41612903225806,1.39677419354839,1.35161290322581,1.35483870967742,1.34838709677419,1.35161290322581,1.34193548387097,1.35161290322581,1.34516129032258,1.34838709677419,1.35483870967742,1.34516129032258,1.38709677419355,1.65161290322581,2.14193548387097,2.38709677419355,1.95161290322581,1.64193548387097,1.38709677419355,1.38709677419355,1.37096774193548,1.35161290322581,1.34193548387097,1.33548387096774,1.33870967741935,1.34193548387097,1.34193548387097,1.33870967741935,1.34193548387097,1.34193548387097,1.34516129032258,1.33870967741935,1.34516129032258,1.34193548387097,1.34516129032258,1.34193548387097,1.35483870967742,1.35161290322581,1.36451612903226,1.36129032258065,1.36774193548387,1.36774193548387,1.3741935483871,1.3741935483871,1.38709677419355,1.4,1.40322580645161,1.41290322580645,1.41612903225806,1.41935483870968,1.43548387096774,1.44193548387097,1.44838709677419,1.45806451612903,1.45483870967742,1.46129032258065,1.46451612903226,1.46774193548387,1.46451612903226,1.46451612903226,1.45483870967742,1.44838709677419,1.44193548387097,1.42903225806452,1.40322580645161,1.40322580645161,1.38387096774194,1.39032258064516,1.3741935483871,1.37096774193548,1.36774193548387,1.36129032258065,1.36451612903226,1.36451612903226,1.3741935483871,1.3741935483871,1.37096774193548,1.3741935483871,1.38064516129032,1.3741935483871,1.37741935483871,1.37096774193548,1.38064516129032,1.37096774193548,1.3741935483871,1.37741935483871,1.37741935483871,1.3741935483871,1.3741935483871,1.36774193548387,1.37096774193548,1.37096774193548,1.36774193548387,1.36129032258065,1.36451612903226,1.36774193548387,1.36774193548387,1.36129032258065,1.36451612903226,1.37096774193548,1.36451612903226,1.36129032258065,1.36129032258065,1.36451612903226,1.36451612903226,1.36451612903226,1.36451612903226,1.36774193548387,1.35806451612903,1.36129032258065,1.35806451612903,1.36451612903226,1.35806451612903,1.36774193548387,1.35806451612903,1.37096774193548,1.35483870967742,1.37096774193548,1.3741935483871,1.4,1.41935483870968,1.41935483870968,1.42258064516129,1.41935483870968,1.42258064516129,1.4258064516129,1.41290322580645,1.39677419354839,1.36129032258065,1.34516129032258,1.35161290322581,1.34193548387097,1.34516129032258,1.34516129032258,1.34516129032258,1.34193548387097,1.35483870967742,1.33870967741935,1.39354838709677,1.65161290322581,2.12903225806452,2.35483870967742,1.93225806451613,1.61935483870968,1.38064516129032,1.3741935483871,1.35806451612903,1.34516129032258,1.33548387096774,1.33548387096774,1.33870967741935,1.33225806451613,1.33225806451613,1.33548387096774,1.32903225806452,1.33548387096774,1.32903225806452,1.33225806451613,1.33548387096774,1.33548387096774,1.33870967741935,1.33548387096774,1.33548387096774,1.34193548387097,1.34516129032258,1.34838709677419,1.34838709677419,1.35806451612903,1.35483870967742,1.36129032258065,1.36451612903226,1.37741935483871,1.38387096774194,1.38387096774194,1.39354838709677,1.40645161290323,1.41290322580645,1.41935483870968,1.41935483870968,1.42258064516129,1.42903225806452,1.42258064516129,1.43225806451613,1.42903225806452,1.44193548387097
