1.250390625,1.26328125,1.26328125,1.26005859375,1.26005859375,1.2568359375,1.26005859375,1.26650390625,1.25361328125,1.26005859375,1.25361328125,1.26005859375,1.276171875,1.276171875,1.26650390625,1.26005859375,1.26650390625,1.27294921875,1.27939453125,1.276171875,1.276171875,1.2890625,1.276171875,1.2890625,1.29873046875,1.2890625,1.2890625,1.2955078125,1.2890625,1.2890625,1.30517578125,1.3083984375,1.31162109375,1.3212890625,1.3212890625,1.3341796875,1.3470703125,1.36318359375,1.35673828125,1.353515625,1.36962890625,1.36318359375,1.3599609375,1.33740234375,1.327734375,1.31484375,1.31806640625,1.31484375,1.31484375,1.31806640625,1.3212890625,1.327734375,1.3212890625,1.2826171875,1.29228515625,1.38896484375,1.62099609375,1.9013671875,2.11728515625,2.00771484375,1.65966796875,1.4244140625,1.4244140625,1.41474609375,1.3857421875,1.37607421875,1.35029296875,1.36962890625,1.36318359375,1.3599609375,1.3599609375,1.36640625,1.38251953125,1.36962890625,1.37607421875,1.38896484375,1.40185546875,1.39541015625,1.40185546875,1.4115234375,1.42119140625,1.42119140625,1.44052734375,1.44375,1.456640625,1.45341796875,1.47919921875,1.48564453125,1.49853515625,1.51142578125,1.5275390625,1.53720703125,1.5404296875,1.546875,1.533984375,1.52431640625,1.4888671875,1.4630859375,1.43408203125,1.41796875,1.4115234375,1.40185546875,1.38896484375,1.37607421875,1.3857421875,1.36640625,1.37607421875,1.3728515625,1.3728515625,1.36640625,1.3728515625,1.3728515625,1.379296875,1.3728515625,1.36640625,1.36640625,1.35673828125,1.3599609375,1.36318359375,1.353515625,1.353515625,1.34384765625,1.36318359375,1.3470703125,1.35029296875,1.35029296875,1.34384765625,1.3470703125,1.35029296875,1.34384765625,1.33740234375,1.34384765625,1.3470703125,1.33740234375,1.3341796875,1.33740234375,1.33740234375,1.33740234375,1.3212890625,1.33740234375,1.340625,1.35029296875,1.36318359375,1.35673828125,1.36640625,1.379296875,1.3857421875,1.38251953125,1.38251953125,1.379296875,1.3728515625,1.35029296875,1.3341796875,1.327734375,1.31484375,1.3212890625,1.31162109375,1.3212890625,1.31162109375,1.31162109375,1.30517578125,1.2697265625,1.2890625,1.405078125,1.64677734375,1.9271484375,2.1462890625,1.98515625,1.64033203125,1.4115234375,1.4244140625,1.4115234375,1.36640625,1.36962890625,1.353515625,1.36640625,1.35029296875,1.353515625,1.36318359375,1.36962890625,1.36318359375,1.36962890625,1.3921875,1.379296875,1.3921875,1.39541015625,1.38896484375,1.405078125,1.40830078125,1.42763671875,1.4244140625,1.4373046875,1.45341796875,1.4630859375,1.47919921875,1.4888671875,1.49853515625,1.51787109375,1.508203125,1.53720703125,1.5404296875,1.52431640625,1.52431640625,1.5017578125,1.48564453125,1.4630859375,1.430859375,1.4115234375,1.39541015625,1.379296875,1.36318359375,1.3599609375,1.3470703125,1.36640625,1.353515625,1.36640625,1.353515625,1.3599609375,1.353515625,1.34384765625,1.353515625,1.34384765625,1.3341796875,1.35029296875,1.340625,1.340625,1.340625,1.33740234375,1.34384765625,1.3470703125,1.34384765625,1.33095703125,1.33740234375,1.3341796875,1.33740234375,1.31484375,1.34384765625,1.33740234375,1.3470703125,1.3470703125,1.3341796875,1.340625,1.3341796875,1.3341796875,1.33095703125,1.3341796875,1.33095703125,1.340625,1.34384765625,1.33740234375,1.340625,1.33740234375,1.340625,1.35673828125,1.340625,1.353515625,1.36962890625,1.36962890625,1.38251953125,1.40185546875,1.4115234375,1.39541015625,1.4115234375,1.405078125,1.3986328125,1.37607421875,1.353515625,1.340625,1.34384765625,1.3341796875,1.3470703125,1.33740234375,1.3341796875,1.33740234375,1.3470703125,1.301953125,1.28583984375,1.39541015625,1.5919921875,1.920703125,2.1591796875,2.12373046875,1.714453125,1.44697265625,1.41796875,1.4115234375,1.3857421875,1.37607421875,1.35673828125,1.3599609375,1.35673828125,1.36318359375,1.353515625,1.35673828125,1.3599609375,1.36962890625,1.36318359375,1.379296875,1.379296875,1.3921875,1.3986328125,1.3986328125,1.40830078125,1.4115234375,1.41796875,1.430859375,1.4373046875,1.44375,1.4630859375,1.4888671875,1.5017578125,1.50498046875,1.51142578125,1.52109375,1.5275390625,1.5275390625,1.52109375,1.5146484375,1.49208984375,1.46953125,1.44697265625,1.41474609375,1.405078125,1.379296875,1.37607421875,1.36640625,1.35673828125,1.353515625,1.3470703125,1.35029296875,1.353515625,1.353515625,1.3341796875,1.35029296875,1.3470703125,1.353515625,1.33740234375,1.34384765625,1.33095703125,1.327734375,1.32451171875,1.33095703125,1.3341796875,1.32451171875,1.327734375,1.33095703125,1.33095703125,1.31484375,1.32451171875,1.33095703125,1.3341796875,1.327734375,1.33095703125,1.33740234375,1.327734375,1.34384765625,1.32451171875,1.3341796875,1.327734375,1.33095703125,1.340625,1.3341796875,1.3341796875,1.33740234375,1.33095703125,1.340625,1.3341796875,1.340625,1.35673828125,1.353515625,1.35029296875,1.36962890625,1.3857421875,1.39541015625,1.37607421875,1.3921875,1.3921875,1.3857421875,1.36640625,1.33740234375,1.33095703125,1.32451171875,1.340625,1.3341796875,1.3341796875,1.327734375,1.32451171875,1.327734375,1.301953125,1.26328125,1.33740234375,1.546875,1.85625,2.13017578125,2.19140625,1.77568359375,1.47919921875,1.40830078125,1.42119140625,1.36962890625,1.353515625,1.35029296875,1.340625,1.353515625,1.353515625,1.34384765625,1.3599609375,1.36640625,1.353515625,1.36962890625,1.36962890625,1.379296875,1.37607421875,1.3857421875,1.3857421875,1.39541015625,1.405078125,1.4115234375,1.4244140625,1.43408203125,1.456640625,1.4630859375,1.482421875,1.508203125,1.5017578125,1.51142578125,1.52109375,1.53720703125,1.55654296875,1.53076171875,1.5146484375,1.4953125,1.5017578125,1.46630859375,1.4501953125,1.405078125,1.38896484375,1.39541015625,1.3728515625,1.3728515625,1.36640625,1.36640625,1.36962890625,1.3599609375,1.36318359375,1.3470703125,1.3599609375,1.3728515625,1.36962890625,1.340625,1.33740234375,1.3470703125,1.340625,1.327734375,1.327734375,1.340625,1.33740234375,1.33095703125,1.340625,1.3341796875,1.3470703125,1.327734375,1.327734375,1.33095703125,1.340625,1.34384765625,1.35029296875,1.340625,1.3599609375,1.340625,1.35673828125,1.34384765625,1.3470703125,1.3470703125,1.34384765625,1.3341796875,1.3341796875,1.35029296875,1.35029296875,1.33095703125,1.35029296875,1.33740234375,1.340625,1.36318359375,1.36962890625,1.36318359375,1.38251953125,1.379296875,1.3986328125,1.40185546875,1.38896484375,1.39541015625,1.3921875,1.37607421875,1.36640625,1.3470703125,1.33740234375,1.3341796875,1.33740234375,1.34384765625,1.33740234375,1.34384765625,1.33740234375,1.35673828125,1.31484375,1.3212890625,1.4630859375,1.7337890625,2.0109375,2.204296875,1.972265625,1.6306640625,1.4115234375,1.44052734375,1.45341796875,1.40830078125,1.3986328125,1.40185546875,1.405078125,1.3921875,1.3986328125,1.38896484375,1.40185546875,1.42119140625,1.41796875,1.41474609375,1.41474609375,1.42763671875,1.4373046875,1.41796875,1.42763671875,1.44375,1.44697265625,1.44375,1.456640625,1.4630859375,1.46953125,1.46953125,1.482421875,1.482421875,1.49208984375,1.49208984375,1.51142578125,1.51142578125,1.508203125,1.4888671875,1.482421875,1.4630859375,1.430859375,1.3986328125,1.3857421875,1.35673828125,1.3470703125,1.33095703125,1.340625,1.327734375,1.31806640625,1.32451171875,1.3212890625,1.3212890625,1.31806640625,1.33095703125,1.35029296875,1.31806640625,1.32451171875,1.3212890625,1.31484375,1.33095703125,1.31484375,1.31162109375,1.31162109375,1.301953125,1.3212890625,1.31806640625,1.30517578125,1.31162109375,1.31162109375,1.2955078125,1.31806640625,1.31162109375,1.31484375,1.33095703125,1.32451171875,1.31806640625,1.31806640625,1.29873046875,1.31806640625,1.31484375,1.31162109375,1.3212890625,1.3212890625,1.31806640625,1.31484375,1.3212890625,1.3212890625,1.31806640625,1.32451171875,1.33095703125,1.35673828125,1.35029296875,1.35673828125,1.38251953125,1.379296875,1.379296875,1.36962890625,1.38251953125,1.36962890625,1.35673828125,1.35029296875,1.340625,1.33740234375,1.340625,1.34384765625,1.3341796875,1.353515625,1.327734375,1.35029296875,1.33095703125,1.28583984375,1.3470703125,1.51787109375,1.8046875,2.05927734375,2.17529296875,1.85947265625,1.58232421875,1.44375,1.45341796875,1.405078125,1.379296875,1.3857421875,1.3728515625,1.37607421875,1.36318359375,1.36962890625,1.3728515625,1.38251953125,1.3857421875,1.3728515625,1.39541015625,1.3857421875,1.38251953125,1.3728515625,1.38896484375,1.3921875,1.405078125,1.41796875,1.42119140625,1.42119140625,1.43408203125,1.45341796875,1.45986328125,1.48564453125,1.4888671875,1.50498046875,1.508203125,1.51142578125,1.52109375,1.52109375,1.508203125,1.5017578125,1.4759765625,1.4501953125,1.42763671875,1.41796875,1.3986328125,1.39541015625,1.37607421875,1.38251953125,1.3857421875,1.36318359375,1.36962890625,1.36640625,1.379296875,1.37607421875,1.3728515625,1.3728515625,1.36640625,1.36318359375,1.353515625,1.353515625,1.35673828125,1.35673828125,1.35029296875,1.35673828125,1.35673828125,1.35673828125,1.353515625,1.35029296875,1.3599609375,1.353515625,1.353515625,1.36318359375,1.36318359375,1.3599609375,1.3599609375,1.3599609375,1.3599609375,1.353515625,1.35673828125,1.3599609375,1.36318359375,1.3599609375,1.35029296875,1.3599609375,1.34384765625,1.35029296875,1.34384765625,1.3470703125,1.35029296875,1.35029296875,1.34384765625,1.33740234375,1.3599609375,1.34384765625,1.36640625,1.36640625,1.37607421875,1.3857421875,1.3986328125,1.40830078125,1.37607421875,1.39541015625,1.39541015625,1.379296875,1.3857421875,1.3470703125,1.34384765625,1.3470703125,1.340625,1.340625,1.3470703125,1.327734375,1.33095703125,1.34384765625,1.2955078125,1.29228515625,1.405078125,1.61455078125,1.920703125,2.15595703125,2.101171875,1.72412109375,1.46953125,1.44375,1.4244140625,1.405078125,1.37607421875,1.379296875,1.38251953125,1.36962890625,1.3728515625,1.36640625,1.38251953125,1.379296875,1.379296875,1.379296875,1.3986328125,1.38896484375,1.3857421875,1.3921875,1.39541015625,1.4115234375,1.4115234375,1.41796875,1.43408203125,1.4373046875,1.44375,1.45986328125,1.46630859375,1.4888671875,1.48564453125,1.4953125,1.4953125,1.51787109375,1.50498046875,1.52109375,1.48564453125,1.46630859375,1.4501953125,1.42763671875,1.4115234375,1.3921875,1.36962890625,1.36640625,1.3599609375,1.35673828125,1.35673828125,1.340625,1.34384765625,1.34384765625,1.34384765625,1.3470703125,1.34384765625,1.33740234375,1.340625,1.340625,1.32451171875,1.3341796875,1.33095703125,1.327734375,1.32451171875,1.3341796875,1.3212890625,1.3212890625,1.32451171875,1.3212890625,1.31806640625,1.31806640625,1.31162109375,1.31806640625,1.31162109375,1.31484375,1.31484375,1.31162109375,1.30517578125,1.31484375,1.31806640625,1.31484375,1.33095703125,1.31484375,1.327734375,1.32451171875,1.340625,1.327734375,1.32451171875,1.3212890625,1.33095703125,1.3341796875,1.32451171875,1.340625,1.31806640625,1.327734375,1.327734375,1.353515625,1.353515625,1.36318359375,1.36318359375,1.38896484375,1.3986328125,1.38896484375,1.3986328125,1.38896484375,1.3857421875,1.37607421875,1.35673828125,1.33740234375,1.353515625,1.34384765625,1.340625,1.340625,1.3341796875,1.33740234375,1.340625,1.3083984375,1.28583984375,1.3921875,1.60166015625,1.91748046875,2.16884765625,2.1462890625,1.73701171875,1.4759765625,1.44375,1.430859375,1.40830078125,1.38251953125,1.37607421875,1.36962890625,1.36640625,1.36318359375,1.38896484375,1.38896484375,1.3857421875,1.38896484375,1.38251953125,1.38896484375,1.40185546875,1.39541015625,1.405078125,1.40830078125,1.41474609375,1.4244140625,1.4501953125,1.44052734375,1.45341796875,1.46953125,1.46953125,1.49208984375,1.49853515625,1.51142578125,1.52431640625,1.5404296875,1.546875,1.53720703125,1.5275390625,1.53076171875,1.508203125,1.482421875,1.46630859375,1.43408203125,1.4115234375,1.405078125,1.3857421875,1.39541015625,1.379296875,1.36962890625,1.37607421875,1.38251953125,1.36640625,1.3728515625,1.3728515625,1.35673828125,1.3599609375,1.36640625,1.3599609375,1.353515625,1.3599609375,1.3599609375,1.35673828125,1.35673828125,1.35029296875,1.340625,1.3470703125,1.34384765625,1.36318359375,1.35029296875,1.353515625,1.3470703125,1.340625,1.3470703125,1.3470703125,1.34384765625,1.35029296875,1.35029296875,1.353515625,1.3599609375,1.3470703125,1.3470703125,1.340625,1.3341796875,1.33740234375,1.3341796875,1.35029296875,1.33740234375,1.3470703125,1.3470703125,1.340625,1.353515625,1.34384765625,1.340625,1.34384765625,1.3341796875,1.35029296875,1.35029296875,1.3599609375,1.35029296875,1.36640625,1.3728515625,1.36962890625,1.40185546875,1.3986328125,1.38251953125,1.3986328125,1.38896484375,1.379296875,1.36318359375,1.3470703125,1.3470703125,1.3341796875,1.33740234375,1.3341796875,1.340625,1.33740234375,1.32451171875,1.3212890625,1.28583984375,1.31806640625,1.430859375,1.69189453125,1.998046875,2.230078125,2.0302734375,1.64033203125,1.405078125,1.41474609375,1.42119140625,1.37607421875,1.3470703125,1.3470703125,1.34384765625,1.35673828125,1.34384765625,1.3470703125,1.353515625,1.34384765625,1.36318359375,1.35673828125,1.36318359375,1.3857421875,1.38251953125,1.38251953125,1.3857421875,1.40830078125,1.40830078125,1.40830078125,1.43408203125,1.43408203125,1.4501953125,1.45341796875,1.47275390625,1.47919921875,1.49208984375,1.4953125,1.5146484375,1.52109375,1.51787109375,1.508203125,1.5017578125,1.48564453125,1.45341796875,1.43408203125,1.405078125,1.39541015625,1.36962890625,1.379296875,1.3728515625,1.3470703125,1.37607421875,1.35673828125,1.34384765625,1.3470703125,1.353515625,1.3599609375,1.36318359375,1.36318359375,1.34384765625,1.3470703125,1.3470703125,1.33740234375,1.3341796875,1.34384765625,1.33740234375,1.340625,1.340625,1.33740234375,1.33095703125,1.33740234375,1.327734375,1.327734375,1.33095703125,1.340625,1.3341796875,1.3470703125,1.33095703125,1.33095703125,1.32451171875,1.340625,1.3470703125,1.340625,1.34384765625,1.3470703125,1.3341796875,1.3599609375,1.340625,1.33740234375,1.3470703125,1.3470703125,1.3470703125,1.33740234375,1.3470703125,1.340625,1.34384765625,1.34384765625,1.3599609375,1.36640625,1.37607421875,1.3921875,1.36318359375,1.3921875,1.405078125,1.430859375,1.4115234375,1.40185546875,1.4115234375,1.4115234375,1.39541015625,1.35673828125,1.36640625,1.35029296875,1.34384765625,1.340625,1.353515625,1.33095703125,1.33740234375,1.34384765625,1.3083984375,1.29228515625,1.31484375,1.5017578125,1.77890625,2.04638671875,2.17529296875,1.8498046875,1.5404296875,1.4115234375,1.40185546875,1.38251953125,1.3599609375,1.36318359375,1.36640625,1.35029296875,1.36640625,1.3599609375,1.37607421875,1.36640625,1.3599609375,1.38251953125,1.38251953125,1.38251953125,1.3986328125,1.40185546875,1.38896484375,1.40830078125,1.430859375,1.42119140625,1.42763671875,1.44375,1.4501953125,1.47275390625,1.4759765625,1.48564453125,1.50498046875,1.51787109375,1.51142578125,1.51787109375,1.51787109375,1.52431640625,1.51142578125,1.50498046875,1.47919921875,1.45341796875,1.430859375,1.40830078125,1.3857421875,1.3857421875,1.36318359375,1.36318359375,1.35673828125,1.3599609375,1.36962890625,1.35673828125,1.34384765625,1.36640625,1.36318359375,1.36962890625,1.37607421875,1.36640625,1.3599609375,1.36640625,1.36640625,1.35029296875,1.35673828125,1.35673828125,1.353515625,1.36640625,1.3599609375,1.353515625,1.3470703125,1.353515625,1.3470703125,1.37607421875,1.35673828125,1.36640625,1.35673828125,1.36318359375,1.35673828125,1.353515625,1.3470703125,1.3470703125,1.36962890625,1.3599609375,1.36318359375,1.353515625,1.3599609375,1.3599609375,1.35673828125,1.340625,1.3470703125,1.353515625,1.36318359375,1.35673828125,1.3470703125,1.35029296875,1.3599609375,1.34384765625,1.353515625,1.37607421875,1.37607421875,1.37607421875,1.37607421875,1.40185546875,1.40830078125,1.3986328125,1.3986328125,1.40185546875,1.3986328125,1.38251953125,1.35029296875,1.34384765625,1.3341796875,1.33095703125,1.3470703125,1.340625,1.35029296875,1.34384765625,1.340625,1.30517578125,1.29873046875,1.37607421875,1.57587890625,1.869140625,2.1076171875,2.1205078125,1.73701171875,1.456640625,1.41796875,1.4115234375,1.36640625,1.35673828125,1.3599609375,1.33740234375,1.35029296875,1.3470703125,1.34384765625,1.35029296875,1.353515625,1.340625,1.3470703125,1.3470703125,1.3599609375,1.3470703125,1.35029296875,1.3470703125,1.36318359375,1.3599609375,1.3728515625,1.3728515625,1.37607421875,1.405078125
1.34384765625,1.3470703125,1.34384765625,1.3599609375,1.35673828125,1.35673828125,1.35673828125,1.3728515625,1.36640625,1.36318359375,1.36962890625,1.3728515625,1.38896484375,1.38896484375,1.3986328125,1.4115234375,1.41796875,1.4244140625,1.44052734375,1.4501953125,1.46953125,1.46630859375,1.4759765625,1.47919921875,1.5017578125,1.4888671875,1.50498046875,1.47275390625,1.45341796875,1.4373046875,1.4115234375,1.3986328125,1.379296875,1.3599609375,1.35673828125,1.35029296875,1.3470703125,1.34384765625,1.33095703125,1.3341796875,1.3341796875,1.3341796875,1.33740234375,1.3341796875,1.327734375,1.3341796875,1.3341796875,1.31806640625,1.327734375,1.32451171875,1.3212890625,1.31806640625,1.33095703125,1.31806640625,1.31806640625,1.31806640625,1.31806640625,1.31484375,1.31484375,1.31162109375,1.31484375,1.31162109375,1.31484375,1.31484375,1.31162109375,1.30517578125,1.31484375,1.31806640625,1.31806640625,1.33095703125,1.31806640625,1.327734375,1.327734375,1.340625,1.33095703125,1.327734375,1.32451171875,1.3341796875,1.33740234375,1.327734375,1.34384765625,1.3212890625,1.33095703125,1.33095703125,1.35673828125,1.3599609375,1.36962890625,1.36640625,1.39541015625,1.40185546875,1.39541015625,1.405078125,1.39541015625,1.38896484375,1.38251953125,1.36318359375,1.34384765625,1.3599609375,1.35029296875,1.3470703125,1.3470703125,1.340625,1.34384765625,1.3470703125,1.31484375,1.29228515625,1.3986328125,1.60810546875,1.92392578125,2.17529296875,2.152734375,1.7466796875,1.48564453125,1.4501953125,1.4373046875,1.41474609375,1.3921875,1.38251953125,1.37607421875,1.3728515625,1.36962890625,1.3986328125,1.39541015625,1.39541015625,1.39541015625,1.38896484375,1.3986328125,1.40830078125,1.405078125,1.4115234375,1.41474609375,1.4244140625,1.430859375,1.456640625,1.44697265625,1.45986328125,1.4759765625,1.4759765625,1.49853515625,1.5017578125,1.5146484375,1.53076171875,1.54365234375,1.5533203125,1.54365234375,1.533984375,1.533984375,1.5146484375,1.48564453125,1.46953125,1.44052734375,1.41474609375,1.40830078125,1.3921875,1.3986328125,1.38251953125,1.3728515625,1.379296875,1.3857421875,1.36962890625,1.3728515625,1.37607421875,1.3599609375,1.3599609375,1.36962890625,1.3599609375,1.353515625,1.3599609375,1.3599609375,1.35673828125,1.35673828125,1.35029296875,1.340625,1.35029296875,1.34384765625,1.36318359375,1.3470703125,1.353515625,1.3470703125,1.340625,1.3470703125,1.3470703125,1.340625,1.3470703125,1.3470703125,1.35029296875,1.35673828125,1.3470703125,1.3470703125,1.33740234375,1.33095703125,1.3341796875,1.33095703125,1.3470703125,1.3341796875,1.34384765625,1.34384765625,1.3341796875,1.35029296875,1.340625,1.33740234375,1.340625,1.327734375,1.34384765625,1.3470703125,1.353515625,1.34384765625,1.3599609375,1.36962890625,1.36318359375,1.3986328125,1.39541015625,1.37607421875,1.3921875,1.38251953125,1.3728515625,1.35673828125,1.340625,1.340625,1.327734375,1.33095703125,1.327734375,1.3341796875,1.33095703125,1.31806640625,1.31484375,1.27939453125,1.31162109375,1.4244140625,1.68544921875,1.9916015625,2.2236328125,2.023828125,1.63388671875,1.3986328125,1.40830078125,1.41474609375,1.36962890625,1.340625,1.340625,1.33740234375,1.35029296875,1.33740234375,1.340625,1.35029296875,1.33740234375,1.35673828125,1.35029296875,1.35673828125,1.379296875,1.37607421875,1.37607421875,1.379296875,1.40185546875,1.40185546875,1.40185546875,1.42763671875,1.430859375,1.44697265625,1.4501953125,1.46630859375,1.4759765625,1.4888671875,1.49208984375,1.51142578125,1.51787109375,1.5146484375,1.50498046875,1.49853515625,1.482421875,1.45341796875,1.430859375,1.405078125,1.3921875,1.36640625,1.37607421875,1.36962890625,1.3470703125,1.3728515625,1.353515625,1.34384765625,1.3470703125,1.353515625,1.3599609375,1.36318359375,1.36318359375,1.3470703125,1.3470703125,1.35029296875,1.33740234375,1.33740234375,1.34384765625,1.340625,1.34384765625,1.34384765625,1.340625,1.3341796875,1.340625,1.33095703125,1.33095703125,1.3341796875,1.3470703125,1.340625,1.35029296875,1.3341796875,1.33740234375,1.33095703125,1.3470703125,1.35029296875,1.3470703125,1.35029296875,1.353515625,1.34384765625,1.36640625,1.35029296875,1.34384765625,1.35673828125,1.353515625,1.35673828125,1.3470703125,1.35673828125,1.35029296875,1.35029296875,1.353515625,1.36962890625,1.37607421875,1.3857421875,1.40185546875,1.3728515625,1.3986328125,1.41474609375,1.44052734375,1.42119140625,1.4115234375,1.42119140625,1.42119140625,1.405078125,1.36640625,1.37607421875,1.36318359375,1.353515625,1.353515625,1.36318359375,1.340625,1.3470703125,1.353515625,1.3212890625,1.301953125,1.32451171875,1.51142578125,1.78857421875,2.0560546875,2.1849609375,1.85625,1.546875,1.42119140625,1.4115234375,1.3921875,1.36962890625,1.3728515625,1.37607421875,1.3599609375,1.37607421875,1.36962890625,1.38251953125,1.3728515625,1.36640625,1.38896484375,1.38896484375,1.38896484375,1.40185546875,1.40830078125,1.39541015625,1.41474609375,1.4373046875,1.4244140625,1.43408203125,1.44697265625,1.45341796875,1.4759765625,1.47919921875,1.4888671875,1.50498046875,1.52109375,1.5146484375,1.52109375,1.51787109375,1.52431640625,1.51142578125,1.50498046875,1.4759765625,1.4501953125,1.42763671875,1.405078125,1.38251953125,1.38251953125,1.3599609375,1.3599609375,1.353515625,1.353515625,1.36318359375,1.35029296875,1.33740234375,1.35673828125,1.35673828125,1.3599609375,1.36640625,1.35673828125,1.3470703125,1.35673828125,1.353515625,1.33740234375,1.34384765625,1.34384765625,1.340625,1.353515625,1.34384765625,1.33740234375,1.33095703125,1.33740234375,1.33095703125,1.3599609375,1.340625,1.3470703125,1.340625,1.34384765625,1.33740234375,1.3341796875,1.32451171875,1.327734375,1.35029296875,1.33740234375,1.340625,1.33095703125,1.33740234375,1.33740234375,1.3341796875,1.31806640625,1.32451171875,1.33095703125,1.340625,1.3341796875,1.32451171875,1.327734375,1.33740234375,1.3212890625,1.33095703125,1.353515625,1.353515625,1.353515625,1.35673828125,1.379296875,1.3857421875,1.379296875,1.379296875,1.379296875,1.379296875,1.36640625,1.33095703125,1.32451171875,1.31806640625,1.31484375,1.33095703125,1.327734375,1.33740234375,1.33095703125,1.327734375,1.29228515625,1.2890625,1.36640625,1.56943359375,1.86591796875,2.10439453125,2.11728515625,1.73701171875,1.45986328125,1.4244140625,1.41796875,1.3728515625,1.36640625,1.3728515625,1.353515625,1.36640625,1.36640625,1.36318359375,1.3728515625,1.379296875,1.3728515625,1.379296875,1.38251953125,1.40185546875,1.38896484375,1.39541015625,1.3986328125,1.41796875,1.41796875,1.43408203125,1.4373046875,1.44697265625,1.47919921875,1.46953125,1.47919921875,1.48564453125,1.49853515625,1.51142578125,1.5146484375,1.5275390625,1.53076171875,1.5146484375,1.50498046875,1.5017578125,1.47275390625,1.45341796875,1.42763671875,1.3857421875,1.405078125,1.39541015625,1.37607421875,1.38251953125,1.38251953125,1.37607421875,1.36640625,1.379296875,1.3599609375,1.3728515625,1.36318359375,1.36962890625,1.36318359375,1.3599609375,1.35673828125,1.3599609375,1.34384765625,1.36318359375,1.3599609375,1.3470703125,1.3599609375,1.3470703125,1.33740234375,1.34384765625,1.353515625,1.34384765625,1.34384765625,1.35029296875,1.34384765625,1.340625,1.3470703125,1.34384765625,1.3470703125,1.35673828125,1.353515625,1.35029296875,1.34384765625,1.36318359375,1.353515625,1.340625,1.35673828125,1.35029296875,1.34384765625,1.35029296875,1.35673828125,1.3470703125,1.36318359375,1.3470703125,1.353515625,1.3728515625,1.34384765625,1.35673828125,1.353515625,1.34384765625,1.36640625,1.36962890625,1.37607421875,1.37607421875,1.38896484375,1.4115234375,1.3986328125,1.39541015625,1.40830078125,1.3986328125,1.36318359375,1.3599609375,1.33095703125,1.3212890625,1.32451171875,1.32451171875,1.32451171875,1.31484375,1.31162109375,1.31484375,1.28583984375,1.26005859375,1.34384765625,1.546875,1.84013671875,2.08828125,2.1591796875,1.77890625,1.50498046875,1.4373046875,1.42119140625,1.38251953125,1.36962890625,1.36318359375,1.34384765625,1.353515625,1.353515625,1.36640625,1.36640625,1.36318359375,1.379296875,1.37607421875,1.38896484375,1.3986328125,1.3986328125,1.4115234375,1.41796875,1.4115234375,1.4501953125,1.44052734375,1.44697265625,1.46630859375,1.47275390625,1.482421875,1.508203125,1.508203125,1.52431640625,1.53720703125,1.55654296875,1.54365234375,1.546875,1.53720703125,1.53076171875,1.52109375,1.48564453125,1.456640625,1.43408203125,1.42119140625,1.41474609375,1.40830078125,1.38251953125,1.3857421875,1.3728515625,1.379296875,1.3728515625,1.36640625,1.36962890625,1.3599609375,1.3728515625,1.353515625,1.353515625,1.36318359375,1.35673828125,1.35673828125,1.35029296875,1.340625,1.3470703125,1.3341796875,1.35029296875,1.33740234375,1.340625,1.34384765625,1.3341796875,1.35029296875,1.33740234375,1.33095703125,1.32451171875,1.33740234375,1.327734375,1.33095703125,1.3212890625,1.327734375,1.3341796875,1.32451171875,1.327734375,1.31806640625,1.31162109375,1.3212890625,1.31806640625,1.31806640625,1.31162109375,1.3212890625,1.31806640625,1.3212890625,1.31162109375,1.31806640625,1.31806640625,1.31806640625,1.3083984375,1.32451171875,1.3212890625,1.3212890625,1.3341796875,1.327734375,1.34384765625,1.34384765625,1.36962890625,1.36640625,1.35673828125,1.36962890625,1.35673828125,1.37607421875,1.3341796875,1.327734375,1.32451171875,1.3341796875,1.32451171875,1.31806640625,1.31806640625,1.31806640625,1.3083984375,1.31806640625,1.26328125,1.2697265625,1.42763671875,1.66611328125,1.9787109375,2.2107421875,2.075390625,1.67900390625,1.42763671875,1.4373046875,1.40830078125,1.39541015625,1.36962890625,1.37607421875,1.3728515625,1.36318359375,1.36318359375,1.35673828125,1.36962890625,1.38251953125,1.3728515625,1.3728515625,1.379296875,1.3986328125,1.40185546875,1.40830078125,1.4115234375,1.4115234375,1.430859375,1.4373046875,1.43408203125,1.46630859375,1.456640625,1.47919921875,1.5017578125,1.51142578125,1.5146484375,1.52109375,1.533984375,1.54365234375,1.533984375,1.52431640625,1.5146484375,1.4953125,1.46953125,1.4501953125,1.41796875,1.40830078125,1.3921875,1.3921875,1.38251953125,1.36962890625,1.37607421875,1.379296875,1.37607421875,1.37607421875,1.3857421875,1.37607421875,1.36318359375,1.36318359375,1.36318359375,1.379296875,1.3599609375,1.36962890625,1.35029296875,1.3599609375,1.353515625,1.3599609375,1.3599609375,1.3599609375,1.3470703125,1.35673828125,1.35673828125,1.35673828125,1.34384765625,1.3599609375,1.3599609375,1.35029296875,1.3470703125,1.3341796875,1.34384765625,1.3470703125,1.36318359375,1.34384765625,1.35029296875,1.33095703125,1.340625,1.340625,1.35029296875,1.3341796875,1.340625,1.34384765625,1.34384765625,1.36318359375,1.35673828125,1.340625,1.353515625,1.3599609375,1.3599609375,1.36318359375,1.3921875,1.37607421875,1.3728515625,1.405078125,1.40185546875,1.38896484375,1.40185546875,1.40185546875,1.3857421875,1.3921875,1.33740234375,1.3341796875,1.35029296875,1.33740234375,1.3341796875,1.327734375,1.327734375,1.34384765625,1.3212890625,1.31484375,1.27939453125,1.33740234375,1.508203125,1.83369140625,2.09794921875,2.16884765625,1.79501953125,1.49208984375,1.39541015625,1.40185546875,1.38896484375,1.36962890625,1.353515625,1.36318359375,1.3599609375,1.3599609375,1.36318359375,1.3599609375,1.36640625,1.36318359375,1.3599609375,1.38251953125,1.3728515625,1.3857421875,1.3986328125,1.40185546875,1.42763671875,1.40830078125,1.41796875,1.4244140625,1.4501953125,1.456640625,1.482421875,1.482421875,1.4953125,1.49853515625,1.52109375,1.52109375,1.52109375,1.5146484375,1.51142578125,1.5275390625,1.4953125,1.46630859375,1.44052734375,1.405078125,1.38896484375,1.38251953125,1.379296875,1.35673828125,1.35029296875,1.3470703125,1.33740234375,1.33740234375,1.340625,1.35673828125,1.35029296875,1.34384765625,1.353515625,1.340625,1.33740234375,1.353515625,1.3341796875,1.3212890625,1.3212890625,1.34384765625,1.33095703125,1.327734375,1.33095703125,1.327734375,1.327734375,1.32451171875,1.32451171875,1.340625,1.33095703125,1.3470703125,1.3212890625,1.35029296875,1.33740234375,1.3212890625,1.340625,1.3599609375,1.33740234375,1.33740234375,1.33740234375,1.35029296875,1.34384765625,1.35029296875,1.3470703125,1.33095703125,1.3599609375,1.340625,1.35029296875,1.3470703125,1.34384765625,1.33095703125,1.33095703125,1.340625,1.35029296875,1.36318359375,1.36318359375,1.38251953125,1.37607421875,1.3986328125,1.3986328125,1.3857421875,1.3986328125,1.38896484375,1.3857421875,1.35673828125,1.35673828125,1.353515625,1.34384765625,1.34384765625,1.3470703125,1.3470703125,1.3341796875,1.35029296875,1.340625,1.31162109375,1.3083984375,1.40830078125,1.62421875,1.93681640625,2.16884765625,2.09150390625,1.714453125,1.4501953125,1.4373046875,1.42763671875,1.40830078125,1.38251953125,1.37607421875,1.36962890625,1.3728515625,1.3599609375,1.36962890625,1.379296875,1.3728515625,1.38251953125,1.38251953125,1.39541015625,1.38896484375,1.38896484375,1.3921875,1.405078125,1.40830078125,1.41796875,1.42763671875,1.42119140625,1.4373046875,1.44052734375,1.46630859375,1.48564453125,1.49208984375,1.51787109375,1.508203125,1.51787109375,1.51787109375,1.53076171875,1.5275390625,1.52109375,1.4888671875,1.4759765625,1.45341796875,1.42119140625,1.3986328125,1.38251953125,1.3728515625,1.3857421875,1.3728515625,1.3599609375,1.36318359375,1.3728515625,1.36640625,1.3599609375,1.36318359375,1.353515625,1.3599609375,1.35029296875,1.35029296875,1.36640625,1.35029296875,1.35673828125,1.3599609375,1.35029296875,1.340625,1.340625,1.3341796875,1.34384765625,1.3341796875,1.33740234375,1.34384765625,1.340625,1.33095703125,1.33095703125,1.33095703125,1.340625,1.340625,1.33740234375,1.33095703125,1.33740234375,1.33095703125,1.340625,1.33095703125,1.33095703125,1.33740234375,1.33095703125,1.340625,1.33095703125,1.33095703125,1.3341796875,1.3470703125,1.327734375,1.3341796875,1.340625,1.3341796875,1.34384765625,1.3470703125,1.3341796875,1.34384765625,1.3599609375,1.35673828125,1.3599609375,1.379296875,1.3857421875,1.3857421875,1.39541015625,1.3857421875,1.3857421875,1.379296875,1.340625,1.3341796875,1.33740234375,1.33095703125,1.3212890625,1.33095703125,1.31484375,1.33740234375,1.3212890625,1.30517578125,1.27294921875,1.32451171875,1.5146484375,1.80146484375,2.07861328125,2.18818359375,1.843359375,1.56943359375,1.43408203125,1.42119140625,1.3986328125,1.36962890625,1.3599609375,1.3599609375,1.34384765625,1.36318359375,1.353515625,1.35029296875,1.3470703125,1.3599609375,1.36640625,1.37607421875,1.36962890625,1.379296875,1.3921875,1.3921875,1.3986328125,1.41796875,1.42763671875,1.43408203125,1.44375,1.4501953125,1.47919921875,1.47919921875,1.49853515625,1.51787109375,1.5275390625,1.5275390625,1.54365234375,1.55009765625,1.5533203125,1.52431640625,1.5146484375,1.48564453125,1.4630859375,1.44697265625,1.42763671875,1.40185546875,1.3986328125,1.3857421875,1.3857421875,1.379296875,1.3921875,1.38896484375,1.37607421875,1.36318359375,1.38251953125,1.38251953125,1.38251953125,1.379296875,1.38251953125,1.37607421875,1.37607421875,1.37607421875,1.37607421875,1.37607421875,1.38251953125,1.38896484375,1.3728515625,1.36962890625,1.36640625,1.36962890625,1.36318359375,1.3728515625,1.36962890625,1.36962890625,1.36318359375,1.35673828125,1.36640625,1.35673828125,1.3599609375,1.3599609375,1.35673828125,1.35029296875,1.35673828125,1.35673828125,1.35029296875,1.353515625,1.3470703125,1.35029296875,1.35673828125,1.3470703125,1.34384765625,1.3470703125,1.340625,1.3341796875,1.34384765625,1.34384765625,1.33095703125,1.340625,1.340625,1.327734375,1.33095703125,1.340625,1.353515625,1.35029296875,1.36318359375,1.3599609375,1.3921875,1.38251953125,1.38251953125,1.38896484375,1.379296875,1.353515625,1.33095703125,1.31484375,1.31162109375,1.31162109375,1.31484375,1.31162109375,1.31806640625,1.30517578125,1.3083984375,1.2955078125,1.2568359375,1.276171875,1.44052734375,1.70478515625,2.00771484375,2.1978515625,1.97548828125,1.6177734375,1.4115234375,1.41796875,1.3921875,1.36962890625,1.3599609375,1.34384765625,1.340625,1.35029296875,1.34384765625,1.353515625,1.3470703125,1.353515625,1.3470703125,1.35029296875,1.35673828125,1.36962890625,1.36318359375,1.3728515625,1.3728515625,1.3986328125,1.3921875,1.405078125,1.41796875,1.4115234375,1.42763671875,1.44697265625,1.45986328125,1.46953125,1.4759765625,1.482421875,1.4953125,1.5017578125,1.49853515625,1.482421875,1.456640625,1.4373046875,1.42119140625,1.3857421875,1.36962890625,1.35029296875,1.31806640625,1.3212890625,1.301953125,1.29873046875,1.2955078125,1.27939453125
1.4115234375,1.40185546875,1.4115234375,1.3857421875,1.39541015625,1.3857421875,1.38896484375,1.3986328125,1.40185546875,1.3986328125,1.3728515625,1.38896484375,1.3857421875,1.38251953125,1.36640625,1.3599609375,1.3857421875,1.379296875,1.3728515625,1.37607421875,1.3986328125,1.35673828125,1.36962890625,1.36962890625,1.36962890625,1.35673828125,1.36318359375,1.3470703125,1.353515625,1.35029296875,1.3599609375,1.340625,1.340625,1.35029296875,1.34384765625,1.34384765625,1.353515625,1.33740234375,1.340625,1.340625,1.3341796875,1.34384765625,1.35673828125,1.35673828125,1.353515625,1.35673828125,1.3728515625,1.36640625,1.3728515625,1.36318359375,1.3470703125,1.33095703125,1.327734375,1.31162109375,1.31806640625,1.301953125,1.30517578125,1.30517578125,1.3083984375,1.30517578125,1.3083984375,1.29228515625,1.25361328125,1.30517578125,1.48564453125,1.76279296875,2.023828125,2.1205078125,1.7982421875,1.51142578125,1.3986328125,1.3921875,1.38896484375,1.3599609375,1.353515625,1.35029296875,1.34384765625,1.35029296875,1.36640625,1.353515625,1.35673828125,1.37607421875,1.37607421875,1.36318359375,1.38251953125,1.3728515625,1.3857421875,1.3921875,1.40185546875,1.405078125,1.40830078125,1.42763671875,1.44052734375,1.4501953125,1.46953125,1.4888671875,1.508203125,1.5017578125,1.52431640625,1.53076171875,1.53076171875,1.55009765625,1.5404296875,1.533984375,1.52431640625,1.49208984375,1.46630859375,1.430859375,1.42119140625,1.3921875,1.3921875,1.37607421875,1.37607421875,1.3728515625,1.36640625,1.37607421875,1.36640625,1.3728515625,1.38896484375,1.379296875,1.37607421875,1.36962890625,1.37607421875,1.379296875,1.37607421875,1.36962890625,1.37607421875,1.36962890625,1.3728515625,1.37607421875,1.3728515625,1.3599609375,1.36962890625,1.3599609375,1.36640625,1.36640625,1.3599609375,1.36318359375,1.36318359375,1.36640625,1.36640625,1.36962890625,1.35673828125,1.3599609375,1.35029296875,1.353515625,1.34384765625,1.35029296875,1.353515625,1.3599609375,1.3599609375,1.353515625,1.3599609375,1.3470703125,1.34384765625,1.33740234375,1.34384765625,1.34384765625,1.33095703125,1.3341796875,1.340625,1.353515625,1.36640625,1.3728515625,1.3857421875,1.379296875,1.40185546875,1.405078125,1.39541015625,1.40830078125,1.39541015625,1.40185546875,1.3857421875,1.35673828125,1.35029296875,1.353515625,1.3599609375,1.353515625,1.3470703125,1.34384765625,1.3341796875,1.35029296875,1.31162109375,1.29873046875,1.3921875,1.5919921875,1.894921875,2.1333984375,2.12373046875,1.7595703125,1.5017578125,1.44375,1.43408203125,1.39541015625,1.36962890625,1.35673828125,1.3599609375,1.35029296875,1.353515625,1.35673828125,1.353515625,1.3599609375,1.3599609375,1.3599609375,1.3728515625,1.37607421875,1.3857421875,1.39541015625,1.38896484375,1.3986328125,1.40830078125,1.41474609375,1.41796875,1.430859375,1.45341796875,1.4501953125,1.47275390625,1.48564453125,1.49208984375,1.49853515625,1.508203125,1.51787109375,1.5146484375,1.5146484375,1.4953125,1.482421875,1.46630859375,1.4244140625,1.405078125,1.39541015625,1.37607421875,1.36962890625,1.3599609375,1.35029296875,1.34384765625,1.353515625,1.353515625,1.3599609375,1.3470703125,1.34384765625,1.3341796875,1.327734375,1.340625,1.33740234375,1.3341796875,1.33740234375,1.327734375,1.33740234375,1.33095703125,1.340625,1.31806640625,1.34384765625,1.327734375,1.3212890625,1.31806640625,1.31162109375,1.327734375,1.31806640625,1.31806640625,1.3341796875,1.32451171875,1.3212890625,1.32451171875,1.31806640625,1.33095703125,1.3212890625,1.327734375,1.32451171875,1.32451171875,1.3212890625,1.31484375,1.3212890625,1.3212890625,1.327734375,1.32451171875,1.32451171875,1.31162109375,1.3212890625,1.3212890625,1.327734375,1.33095703125,1.33095703125,1.3212890625,1.3341796875,1.3470703125,1.353515625,1.353515625,1.3728515625,1.39541015625,1.38896484375,1.38896484375,1.39541015625,1.37607421875,1.37607421875,1.3599609375,1.33740234375,1.340625,1.34384765625,1.35029296875,1.35029296875,1.353515625,1.3470703125,1.36318359375,1.33740234375,1.29228515625,1.36318359375,1.559765625,1.843359375,2.10439453125,2.2107421875,1.869140625,1.58232421875,1.44375,1.44052734375,1.40830078125,1.3921875,1.3728515625,1.38251953125,1.37607421875,1.37607421875,1.3728515625,1.3728515625,1.3728515625,1.38896484375,1.37607421875,1.3857421875,1.38896484375,1.40830078125,1.40185546875,1.41474609375,1.41796875,1.4115234375,1.44052734375,1.44375,1.44375,1.4630859375,1.47275390625,1.5017578125,1.5146484375,1.52431640625,1.533984375,1.53720703125,1.55009765625,1.559765625,1.55654296875,1.546875,1.53076171875,1.51142578125,1.46953125,1.456640625,1.4373046875,1.41474609375,1.40185546875,1.3986328125,1.39541015625,1.3857421875,1.38896484375,1.39541015625,1.38896484375,1.3857421875,1.38251953125,1.379296875,1.37607421875,1.37607421875,1.38251953125,1.36318359375,1.36318359375,1.36640625,1.36318359375,1.353515625,1.3599609375,1.3470703125,1.36640625,1.35029296875,1.340625,1.33740234375,1.33095703125,1.3341796875,1.33740234375,1.33740234375,1.327734375,1.33095703125,1.327734375,1.3212890625,1.33095703125,1.33095703125,1.34384765625,1.327734375,1.327734375,1.31484375,1.33095703125,1.33095703125,1.3212890625,1.3341796875,1.3212890625,1.327734375,1.31806640625,1.3341796875,1.3341796875,1.31806640625,1.3083984375,1.327734375,1.32451171875,1.33095703125,1.3341796875,1.353515625,1.35673828125,1.379296875,1.38896484375,1.40185546875,1.3921875,1.36640625,1.3857421875,1.38251953125,1.3728515625,1.34384765625,1.340625,1.34384765625,1.3212890625,1.31484375,1.32451171875,1.31484375,1.33095703125,1.3083984375,1.3083984375,1.26328125,1.26650390625,1.39541015625,1.61455078125,1.9529296875,2.22685546875,2.1333984375,1.714453125,1.44052734375,1.44052734375,1.405078125,1.36640625,1.35029296875,1.340625,1.327734375,1.3341796875,1.32451171875,1.3341796875,1.3212890625,1.33095703125,1.3470703125,1.35029296875,1.33740234375,1.340625,1.3728515625,1.3599609375,1.38251953125,1.379296875,1.3921875,1.40185546875,1.42119140625,1.43408203125,1.44052734375,1.456640625,1.47275390625,1.48564453125,1.52109375,1.51142578125,1.53720703125,1.53076171875,1.533984375,1.53076171875,1.508203125,1.5017578125,1.48564453125,1.44375,1.42763671875,1.41474609375,1.39541015625,1.38896484375,1.38251953125,1.38251953125,1.3921875,1.38896484375,1.36962890625,1.3921875,1.379296875,1.36962890625,1.37607421875,1.37607421875,1.36962890625,1.36318359375,1.38896484375,1.3599609375,1.35673828125,1.37607421875,1.36640625,1.3599609375,1.36640625,1.3599609375,1.36318359375,1.35673828125,1.3599609375,1.36640625,1.3470703125,1.34384765625,1.3470703125,1.35673828125,1.353515625,1.3470703125,1.353515625,1.340625,1.35029296875,1.3470703125,1.35029296875,1.3341796875,1.32451171875,1.33740234375,1.34384765625,1.3341796875,1.33095703125,1.34384765625,1.34384765625,1.34384765625,1.3341796875,1.33740234375,1.33740234375,1.34384765625,1.340625,1.35029296875,1.3599609375,1.3728515625,1.3599609375,1.36640625,1.38251953125,1.3986328125,1.3857421875,1.40185546875,1.38896484375,1.3728515625,1.379296875,1.35029296875,1.340625,1.3212890625,1.33095703125,1.33095703125,1.327734375,1.3341796875,1.31806640625,1.33740234375,1.3212890625,1.2890625,1.301953125,1.456640625,1.72412109375,1.98837890625,2.20751953125,1.98193359375,1.637109375,1.42763671875,1.4373046875,1.4244140625,1.405078125,1.38896484375,1.38896484375,1.37607421875,1.3728515625,1.379296875,1.3857421875,1.3921875,1.38251953125,1.39541015625,1.38896484375,1.379296875,1.40185546875,1.38896484375,1.41474609375,1.41796875,1.42119140625,1.4244140625,1.43408203125,1.456640625,1.44375,1.4630859375,1.47919921875,1.49853515625,1.51142578125,1.51787109375,1.53076171875,1.53076171875,1.54365234375,1.533984375,1.52431640625,1.50498046875,1.4759765625,1.44697265625,1.42763671875,1.38251953125,1.3728515625,1.3470703125,1.3470703125,1.35673828125,1.33740234375,1.3341796875,1.33740234375,1.3470703125,1.3470703125,1.340625,1.33095703125,1.3470703125,1.33740234375,1.34384765625,1.33740234375,1.3470703125,1.353515625,1.3470703125,1.3599609375,1.35029296875,1.34384765625,1.353515625,1.340625,1.3599609375,1.3470703125,1.3470703125,1.340625,1.34384765625,1.33740234375,1.3470703125,1.327734375,1.34384765625,1.32451171875,1.33095703125,1.3212890625,1.327734375,1.327734375,1.31484375,1.34384765625,1.327734375,1.3341796875,1.327734375,1.33095703125,1.3341796875,1.3341796875,1.34384765625,1.33740234375,1.32451171875,1.33095703125,1.3341796875,1.3341796875,1.3470703125,1.353515625,1.35029296875,1.36640625,1.36318359375,1.38251953125,1.3857421875,1.37607421875,1.37607421875,1.37607421875,1.37607421875,1.3728515625,1.3470703125,1.327734375,1.327734375,1.33095703125,1.32451171875,1.3083984375,1.31806640625,1.31162109375,1.31484375,1.3083984375,1.26328125,1.31484375,1.50498046875,1.7853515625,2.0560546875,2.152734375,1.83369140625,1.546875,1.42119140625,1.41796875,1.38896484375,1.3728515625,1.35673828125,1.35029296875,1.3728515625,1.36962890625,1.3599609375,1.3599609375,1.3728515625,1.379296875,1.37607421875,1.38896484375,1.38896484375,1.3921875,1.39541015625,1.40185546875,1.42119140625,1.41796875,1.41796875,1.44375,1.44052734375,1.4630859375,1.4630859375,1.49208984375,1.4953125,1.5146484375,1.51142578125,1.533984375,1.546875,1.5533203125,1.54365234375,1.533984375,1.52431640625,1.50498046875,1.4759765625,1.44375,1.41796875,1.4115234375,1.3921875,1.39541015625,1.40185546875,1.379296875,1.39541015625,1.38896484375,1.3921875,1.3921875,1.39541015625,1.3857421875,1.3857421875,1.379296875,1.379296875,1.3857421875,1.3921875,1.38896484375,1.36962890625,1.3599609375,1.37607421875,1.36962890625,1.36640625,1.36640625,1.3599609375,1.36640625,1.35673828125,1.353515625,1.35029296875,1.35673828125,1.3470703125,1.35673828125,1.3599609375,1.35029296875,1.35673828125,1.3599609375,1.3470703125,1.33740234375,1.340625,1.32451171875,1.32451171875,1.32451171875,1.3212890625,1.32451171875,1.33095703125,1.3212890625,1.3341796875,1.3212890625,1.327734375,1.32451171875,1.31806640625,1.33095703125,1.340625,1.33740234375,1.3470703125,1.35673828125,1.36318359375,1.38896484375,1.36962890625,1.36318359375,1.36640625,1.36640625,1.36640625,1.33740234375,1.3341796875,1.327734375,1.3212890625,1.3212890625,1.29873046875,1.3212890625,1.31484375,1.31484375,1.30517578125,1.276171875,1.30517578125,1.482421875,1.7337890625,2.00771484375,2.16884765625,1.89814453125,1.5919921875,1.42119140625,1.41796875,1.405078125,1.3728515625,1.35673828125,1.353515625,1.36318359375,1.35673828125,1.353515625,1.36318359375,1.36962890625,1.35029296875,1.37607421875,1.37607421875,1.379296875,1.36962890625,1.3857421875,1.3921875,1.3986328125,1.40830078125,1.41796875,1.4244140625,1.42763671875,1.4501953125,1.4630859375,1.4630859375,1.49208984375,1.4953125,1.50498046875,1.508203125,1.53076171875,1.53076171875,1.52109375,1.51142578125,1.5017578125,1.482421875,1.4501953125,1.4373046875,1.4115234375,1.3986328125,1.37607421875,1.37607421875,1.379296875,1.3728515625,1.36640625,1.3728515625,1.36640625,1.36640625,1.37607421875,1.36318359375,1.35673828125,1.35673828125,1.35029296875,1.340625,1.353515625,1.35029296875,1.36318359375,1.35029296875,1.3470703125,1.353515625,1.353515625,1.34384765625,1.3470703125,1.35029296875,1.33740234375,1.340625,1.35029296875,1.340625,1.33740234375,1.340625,1.33740234375,1.34384765625,1.34384765625,1.33740234375,1.34384765625,1.33095703125,1.340625,1.33740234375,1.340625,1.33095703125,1.3470703125,1.3470703125,1.33095703125,1.33740234375,1.340625,1.3470703125,1.35029296875,1.340625,1.340625,1.35673828125,1.35029296875,1.35673828125,1.3599609375,1.36318359375,1.36962890625,1.3857421875,1.40185546875,1.38896484375,1.40185546875,1.39541015625,1.38251953125,1.3857421875,1.353515625,1.3470703125,1.340625,1.33095703125,1.32451171875,1.34384765625,1.32451171875,1.3341796875,1.32451171875,1.31484375,1.2826171875,1.32451171875,1.52431640625,1.7982421875,2.07216796875,2.204296875,1.8755859375,1.57587890625,1.4373046875,1.4244140625,1.3857421875,1.3857421875,1.3599609375,1.353515625,1.35673828125,1.353515625,1.3599609375,1.3599609375,1.36318359375,1.36962890625,1.379296875,1.3728515625,1.38251953125,1.3921875,1.3921875,1.39541015625,1.405078125,1.3986328125,1.40830078125,1.43408203125,1.44052734375,1.456640625,1.456640625,1.4759765625,1.49208984375,1.49853515625,1.51142578125,1.52109375,1.5404296875,1.533984375,1.53076171875,1.5146484375,1.5017578125,1.48564453125,1.456640625,1.4244140625,1.41796875,1.39541015625,1.3857421875,1.3728515625,1.36318359375,1.36640625,1.36962890625,1.3599609375,1.36640625,1.3599609375,1.3599609375,1.3470703125,1.3728515625,1.35029296875,1.35673828125,1.35029296875,1.3599609375,1.3599609375,1.353515625,1.35673828125,1.353515625,1.33740234375,1.35029296875,1.353515625,1.33740234375,1.3470703125,1.35029296875,1.353515625,1.3470703125,1.3341796875,1.34384765625,1.33740234375,1.340625,1.353515625,1.33095703125,1.34384765625,1.353515625,1.35029296875,1.35029296875,1.34384765625,1.3470703125,1.34384765625,1.34384765625,1.3470703125,1.340625,1.353515625,1.34384765625,1.33740234375,1.3470703125,1.34384765625,1.340625,1.33740234375,1.33095703125,1.3341796875,1.353515625,1.35029296875,1.3599609375,1.36962890625,1.3921875,1.37607421875,1.3986328125,1.3857421875,1.39541015625,1.39541015625,1.3857421875,1.3728515625,1.35029296875,1.340625,1.3341796875,1.33095703125,1.3212890625,1.32451171875,1.32451171875,1.31484375,1.31484375,1.3083984375,1.27294921875,1.28583984375,1.4501953125,1.740234375,2.0560546875,2.24296875,1.99482421875,1.6306640625,1.41474609375,1.4244140625,1.41474609375,1.3921875,1.36318359375,1.3599609375,1.353515625,1.36640625,1.35673828125,1.38251953125,1.3728515625,1.36962890625,1.37607421875,1.3857421875,1.37607421875,1.38251953125,1.39541015625,1.405078125,1.430859375,1.4373046875,1.42119140625,1.42763671875,1.45341796875,1.45341796875,1.4630859375,1.48564453125,1.48564453125,1.5017578125,1.508203125,1.5275390625,1.53076171875,1.533984375,1.53720703125,1.52109375,1.52109375,1.49208984375,1.4501953125,1.44375,1.42763671875,1.3857421875,1.36962890625,1.3599609375,1.36640625,1.35673828125,1.353515625,1.36318359375,1.3599609375,1.36640625,1.36318359375,1.353515625,1.3599609375,1.3470703125,1.3599609375,1.35673828125,1.353515625,1.353515625,1.340625,1.3470703125,1.35673828125,1.33740234375,1.340625,1.3470703125,1.340625,1.3341796875,1.35029296875,1.34384765625,1.340625,1.35673828125,1.36640625,1.34384765625,1.353515625,1.3470703125,1.3341796875,1.340625,1.3212890625,1.33095703125,1.33740234375,1.3341796875,1.33740234375,1.33740234375,1.33740234375,1.340625,1.327734375,1.3212890625,1.3212890625,1.3212890625,1.31806640625,1.33095703125,1.327734375,1.340625,1.35673828125,1.353515625,1.379296875,1.3921875,1.36640625,1.36640625,1.36318359375,1.36318359375,1.379296875,1.34384765625,1.33095703125,1.3083984375,1.32451171875,1.31162109375,1.31484375,1.3083984375,1.29873046875,1.30517578125,1.31484375,1.27939453125,1.276171875,1.38896484375,1.6177734375,1.9078125,2.14951171875,2.0560546875,1.67578125,1.4115234375,1.405078125,1.3986328125,1.38251953125,1.379296875,1.36640625,1.35673828125,1.353515625,1.35673828125,1.36962890625,1.36640625,1.36318359375,1.36640625,1.3728515625,1.3857421875,1.38896484375,1.3857421875,1.3921875,1.41474609375,1.40830078125,1.41796875,1.4244140625,1.4373046875,1.430859375,1.4630859375,1.46953125,1.48564453125,1.49208984375,1.5017578125,1.533984375,1.533984375,1.54365234375,1.53720703125,1.5275390625,1.5017578125,1.482421875,1.456640625,1.44375,1.4115234375,1.39541015625,1.36962890625,1.3728515625,1.3728515625,1.35673828125,1.36640625,1.36318359375,1.36640625,1.37607421875,1.36640625,1.3599609375,1.36640625,1.36640625,1.3599609375,1.36962890625,1.36640625,1.3599609375,1.353515625,1.35673828125,1.3599609375,1.3857421875,1.34384765625,1.353515625,1.36318359375,1.35673828125,1.34384765625,1.36318359375,1.3470703125,1.36640625,1.3599609375,1.36318359375,1.36962890625,1.36640625,1.35673828125,1.36318359375,1.3599609375,1.36962890625,1.37607421875,1.36962890625,1.36962890625,1.38896484375,1.36640625,1.38896484375,1.3857421875,1.37607421875,1.3921875,1.36962890625,1.39541015625,1.39541015625,1.39541015625,1.3986328125,1.405078125,1.4373046875,1.42763671875,1.44697265625,1.456640625,1.48564453125,1.4888671875,1.47919921875
1.16337890625,1.16337890625,1.173046875,1.1794921875,1.16337890625,1.15693359375,1.1279296875,1.2375,1.4501953125,1.78212890625,2.02705078125,1.9916015625,1.60166015625,1.31484375,1.30517578125,1.29228515625,1.2568359375,1.25361328125,1.24716796875,1.25361328125,1.2439453125,1.2439453125,1.250390625,1.25361328125,1.2697265625,1.27939453125,1.27294921875,1.27939453125,1.29228515625,1.2890625,1.3212890625,1.31806640625,1.31806640625,1.32451171875,1.3470703125,1.35673828125,1.36640625,1.379296875,1.3857421875,1.41796875,1.41796875,1.44052734375,1.44697265625,1.45986328125,1.4630859375,1.482421875,1.46953125,1.46630859375,1.44697265625,1.41796875,1.40185546875,1.3857421875,1.36640625,1.35029296875,1.3212890625,1.33095703125,1.327734375,1.3341796875,1.3341796875,1.33095703125,1.340625,1.33095703125,1.33740234375,1.327734375,1.327734375,1.327734375,1.33095703125,1.33740234375,1.33095703125,1.3341796875,1.3341796875,1.33740234375,1.33740234375,1.32451171875,1.34384765625,1.33095703125,1.33740234375,1.33740234375,1.33740234375,1.3341796875,1.3341796875,1.34384765625,1.34384765625,1.33095703125,1.34384765625,1.340625,1.35673828125,1.353515625,1.35673828125,1.35673828125,1.35673828125,1.3599609375,1.3599609375,1.36318359375,1.35673828125,1.36640625,1.35673828125,1.379296875,1.37607421875,1.379296875,1.38251953125,1.379296875,1.36962890625,1.37607421875,1.36962890625,1.3728515625,1.37607421875,1.38251953125,1.39541015625,1.3986328125,1.39541015625,1.40830078125,1.4373046875,1.4244140625,1.4115234375,1.41796875,1.41796875,1.41796875,1.405078125,1.3728515625,1.36962890625,1.35029296875,1.35673828125,1.3599609375,1.35673828125,1.353515625,1.3599609375,1.35029296875,1.31806640625,1.3083984375,1.3921875,1.62099609375,1.9400390625,2.20751953125,2.178515625,1.77890625,1.49208984375,1.45341796875,1.44052734375,1.41474609375,1.3857421875,1.38896484375,1.3921875,1.35673828125,1.379296875,1.3728515625,1.3728515625,1.37607421875,1.36962890625,1.38251953125,1.3857421875,1.38896484375,1.39541015625,1.3986328125,1.3986328125,1.40830078125,1.4244140625,1.430859375,1.430859375,1.4501953125,1.45986328125,1.46953125,1.47919921875,1.50498046875,1.51142578125,1.52109375,1.52431640625,1.533984375,1.5275390625,1.53720703125,1.52431640625,1.50498046875,1.4888671875,1.4630859375,1.42119140625,1.4115234375,1.3921875,1.38896484375,1.379296875,1.38896484375,1.379296875,1.3728515625,1.37607421875,1.36640625,1.36640625,1.36640625,1.35673828125,1.36962890625,1.36962890625,1.35673828125,1.3599609375,1.3599609375,1.34384765625,1.35029296875,1.35029296875,1.34384765625,1.3470703125,1.34384765625,1.3470703125,1.340625,1.33740234375,1.33740234375,1.34384765625,1.35029296875,1.3470703125,1.35673828125,1.353515625,1.35029296875,1.35029296875,1.35029296875,1.35029296875,1.35029296875,1.3470703125,1.3470703125,1.35029296875,1.34384765625,1.353515625,1.34384765625,1.353515625,1.34384765625,1.340625,1.3470703125,1.3470703125,1.3470703125,1.34384765625,1.35673828125,1.34384765625,1.35673828125,1.34384765625,1.3470703125,1.35029296875,1.36318359375,1.35673828125,1.379296875,1.38896484375,1.41474609375,1.3986328125,1.3857421875,1.38251953125,1.379296875,1.36962890625,1.34384765625,1.33095703125,1.33095703125,1.33095703125,1.3212890625,1.3212890625,1.3083984375,1.31162109375,1.31484375,1.29873046875,1.26005859375,1.29228515625,1.46953125,1.77568359375,2.07216796875,2.24619140625,1.93037109375,1.56943359375,1.40830078125,1.4115234375,1.3921875,1.36318359375,1.3470703125,1.35673828125,1.340625,1.3470703125,1.353515625,1.34384765625,1.36318359375,1.34384765625,1.340625,1.3599609375,1.36318359375,1.37607421875,1.3728515625,1.3921875,1.405078125,1.405078125,1.405078125,1.42119140625,1.43408203125,1.44375,1.45341796875,1.4630859375,1.47275390625,1.4888671875,1.5017578125,1.51787109375,1.52109375,1.49853515625,1.51787109375,1.5017578125,1.49208984375,1.46630859375,1.45986328125,1.42119140625,1.40185546875,1.3728515625,1.36962890625,1.35673828125,1.35673828125,1.3599609375,1.36962890625,1.36318359375,1.3599609375,1.3470703125,1.35029296875,1.35029296875,1.3470703125,1.35029296875,1.3599609375,1.340625,1.3599609375,1.34384765625,1.36318359375,1.353515625,1.3470703125,1.340625,1.340625,1.3470703125,1.340625,1.35029296875,1.340625,1.3470703125,1.33740234375,1.3341796875,1.33095703125,1.34384765625,1.34384765625,1.33740234375,1.340625,1.3470703125,1.3470703125,1.33095703125,1.340625,1.3341796875,1.340625,1.3341796875,1.35029296875,1.34384765625,1.33095703125,1.3470703125,1.3341796875,1.33740234375,1.3341796875,1.34384765625,1.33740234375,1.353515625,1.3341796875,1.3470703125,1.35673828125,1.3728515625,1.37607421875,1.379296875,1.405078125,1.3921875,1.40185546875,1.40830078125,1.405078125,1.3986328125,1.38251953125,1.353515625,1.3470703125,1.340625,1.34384765625,1.33740234375,1.35029296875,1.33095703125,1.3341796875,1.340625,1.33095703125,1.29228515625,1.34384765625,1.5662109375,1.85625,2.13984375,2.1849609375,1.791796875,1.5017578125,1.4244140625,1.40830078125,1.39541015625,1.379296875,1.379296875,1.3857421875,1.36962890625,1.37607421875,1.36640625,1.379296875,1.36640625,1.38896484375,1.38896484375,1.3857421875,1.40830078125,1.3986328125,1.41474609375,1.40830078125,1.4115234375,1.42763671875,1.42763671875,1.44052734375,1.43408203125,1.4759765625,1.47275390625,1.47919921875,1.5017578125,1.52109375,1.52431640625,1.53076171875,1.533984375,1.53076171875,1.533984375,1.5275390625,1.4953125,1.47275390625,1.4501953125,1.42763671875,1.40185546875,1.3921875,1.36962890625,1.36640625,1.35673828125,1.35029296875,1.353515625,1.3341796875,1.34384765625,1.35029296875,1.3599609375,1.340625,1.35029296875,1.34384765625,1.3470703125,1.3470703125,1.3470703125,1.33740234375,1.3341796875,1.33740234375,1.3470703125,1.35029296875,1.327734375,1.3341796875,1.327734375,1.3341796875,1.340625,1.3341796875,1.33740234375,1.33095703125,1.33740234375,1.33740234375,1.3341796875,1.34384765625,1.327734375,1.33095703125,1.33740234375,1.327734375,1.340625,1.33740234375,1.34384765625,1.3341796875,1.33095703125,1.33740234375,1.33740234375,1.33095703125,1.33095703125,1.33095703125,1.3341796875,1.340625,1.34384765625,1.353515625,1.340625,1.340625,1.36318359375,1.36962890625,1.36962890625,1.3857421875,1.405078125,1.40185546875,1.3857421875,1.40185546875,1.3921875,1.3857421875,1.36318359375,1.35029296875,1.3470703125,1.340625,1.33740234375,1.327734375,1.33740234375,1.327734375,1.3212890625,1.32451171875,1.30517578125,1.28583984375,1.40185546875,1.6177734375,1.9078125,2.152734375,2.1076171875,1.72412109375,1.45986328125,1.44375,1.42763671875,1.39541015625,1.3857421875,1.3728515625,1.379296875,1.3728515625,1.36962890625,1.37607421875,1.37607421875,1.38896484375,1.38896484375,1.3921875,1.39541015625,1.4115234375,1.40830078125,1.40830078125,1.4244140625,1.4244140625,1.42763671875,1.4373046875,1.44697265625,1.45341796875,1.456640625,1.47275390625,1.4888671875,1.49853515625,1.52109375,1.52431640625,1.53720703125,1.5275390625,1.533984375,1.52431640625,1.51787109375,1.482421875,1.47919921875,1.44375,1.430859375,1.3986328125,1.3921875,1.3921875,1.36640625,1.36318359375,1.3599609375,1.36640625,1.3599609375,1.36962890625,1.36640625,1.35029296875,1.35029296875,1.3599609375,1.34384765625,1.33740234375,1.33740234375,1.34384765625,1.340625,1.340625,1.353515625,1.33740234375,1.3341796875,1.33095703125,1.33740234375,1.34384765625,1.327734375,1.33740234375,1.3341796875,1.340625,1.327734375,1.327734375,1.327734375,1.340625,1.33095703125,1.3212890625,1.33740234375,1.340625,1.33740234375,1.3341796875,1.327734375,1.32451171875,1.33740234375,1.3341796875,1.3212890625,1.33095703125,1.33740234375,1.33740234375,1.32451171875,1.340625,1.3341796875,1.33740234375,1.33095703125,1.340625,1.340625,1.35673828125,1.340625,1.3470703125,1.35029296875,1.3599609375,1.3857421875,1.3921875,1.38251953125,1.3857421875,1.36318359375,1.379296875,1.34384765625,1.327734375,1.31484375,1.3212890625,1.3212890625,1.3212890625,1.32451171875,1.3212890625,1.31162109375,1.31484375,1.27294921875,1.2697265625,1.40830078125,1.62099609375,1.93681640625,2.1849609375,2.07216796875,1.6951171875,1.44697265625,1.430859375,1.41474609375,1.3921875,1.36962890625,1.36640625,1.36962890625,1.36640625,1.3599609375,1.3728515625,1.36962890625,1.38251953125,1.37607421875,1.38251953125,1.38251953125,1.38251953125,1.3986328125,1.41796875,1.40830078125,1.41474609375,1.43408203125,1.4373046875,1.4501953125,1.456640625,1.46953125,1.4953125,1.50498046875,1.51787109375,1.508203125,1.533984375,1.533984375,1.5404296875,1.53076171875,1.5404296875,1.52109375,1.49853515625,1.46953125,1.4501953125,1.41796875,1.40185546875,1.3986328125,1.38251953125,1.38251953125,1.38251953125,1.3728515625,1.37607421875,1.379296875,1.37607421875,1.379296875,1.37607421875,1.38251953125,1.38251953125,1.38251953125,1.37607421875,1.35673828125,1.36640625,1.379296875,1.35673828125,1.36318359375,1.36640625,1.36640625,1.3599609375,1.3599609375,1.3728515625,1.35673828125,1.34384765625,1.35029296875,1.353515625,1.34384765625,1.353515625,1.3470703125,1.353515625,1.353515625,1.353515625,1.36640625,1.3599609375,1.34384765625,1.36640625,1.35029296875,1.35029296875,1.353515625,1.36318359375,1.33740234375,1.3470703125,1.3470703125,1.3470703125,1.353515625,1.3470703125,1.34384765625,1.34384765625,1.340625,1.33095703125,1.35029296875,1.35029296875,1.3470703125,1.3470703125,1.353515625,1.36640625,1.36318359375,1.38251953125,1.38896484375,1.379296875,1.3921875,1.38896484375,1.3728515625,1.3599609375,1.3212890625,1.31806640625,1.31806640625,1.31806640625,1.327734375,1.31806640625,1.31484375,1.31162109375,1.301953125,1.29873046875,1.25361328125,1.33740234375,1.54365234375,1.8626953125,2.12373046875,2.178515625,1.78857421875,1.5017578125,1.4244140625,1.41474609375,1.3728515625,1.3728515625,1.35029296875,1.3470703125,1.3470703125,1.34384765625,1.340625,1.35673828125,1.36318359375,1.3599609375,1.3599609375,1.36962890625,1.3857421875,1.38896484375,1.39541015625,1.39541015625,1.405078125,1.39541015625,1.41474609375,1.430859375,1.44697265625,1.4501953125,1.4630859375,1.47919921875,1.4888671875,1.482421875,1.49853515625,1.51787109375,1.5275390625,1.52431640625,1.5275390625,1.52109375,1.482421875,1.4630859375,1.44375,1.41796875,1.3986328125,1.379296875,1.3599609375,1.38251953125,1.36640625,1.35673828125,1.35673828125,1.36318359375,1.340625,1.35029296875,1.3599609375,1.35029296875,1.35673828125,1.35029296875,1.35029296875,1.34384765625,1.340625,1.35029296875,1.3470703125,1.34384765625,1.33095703125,1.340625,1.353515625,1.33095703125,1.33095703125,1.3470703125,1.3341796875,1.33740234375,1.33740234375,1.340625,1.3341796875,1.33740234375,1.33740234375,1.3470703125,1.33740234375,1.340625,1.3341796875,1.340625,1.33740234375,1.3341796875,1.3470703125,1.3470703125,1.35029296875,1.340625,1.3470703125,1.353515625,1.34384765625,1.3470703125,1.33740234375,1.35029296875,1.33740234375,1.36318359375,1.353515625,1.3470703125,1.35673828125,1.36318359375,1.36640625,1.37607421875,1.38896484375,1.42119140625,1.40185546875,1.40830078125,1.3986328125,1.40830078125,1.3986328125,1.3857421875,1.3599609375,1.35029296875,1.34384765625,1.33740234375,1.3599609375,1.35029296875,1.35029296875,1.3470703125,1.3341796875,1.29873046875,1.3212890625,1.49208984375,1.766015625,2.05927734375,2.230078125,1.972265625,1.6048828125,1.430859375,1.44375,1.4373046875,1.405078125,1.38251953125,1.38896484375,1.38251953125,1.3728515625,1.3986328125,1.37607421875,1.38251953125,1.40185546875,1.3986328125,1.3921875,1.40830078125,1.42119140625,1.4244140625,1.43408203125,1.41796875,1.4373046875,1.4501953125,1.4630859375,1.456640625,1.456640625,1.482421875,1.49208984375,1.49853515625,1.50498046875,1.52431640625,1.5275390625,1.5275390625,1.53076171875,1.5404296875,1.53720703125,1.52109375,1.47919921875,1.456640625,1.4244140625,1.40185546875,1.36962890625,1.379296875,1.35029296875,1.3341796875,1.35029296875,1.34384765625,1.33740234375,1.353515625,1.32451171875,1.32451171875,1.340625,1.33740234375,1.33740234375,1.35029296875,1.3341796875,1.340625,1.340625,1.33095703125,1.33095703125,1.32451171875,1.340625,1.31806640625,1.32451171875,1.327734375,1.33740234375,1.33095703125,1.32451171875,1.31806640625,1.32451171875,1.32451171875,1.340625,1.33740234375,1.327734375,1.3341796875,1.32451171875,1.3341796875,1.31806640625,1.32451171875,1.31162109375,1.31162109375,1.3083984375,1.31162109375,1.3212890625,1.3212890625,1.3212890625,1.31484375,1.3083984375,1.3212890625,1.32451171875,1.327734375,1.31484375,1.32451171875,1.340625,1.3470703125,1.353515625,1.353515625,1.36962890625,1.405078125,1.3728515625,1.38896484375,1.37607421875,1.3728515625,1.36640625,1.3599609375,1.3212890625,1.31806640625,1.3341796875,1.31484375,1.327734375,1.3341796875,1.31484375,1.3212890625,1.33095703125,1.27939453125,1.29873046875,1.42119140625,1.67255859375,1.946484375,2.16240234375,1.9916015625,1.63388671875,1.3921875,1.4115234375,1.40185546875,1.379296875,1.36962890625,1.36640625,1.3599609375,1.36640625,1.36640625,1.37607421875,1.379296875,1.38251953125,1.3857421875,1.38251953125,1.40185546875,1.40185546875,1.40185546875,1.42119140625,1.4244140625,1.44052734375,1.43408203125,1.4373046875,1.45341796875,1.45986328125,1.46630859375,1.4953125,1.48564453125,1.51787109375,1.5146484375,1.53076171875,1.5275390625,1.533984375,1.53720703125,1.5404296875,1.52109375,1.5017578125,1.46953125,1.4501953125,1.42763671875,1.405078125,1.405078125,1.379296875,1.3857421875,1.38251953125,1.36640625,1.38251953125,1.38251953125,1.3857421875,1.3728515625,1.38251953125,1.379296875,1.38251953125,1.3857421875,1.3921875,1.379296875,1.3728515625,1.37607421875,1.37607421875,1.36962890625,1.3599609375,1.36318359375,1.3599609375,1.353515625,1.36962890625,1.35673828125,1.3470703125,1.3470703125,1.3470703125,1.340625,1.353515625,1.34384765625,1.33740234375,1.3470703125,1.3470703125,1.34384765625,1.3470703125,1.34384765625,1.3470703125,1.340625,1.33740234375,1.33095703125,1.3470703125,1.34384765625,1.34384765625,1.33740234375,1.340625,1.34384765625,1.340625,1.34384765625,1.33740234375,1.3341796875,1.33095703125,1.34384765625,1.34384765625,1.35673828125,1.36318359375,1.379296875,1.3921875,1.37607421875,1.36640625,1.379296875,1.36640625,1.353515625,1.340625,1.33095703125,1.3212890625,1.327734375,1.33095703125,1.3212890625,1.32451171875,1.32451171875,1.327734375,1.3341796875,1.26650390625,1.32451171875,1.50498046875,1.766015625,2.023828125,2.16240234375,1.87236328125,1.58232421875,1.42763671875,1.430859375,1.39541015625,1.37607421875,1.38251953125,1.35673828125,1.36962890625,1.3470703125,1.35029296875,1.36640625,1.36318359375,1.35673828125,1.36640625,1.36962890625,1.3728515625,1.379296875,1.3921875,1.3921875,1.3921875,1.41474609375,1.4244140625,1.4244140625,1.43408203125,1.44052734375,1.45986328125,1.46630859375,1.47919921875,1.4953125,1.50498046875,1.52431640625,1.5146484375,1.51787109375,1.5275390625,1.5146484375,1.49853515625,1.47275390625,1.45341796875,1.41796875,1.4115234375,1.3921875,1.37607421875,1.3728515625,1.3728515625,1.35673828125,1.35029296875,1.35673828125,1.36318359375,1.35673828125,1.36318359375,1.36318359375,1.34384765625,1.3599609375,1.3470703125,1.36318359375,1.36318359375,1.35029296875,1.36318359375,1.36318359375,1.3470703125,1.3470703125,1.3470703125,1.353515625,1.353515625,1.35673828125,1.35673828125,1.353515625,1.35673828125,1.35673828125,1.36318359375,1.35029296875,1.35673828125,1.353515625,1.340625,1.3470703125,1.35029296875,1.353515625,1.353515625,1.36640625,1.3470703125,1.3599609375,1.35673828125,1.35029296875,1.353515625,1.35673828125,1.36318359375,1.3599609375,1.36318359375,1.36318359375,1.3599609375,1.36962890625,1.353515625,1.36640625,1.35673828125,1.3728515625,1.3728515625,1.379296875,1.38896484375,1.39541015625,1.42119140625,1.4244140625,1.41796875,1.42119140625,1.41796875,1.40185546875,1.379296875,1.36962890625,1.3599609375,1.3599609375,1.353515625,1.34384765625,1.353515625,1.35029296875,1.33740234375,1.34384765625,1.29873046875,1.31484375,1.4759765625,1.73701171875,2.0173828125,2.2107421875,1.98515625,1.65322265625,1.430859375,1.42763671875,1.39541015625,1.3728515625,1.353515625,1.3212890625,1.340625,1.32451171875,1.31806640625,1.3212890625,1.3212890625,1.31806640625,1.31806640625,1.327734375,1.327734375,1.31806640625,1.32451171875,1.30517578125,1.327734375,1.32451171875
1.52109375,1.53076171875,1.54365234375,1.546875,1.58232421875,1.57587890625,1.585546875,1.58876953125,1.5662109375,1.559765625,1.55009765625,1.52109375,1.47919921875,1.45341796875,1.44697265625,1.4373046875,1.430859375,1.40185546875,1.4244140625,1.41474609375,1.405078125,1.4115234375,1.41796875,1.38896484375,1.3857421875,1.39541015625,1.379296875,1.36962890625,1.36962890625,1.36640625,1.36640625,1.37607421875,1.3599609375,1.3728515625,1.36318359375,1.36318359375,1.34384765625,1.35029296875,1.35673828125,1.35673828125,1.35673828125,1.35029296875,1.3470703125,1.3470703125,1.34384765625,1.33740234375,1.340625,1.34384765625,1.353515625,1.33740234375,1.33095703125,1.32451171875,1.31806640625,1.33095703125,1.33740234375,1.327734375,1.327734375,1.32451171875,1.33740234375,1.33095703125,1.33095703125,1.3212890625,1.31162109375,1.33095703125,1.34384765625,1.33740234375,1.3599609375,1.35673828125,1.35673828125,1.35673828125,1.3857421875,1.37607421875,1.3728515625,1.3728515625,1.3599609375,1.36962890625,1.33740234375,1.3212890625,1.32451171875,1.3083984375,1.31806640625,1.3212890625,1.3212890625,1.31162109375,1.31484375,1.3083984375,1.26650390625,1.29873046875,1.43408203125,1.69189453125,1.98193359375,2.1849609375,1.972265625,1.61455078125,1.39541015625,1.4115234375,1.405078125,1.3857421875,1.36962890625,1.36318359375,1.353515625,1.35029296875,1.34384765625,1.3599609375,1.36318359375,1.36318359375,1.3728515625,1.379296875,1.38896484375,1.38896484375,1.40185546875,1.4115234375,1.405078125,1.41796875,1.430859375,1.4501953125,1.44052734375,1.4630859375,1.482421875,1.49208984375,1.4888671875,1.51787109375,1.54365234375,1.5404296875,1.5533203125,1.54365234375,1.546875,1.54365234375,1.50498046875,1.482421875,1.46953125,1.43408203125,1.4115234375,1.40830078125,1.37607421875,1.3599609375,1.35673828125,1.3599609375,1.35029296875,1.353515625,1.353515625,1.35029296875,1.34384765625,1.35029296875,1.35673828125,1.3470703125,1.33740234375,1.33095703125,1.33095703125,1.33095703125,1.3341796875,1.33095703125,1.3341796875,1.3341796875,1.3212890625,1.3212890625,1.327734375,1.33740234375,1.3341796875,1.33095703125,1.33740234375,1.35029296875,1.34384765625,1.340625,1.33740234375,1.3341796875,1.34384765625,1.34384765625,1.353515625,1.35029296875,1.34384765625,1.35029296875,1.34384765625,1.340625,1.33740234375,1.35029296875,1.34384765625,1.34384765625,1.3341796875,1.340625,1.340625,1.33740234375,1.34384765625,1.36318359375,1.36318359375,1.36640625,1.3599609375,1.38896484375,1.405078125,1.3857421875,1.379296875,1.37607421875,1.3599609375,1.35029296875,1.33740234375,1.32451171875,1.3212890625,1.31806640625,1.327734375,1.33095703125,1.32451171875,1.327734375,1.33095703125,1.29228515625,1.2955078125,1.37607421875,1.585546875,1.89814453125,2.1462890625,2.0947265625,1.7208984375,1.4501953125,1.42119140625,1.40830078125,1.379296875,1.37607421875,1.36318359375,1.36318359375,1.3470703125,1.36318359375,1.353515625,1.35673828125,1.36640625,1.37607421875,1.37607421875,1.37607421875,1.3921875,1.379296875,1.405078125,1.4115234375,1.4244140625,1.4244140625,1.430859375,1.44052734375,1.4630859375,1.4630859375,1.4953125,1.5017578125,1.4953125,1.51787109375,1.5404296875,1.5404296875,1.5404296875,1.54365234375,1.5404296875,1.52431640625,1.508203125,1.47919921875,1.456640625,1.430859375,1.41474609375,1.38896484375,1.38896484375,1.3921875,1.3857421875,1.3728515625,1.3599609375,1.3921875,1.379296875,1.37607421875,1.3728515625,1.38251953125,1.36962890625,1.37607421875,1.353515625,1.36640625,1.35673828125,1.3599609375,1.353515625,1.353515625,1.35029296875,1.33740234375,1.3470703125,1.33740234375,1.33095703125,1.3470703125,1.33740234375,1.33740234375,1.33095703125,1.32451171875,1.327734375,1.32451171875,1.32451171875,1.340625,1.33740234375,1.3341796875,1.340625,1.340625,1.3341796875,1.33740234375,1.3341796875,1.327734375,1.33740234375,1.340625,1.33740234375,1.327734375,1.3341796875,1.33095703125,1.33095703125,1.33095703125,1.33740234375,1.3470703125,1.36318359375,1.36318359375,1.36318359375,1.379296875,1.38896484375,1.39541015625,1.379296875,1.38896484375,1.3857421875,1.36640625,1.35029296875,1.33740234375,1.3341796875,1.33095703125,1.340625,1.33095703125,1.33095703125,1.31806640625,1.327734375,1.31484375,1.28583984375,1.31162109375,1.482421875,1.7595703125,2.03671875,2.18818359375,1.89814453125,1.60810546875,1.42763671875,1.40830078125,1.38896484375,1.36318359375,1.36640625,1.3470703125,1.34384765625,1.340625,1.340625,1.3599609375,1.34384765625,1.35029296875,1.35673828125,1.353515625,1.36640625,1.36318359375,1.3728515625,1.39541015625,1.40185546875,1.405078125,1.41474609375,1.42763671875,1.430859375,1.45341796875,1.4630859375,1.482421875,1.4888671875,1.50498046875,1.51142578125,1.53720703125,1.533984375,1.53720703125,1.53076171875,1.52109375,1.508203125,1.49208984375,1.45986328125,1.43408203125,1.41796875,1.3986328125,1.38896484375,1.36962890625,1.37607421875,1.3728515625,1.379296875,1.3728515625,1.3728515625,1.36640625,1.36640625,1.36962890625,1.3599609375,1.36318359375,1.35673828125,1.3599609375,1.35673828125,1.36962890625,1.36318359375,1.353515625,1.3599609375,1.3470703125,1.35673828125,1.353515625,1.34384765625,1.35673828125,1.35673828125,1.353515625,1.340625,1.340625,1.33740234375,1.340625,1.340625,1.3470703125,1.3341796875,1.33740234375,1.3341796875,1.340625,1.33740234375,1.33740234375,1.34384765625,1.33095703125,1.32451171875,1.34384765625,1.340625,1.33095703125,1.33095703125,1.340625,1.3341796875,1.327734375,1.340625,1.34384765625,1.35029296875,1.35673828125,1.36318359375,1.379296875,1.3921875,1.3921875,1.38896484375,1.38896484375,1.37607421875,1.3728515625,1.340625,1.33740234375,1.34384765625,1.33095703125,1.327734375,1.3341796875,1.32451171875,1.3212890625,1.3212890625,1.327734375,1.276171875,1.31162109375,1.49208984375,1.77568359375,2.0625,2.230078125,1.93681640625,1.60166015625,1.43408203125,1.4244140625,1.40830078125,1.38896484375,1.37607421875,1.36640625,1.36640625,1.36318359375,1.36640625,1.379296875,1.37607421875,1.3728515625,1.38896484375,1.3857421875,1.379296875,1.38896484375,1.39541015625,1.3986328125,1.4115234375,1.41796875,1.42119140625,1.42763671875,1.44375,1.4501953125,1.46953125,1.48564453125,1.4953125,1.50498046875,1.51787109375,1.52109375,1.53720703125,1.53720703125,1.52431640625,1.5017578125,1.4953125,1.46953125,1.44697265625,1.42119140625,1.3921875,1.37607421875,1.36962890625,1.353515625,1.3470703125,1.34384765625,1.35029296875,1.34384765625,1.3470703125,1.35029296875,1.353515625,1.33740234375,1.340625,1.340625,1.35029296875,1.3341796875,1.33740234375,1.33095703125,1.327734375,1.3341796875,1.327734375,1.3212890625,1.3341796875,1.3212890625,1.3341796875,1.327734375,1.32451171875,1.32451171875,1.3212890625,1.327734375,1.31806640625,1.31484375,1.327734375,1.31162109375,1.3212890625,1.31484375,1.327734375,1.31806640625,1.33740234375,1.31484375,1.3212890625,1.32451171875,1.31806640625,1.33095703125,1.3341796875,1.32451171875,1.33095703125,1.327734375,1.32451171875,1.33740234375,1.32451171875,1.35673828125,1.353515625,1.3599609375,1.35673828125,1.38251953125,1.40830078125,1.40185546875,1.40185546875,1.38896484375,1.3728515625,1.36962890625,1.35673828125,1.33095703125,1.33740234375,1.33095703125,1.33740234375,1.33740234375,1.33740234375,1.33095703125,1.33095703125,1.3212890625,1.2826171875,1.301953125,1.4759765625,1.7466796875,2.06572265625,2.255859375,2.0109375,1.61455078125,1.42763671875,1.44052734375,1.41474609375,1.3857421875,1.38896484375,1.37607421875,1.379296875,1.38896484375,1.379296875,1.3857421875,1.3857421875,1.379296875,1.379296875,1.3986328125,1.38896484375,1.4115234375,1.4115234375,1.43408203125,1.42763671875,1.4501953125,1.4373046875,1.44697265625,1.45986328125,1.47919921875,1.49853515625,1.5146484375,1.51142578125,1.5275390625,1.55009765625,1.546875,1.57265625,1.559765625,1.55654296875,1.55654296875,1.533984375,1.4888671875,1.46630859375,1.45341796875,1.41796875,1.4115234375,1.3921875,1.3728515625,1.38251953125,1.36640625,1.353515625,1.35673828125,1.353515625,1.35029296875,1.3599609375,1.3599609375,1.3599609375,1.3341796875,1.34384765625,1.3470703125,1.3470703125,1.35673828125,1.340625,1.3341796875,1.3470703125,1.3341796875,1.327734375,1.35029296875,1.33740234375,1.3341796875,1.327734375,1.31162109375,1.3212890625,1.31806640625,1.31806640625,1.3212890625,1.31806640625,1.3212890625,1.33095703125,1.31806640625,1.327734375,1.327734375,1.327734375,1.327734375,1.327734375,1.32451171875,1.33095703125,1.31484375,1.31806640625,1.327734375,1.33095703125,1.3470703125,1.3341796875,1.33095703125,1.33095703125,1.34384765625,1.340625,1.36318359375,1.36962890625,1.3857421875,1.36962890625,1.3728515625,1.36318359375,1.3599609375,1.35029296875,1.33095703125,1.3341796875,1.327734375,1.31162109375,1.31806640625,1.3083984375,1.31484375,1.32451171875,1.31806640625,1.29873046875,1.2697265625,1.3083984375,1.508203125,1.8046875,2.0818359375,2.16240234375,1.80791015625,1.49853515625,1.4244140625,1.40185546875,1.39541015625,1.3728515625,1.37607421875,1.36318359375,1.35673828125,1.34384765625,1.36640625,1.36318359375,1.37607421875,1.37607421875,1.3857421875,1.3857421875,1.39541015625,1.40185546875,1.3986328125,1.405078125,1.42763671875,1.43408203125,1.430859375,1.44697265625,1.4630859375,1.482421875,1.47275390625,1.5017578125,1.508203125,1.5404296875,1.546875,1.54365234375,1.546875,1.559765625,1.52431640625,1.52431640625,1.5017578125,1.46630859375,1.4630859375,1.42763671875,1.38896484375,1.3728515625,1.3728515625,1.36640625,1.3599609375,1.3728515625,1.3470703125,1.353515625,1.35029296875,1.35029296875,1.35673828125,1.35673828125,1.353515625,1.3599609375,1.353515625,1.3470703125,1.3470703125,1.3341796875,1.34384765625,1.3470703125,1.33095703125,1.340625,1.33095703125,1.327734375,1.327734375,1.3341796875,1.33740234375,1.3212890625,1.33740234375,1.31806640625,1.3212890625,1.327734375,1.327734375,1.3341796875,1.32451171875,1.327734375,1.327734375,1.33740234375,1.33095703125,1.340625,1.33740234375,1.33740234375,1.33740234375,1.33095703125,1.340625,1.327734375,1.33740234375,1.327734375,1.34384765625,1.340625,1.340625,1.34384765625,1.353515625,1.36318359375,1.36962890625,1.405078125,1.38251953125,1.37607421875,1.38251953125,1.37607421875,1.36640625,1.35029296875,1.340625,1.34384765625,1.3470703125,1.35029296875,1.33740234375,1.34384765625,1.3341796875,1.3341796875,1.3083984375,1.2826171875,1.327734375,1.533984375,1.82080078125,2.09150390625,2.1849609375,1.85625,1.5791015625,1.4373046875,1.43408203125,1.40185546875,1.379296875,1.379296875,1.36318359375,1.37607421875,1.36962890625,1.379296875,1.379296875,1.35673828125,1.3728515625,1.37607421875,1.3857421875,1.38251953125,1.38896484375,1.40185546875,1.40830078125,1.405078125,1.42119140625,1.42763671875,1.4373046875,1.430859375,1.4501953125,1.46953125,1.49208984375,1.4953125,1.5017578125,1.533984375,1.52109375,1.53076171875,1.55009765625,1.53720703125,1.52431640625,1.50498046875,1.4759765625,1.45986328125,1.42763671875,1.405078125,1.3857421875,1.379296875,1.3728515625,1.379296875,1.36962890625,1.36640625,1.3728515625,1.36640625,1.3728515625,1.36962890625,1.3728515625,1.3728515625,1.3599609375,1.36962890625,1.35673828125,1.35673828125,1.35673828125,1.3599609375,1.3470703125,1.3599609375,1.35673828125,1.34384765625,1.353515625,1.3470703125,1.33740234375,1.340625,1.340625,1.3470703125,1.3341796875,1.3470703125,1.34384765625,1.353515625,1.33740234375,1.35029296875,1.33740234375,1.353515625,1.3470703125,1.33740234375,1.340625,1.34384765625,1.34384765625,1.353515625,1.33740234375,1.33095703125,1.340625,1.340625,1.33095703125,1.3341796875,1.327734375,1.33740234375,1.3470703125,1.340625,1.35673828125,1.36318359375,1.38896484375,1.38896484375,1.3728515625,1.38896484375,1.36318359375,1.36318359375,1.34384765625,1.327734375,1.31484375,1.30517578125,1.30517578125,1.31484375,1.31162109375,1.30517578125,1.3083984375,1.31806640625,1.27294921875,1.27939453125,1.40830078125,1.64033203125,1.93681640625,2.17529296875,2.04638671875,1.68544921875,1.41474609375,1.41474609375,1.39541015625,1.35673828125,1.3599609375,1.35029296875,1.3470703125,1.3341796875,1.34384765625,1.35673828125,1.35029296875,1.36640625,1.36640625,1.3728515625,1.37607421875,1.37607421875,1.3857421875,1.38896484375,1.405078125,1.4115234375,1.4115234375,1.43408203125,1.4373046875,1.44697265625,1.45986328125,1.47919921875,1.5017578125,1.50498046875,1.52109375,1.53720703125,1.53076171875,1.546875,1.5404296875,1.53720703125,1.508203125,1.49208984375,1.45986328125,1.43408203125,1.40830078125,1.40185546875,1.3921875,1.38251953125,1.36318359375,1.3599609375,1.35673828125,1.36640625,1.3599609375,1.35673828125,1.3599609375,1.35673828125,1.35673828125,1.35673828125,1.353515625,1.36318359375,1.3599609375,1.3470703125,1.35673828125,1.353515625,1.3341796875,1.340625,1.34384765625,1.340625,1.34384765625,1.35029296875,1.327734375,1.3470703125,1.3470703125,1.3470703125,1.33740234375,1.35029296875,1.34384765625,1.340625,1.33740234375,1.34384765625,1.33740234375,1.34384765625,1.340625,1.33740234375,1.35029296875,1.34384765625,1.33740234375,1.33095703125,1.340625,1.340625,1.33740234375,1.340625,1.340625,1.35029296875,1.340625,1.3341796875,1.34384765625,1.35673828125,1.36318359375,1.36318359375,1.36640625,1.3986328125,1.39541015625,1.3921875,1.3921875,1.3921875,1.3857421875,1.36962890625,1.35673828125,1.32451171875,1.34384765625,1.33740234375,1.33095703125,1.340625,1.3341796875,1.3341796875,1.34384765625,1.3083984375,1.27939453125,1.353515625,1.57265625,1.8884765625,2.15595703125,2.2107421875,1.8240234375,1.52109375,1.44375,1.43408203125,1.40185546875,1.37607421875,1.3728515625,1.35029296875,1.35673828125,1.36318359375,1.36318359375,1.35673828125,1.35029296875,1.3599609375,1.3728515625,1.37607421875,1.3857421875,1.38251953125,1.39541015625,1.3986328125,1.4115234375,1.41796875,1.42763671875,1.42763671875,1.4501953125,1.456640625,1.47275390625,1.49208984375,1.50498046875,1.49853515625,1.53720703125,1.52431640625,1.53076171875,1.53720703125,1.53720703125,1.51787109375,1.508203125,1.47919921875,1.45986328125,1.42763671875,1.3986328125,1.3921875,1.38251953125,1.36318359375,1.35673828125,1.3599609375,1.36640625,1.3728515625,1.379296875,1.36318359375,1.36962890625,1.3728515625,1.3599609375,1.3599609375,1.33740234375,1.35673828125,1.35029296875,1.33740234375,1.3470703125,1.35029296875,1.340625,1.35673828125,1.3470703125,1.35029296875,1.33095703125,1.33740234375,1.33095703125,1.3470703125,1.34384765625,1.3470703125,1.35029296875,1.33095703125,1.33740234375,1.34384765625,1.327734375,1.3341796875,1.340625,1.32451171875,1.32451171875,1.33095703125,1.32451171875,1.327734375,1.340625,1.3083984375,1.33095703125,1.3212890625,1.3212890625,1.31806640625,1.32451171875,1.327734375,1.33095703125,1.33740234375,1.353515625,1.35029296875,1.34384765625,1.38896484375,1.3857421875,1.3728515625,1.3728515625,1.36318359375,1.3599609375,1.35029296875,1.33740234375,1.31806640625,1.31162109375,1.31162109375,1.3083984375,1.31162109375,1.30517578125,1.31162109375,1.31806640625,1.31484375,1.26005859375,1.31162109375,1.5017578125,1.8046875,2.101171875,2.2365234375,1.8884765625,1.55654296875,1.4115234375,1.40830078125,1.3921875,1.37607421875,1.36318359375,1.35673828125,1.3470703125,1.36318359375,1.35673828125,1.35673828125,1.36962890625,1.36318359375,1.3728515625,1.37607421875,1.38251953125,1.3728515625,1.379296875,1.38896484375,1.39541015625,1.4115234375,1.405078125,1.4244140625,1.4373046875,1.44375,1.4759765625,1.4888671875,1.4953125,1.508203125,1.51787109375,1.5275390625,1.5275390625,1.533984375,1.53076171875,1.5404296875,1.49208984375,1.48564453125,1.44375,1.41474609375,1.405078125,1.379296875,1.37607421875,1.3599609375,1.36640625,1.36318359375,1.36318359375,1.3470703125,1.3599609375,1.3470703125,1.35673828125,1.35673828125,1.36318359375,1.3341796875,1.35673828125,1.35029296875,1.353515625,1.35029296875,1.34384765625,1.3599609375,1.340625,1.340625,1.340625,1.33740234375,1.3470703125,1.34384765625,1.35673828125,1.33740234375,1.36318359375,1.3470703125,1.36640625,1.3728515625,1.36962890625,1.36640625,1.3728515625,1.36962890625,1.3599609375,1.36962890625,1.38251953125,1.38251953125,1.3921875,1.38251953125,1.3921875,1.38896484375,1.40185546875,1.405078125,1.3921875,1.40185546875,1.41796875,1.44697265625,1.430859375,1.43408203125,1.42763671875,1.46630859375,1.4759765625,1.47275390625,1.4630859375
1.56943359375,1.4630859375,1.44375,1.42763671875,1.40185546875,1.3921875,1.39541015625,1.379296875,1.38251953125,1.38251953125,1.39541015625,1.3857421875,1.39541015625,1.3921875,1.3986328125,1.3986328125,1.38896484375,1.4115234375,1.4115234375,1.430859375,1.430859375,1.430859375,1.44052734375,1.44375,1.4759765625,1.47275390625,1.51142578125,1.5146484375,1.51787109375,1.546875,1.546875,1.5404296875,1.5533203125,1.53720703125,1.5146484375,1.5017578125,1.4759765625,1.45341796875,1.41796875,1.405078125,1.38896484375,1.36962890625,1.37607421875,1.36640625,1.353515625,1.36640625,1.353515625,1.353515625,1.3599609375,1.36640625,1.36640625,1.353515625,1.34384765625,1.353515625,1.35029296875,1.35673828125,1.3470703125,1.33740234375,1.353515625,1.327734375,1.340625,1.33095703125,1.3341796875,1.3341796875,1.3341796875,1.327734375,1.340625,1.3341796875,1.33095703125,1.3341796875,1.340625,1.33095703125,1.340625,1.3212890625,1.3341796875,1.327734375,1.3212890625,1.327734375,1.327734375,1.327734375,1.340625,1.340625,1.3341796875,1.3212890625,1.327734375,1.33095703125,1.327734375,1.327734375,1.3341796875,1.34384765625,1.3470703125,1.35029296875,1.353515625,1.379296875,1.39541015625,1.36962890625,1.36962890625,1.37607421875,1.36318359375,1.36318359375,1.33740234375,1.31806640625,1.33095703125,1.3212890625,1.3212890625,1.32451171875,1.33095703125,1.3083984375,1.30517578125,1.2890625,1.25361328125,1.3470703125,1.5533203125,1.8755859375,2.13662109375,2.18818359375,1.791796875,1.5146484375,1.43408203125,1.42119140625,1.3986328125,1.3728515625,1.36962890625,1.36318359375,1.36318359375,1.36318359375,1.3599609375,1.36640625,1.37607421875,1.38896484375,1.36962890625,1.38896484375,1.38251953125,1.3857421875,1.39541015625,1.40830078125,1.40830078125,1.430859375,1.42763671875,1.4373046875,1.4501953125,1.46630859375,1.48564453125,1.49208984375,1.508203125,1.51787109375,1.5275390625,1.54365234375,1.546875,1.54365234375,1.533984375,1.52431640625,1.5017578125,1.4759765625,1.45341796875,1.4244140625,1.405078125,1.3986328125,1.38896484375,1.379296875,1.37607421875,1.3728515625,1.3728515625,1.38251953125,1.379296875,1.3728515625,1.379296875,1.38251953125,1.36640625,1.38251953125,1.36640625,1.36640625,1.36318359375,1.36640625,1.36962890625,1.36318359375,1.36962890625,1.36640625,1.3599609375,1.35673828125,1.3599609375,1.35673828125,1.353515625,1.35673828125,1.353515625,1.35673828125,1.35673828125,1.353515625,1.340625,1.340625,1.34384765625,1.340625,1.340625,1.327734375,1.340625,1.33095703125,1.33095703125,1.327734375,1.33095703125,1.3341796875,1.3341796875,1.33740234375,1.33095703125,1.33740234375,1.34384765625,1.3470703125,1.35673828125,1.3599609375,1.36318359375,1.379296875,1.3986328125,1.3857421875,1.3857421875,1.38251953125,1.36962890625,1.36640625,1.3341796875,1.327734375,1.327734375,1.33740234375,1.3212890625,1.3212890625,1.31162109375,1.2955078125,1.31806640625,1.3083984375,1.2568359375,1.29228515625,1.46953125,1.76923828125,2.08505859375,2.25263671875,1.94326171875,1.5791015625,1.4115234375,1.4115234375,1.38896484375,1.38896484375,1.35673828125,1.340625,1.3341796875,1.3470703125,1.353515625,1.33740234375,1.35029296875,1.3599609375,1.36962890625,1.36318359375,1.3728515625,1.36962890625,1.3728515625,1.37607421875,1.379296875,1.379296875,1.38896484375,1.4115234375,1.41474609375,1.4373046875,1.45341796875,1.46630859375,1.4953125,1.4953125,1.508203125,1.508203125,1.5275390625,1.51142578125,1.51142578125,1.508203125,1.4953125,1.46953125,1.4373046875,1.39541015625,1.38251953125,1.36640625,1.35673828125,1.36318359375,1.34384765625,1.353515625,1.33740234375,1.34384765625,1.3599609375,1.34384765625,1.33095703125,1.340625,1.32451171875,1.340625,1.33740234375,1.327734375,1.3341796875,1.340625,1.34384765625,1.33740234375,1.33095703125,1.3341796875,1.3341796875,1.3341796875,1.34384765625,1.3341796875,1.3341796875,1.353515625,1.34384765625,1.35673828125,1.3341796875,1.33740234375,1.3470703125,1.35029296875,1.353515625,1.353515625,1.33740234375,1.35029296875,1.3470703125,1.35029296875,1.340625,1.33740234375,1.3341796875,1.340625,1.3341796875,1.3470703125,1.33740234375,1.353515625,1.3470703125,1.353515625,1.35673828125,1.3599609375,1.36318359375,1.3921875,1.38251953125,1.39541015625,1.38896484375,1.3921875,1.379296875,1.3599609375,1.3470703125,1.32451171875,1.32451171875,1.33740234375,1.32451171875,1.340625,1.31162109375,1.31806640625,1.34384765625,1.31806640625,1.27939453125,1.33095703125,1.5146484375,1.8111328125,2.13017578125,2.22685546875,1.88525390625,1.56943359375,1.44697265625,1.4630859375,1.41796875,1.40185546875,1.39541015625,1.39541015625,1.3857421875,1.3857421875,1.3857421875,1.3921875,1.379296875,1.405078125,1.3857421875,1.39541015625,1.3986328125,1.39541015625,1.39541015625,1.42119140625,1.41796875,1.430859375,1.4244140625,1.456640625,1.456640625,1.46953125,1.46630859375,1.49853515625,1.51142578125,1.5146484375,1.5404296875,1.5404296875,1.559765625,1.5533203125,1.5533203125,1.52109375,1.49853515625,1.46953125,1.45341796875,1.41796875,1.40830078125,1.379296875,1.3599609375,1.37607421875,1.340625,1.35029296875,1.35029296875,1.3470703125,1.3341796875,1.3470703125,1.34384765625,1.3599609375,1.353515625,1.3599609375,1.35029296875,1.353515625,1.32451171875,1.34384765625,1.3341796875,1.33095703125,1.3470703125,1.3212890625,1.33740234375,1.33740234375,1.340625,1.340625,1.33740234375,1.327734375,1.33740234375,1.33740234375,1.3341796875,1.31484375,1.33095703125,1.35029296875,1.327734375,1.340625,1.340625,1.3341796875,1.34384765625,1.327734375,1.33095703125,1.33740234375,1.35673828125,1.340625,1.3212890625,1.33740234375,1.36640625,1.340625,1.37607421875,1.35029296875,1.3470703125,1.3986328125,1.3986328125,1.3857421875,1.3857421875,1.38896484375,1.3728515625,1.36962890625,1.33095703125,1.327734375,1.3341796875,1.32451171875,1.32451171875,1.31806640625,1.3212890625,1.31806640625,1.31162109375,1.29873046875,1.26328125,1.327734375,1.52109375,1.78857421875,2.07216796875,2.13984375,1.80791015625,1.5146484375,1.3857421875,1.40185546875,1.39541015625,1.36318359375,1.35673828125,1.340625,1.34384765625,1.35029296875,1.35029296875,1.3470703125,1.3599609375,1.35673828125,1.36962890625,1.36640625,1.3728515625,1.379296875,1.3921875,1.38251953125,1.39541015625,1.4115234375,1.41474609375,1.42763671875,1.43408203125,1.456640625,1.46630859375,1.49208984375,1.4953125,1.51142578125,1.51787109375,1.51787109375,1.533984375,1.53076171875,1.5275390625,1.51142578125,1.49208984375,1.46630859375,1.430859375,1.41474609375,1.38896484375,1.36962890625,1.3728515625,1.3599609375,1.36318359375,1.36640625,1.35673828125,1.3599609375,1.36962890625,1.3728515625,1.3599609375,1.36640625,1.35673828125,1.36962890625,1.33740234375,1.353515625,1.3470703125,1.340625,1.33740234375,1.3470703125,1.340625,1.340625,1.340625,1.31484375,1.33095703125,1.3341796875,1.327734375,1.33095703125,1.327734375,1.31484375,1.31806640625,1.33095703125,1.32451171875,1.33095703125,1.3341796875,1.34384765625,1.3470703125,1.33095703125,1.327734375,1.31484375,1.327734375,1.3341796875,1.327734375,1.3341796875,1.3341796875,1.35673828125,1.353515625,1.36640625,1.35673828125,1.379296875,1.3728515625,1.40185546875,1.40185546875,1.39541015625,1.3986328125,1.3857421875,1.40185546875,1.3728515625,1.35673828125,1.3470703125,1.353515625,1.35673828125,1.33740234375,1.3341796875,1.3470703125,1.3341796875,1.3341796875,1.30517578125,1.31162109375,1.42763671875,1.64033203125,1.9529296875,2.16884765625,2.05927734375,1.714453125,1.4630859375,1.4373046875,1.4244140625,1.379296875,1.36962890625,1.35673828125,1.36962890625,1.36318359375,1.35673828125,1.36962890625,1.3728515625,1.36318359375,1.36962890625,1.36962890625,1.37607421875,1.3857421875,1.38251953125,1.3986328125,1.40185546875,1.4244140625,1.41474609375,1.4373046875,1.430859375,1.46953125,1.4630859375,1.482421875,1.48564453125,1.508203125,1.508203125,1.52431640625,1.5275390625,1.5404296875,1.53720703125,1.51787109375,1.5017578125,1.46953125,1.4501953125,1.4115234375,1.40185546875,1.3921875,1.36962890625,1.36318359375,1.35673828125,1.353515625,1.35029296875,1.35029296875,1.353515625,1.3470703125,1.35029296875,1.35673828125,1.3599609375,1.353515625,1.3470703125,1.35029296875,1.353515625,1.353515625,1.353515625,1.35673828125,1.3470703125,1.340625,1.3341796875,1.33740234375,1.33740234375,1.340625,1.3341796875,1.3470703125,1.34384765625,1.327734375,1.33095703125,1.34384765625,1.340625,1.3341796875,1.327734375,1.340625,1.33740234375,1.340625,1.3470703125,1.3341796875,1.340625,1.340625,1.3470703125,1.327734375,1.33095703125,1.33740234375,1.327734375,1.3470703125,1.3341796875,1.34384765625,1.35029296875,1.3599609375,1.36318359375,1.3728515625,1.3986328125,1.3986328125,1.38896484375,1.39541015625,1.3728515625,1.37607421875,1.36640625,1.3470703125,1.340625,1.3341796875,1.33095703125,1.33740234375,1.327734375,1.33095703125,1.3212890625,1.33740234375,1.30517578125,1.276171875,1.3728515625,1.5791015625,1.90458984375,2.13017578125,2.11728515625,1.75634765625,1.5017578125,1.44697265625,1.42119140625,1.3921875,1.37607421875,1.36318359375,1.36318359375,1.353515625,1.353515625,1.36640625,1.36962890625,1.36962890625,1.37607421875,1.36640625,1.3921875,1.379296875,1.3857421875,1.39541015625,1.3986328125,1.41474609375,1.4244140625,1.4244140625,1.44375,1.44375,1.4630859375,1.47275390625,1.4888671875,1.5146484375,1.508203125,1.53076171875,1.53076171875,1.5404296875,1.53720703125,1.52109375,1.50498046875,1.5017578125,1.45986328125,1.4244140625,1.40830078125,1.38896484375,1.38251953125,1.3728515625,1.36962890625,1.3599609375,1.36318359375,1.35673828125,1.36640625,1.36318359375,1.35673828125,1.34384765625,1.34384765625,1.35029296875,1.3470703125,1.34384765625,1.3470703125,1.33740234375,1.35029296875,1.33095703125,1.3470703125,1.340625,1.3341796875,1.340625,1.33740234375,1.33740234375,1.3341796875,1.327734375,1.33095703125,1.3341796875,1.33740234375,1.327734375,1.340625,1.3341796875,1.3341796875,1.3341796875,1.33740234375,1.3341796875,1.3341796875,1.3212890625,1.327734375,1.32451171875,1.32451171875,1.33095703125,1.327734375,1.32451171875,1.3212890625,1.33095703125,1.33740234375,1.33095703125,1.353515625,1.35029296875,1.3599609375,1.3599609375,1.379296875,1.379296875,1.3921875,1.3857421875,1.38896484375,1.37607421875,1.36962890625,1.33095703125,1.327734375,1.33740234375,1.33095703125,1.32451171875,1.31162109375,1.3212890625,1.3341796875,1.3212890625,1.31484375,1.26650390625,1.3083984375,1.5017578125,1.78857421875,2.06572265625,2.21396484375,1.88203125,1.56943359375,1.41796875,1.42119140625,1.3921875,1.36318359375,1.35673828125,1.353515625,1.353515625,1.35029296875,1.35029296875,1.34384765625,1.3599609375,1.36962890625,1.36640625,1.36962890625,1.3728515625,1.38251953125,1.3921875,1.40185546875,1.40185546875,1.41796875,1.430859375,1.44052734375,1.45341796875,1.46953125,1.47275390625,1.4953125,1.508203125,1.51787109375,1.546875,1.546875,1.55654296875,1.56943359375,1.55654296875,1.53720703125,1.50498046875,1.49208984375,1.46953125,1.44697265625,1.42763671875,1.41474609375,1.3921875,1.38896484375,1.38251953125,1.38896484375,1.3728515625,1.38251953125,1.38251953125,1.3857421875,1.36640625,1.39541015625,1.3857421875,1.36962890625,1.3599609375,1.36962890625,1.36318359375,1.3599609375,1.36318359375,1.35673828125,1.3599609375,1.36640625,1.353515625,1.35673828125,1.35029296875,1.3470703125,1.33095703125,1.340625,1.33740234375,1.34384765625,1.33740234375,1.32451171875,1.34384765625,1.33740234375,1.33740234375,1.340625,1.34384765625,1.3341796875,1.3341796875,1.340625,1.327734375,1.3341796875,1.33095703125,1.33095703125,1.33095703125,1.33740234375,1.33740234375,1.33095703125,1.3212890625,1.33740234375,1.33095703125,1.35029296875,1.3470703125,1.35673828125,1.35673828125,1.3857421875,1.38251953125,1.379296875,1.3857421875,1.3599609375,1.36640625,1.33095703125,1.31484375,1.3083984375,1.31484375,1.31806640625,1.30517578125,1.31162109375,1.30517578125,1.2955078125,1.2955078125,1.24716796875,1.2697265625,1.39541015625,1.6564453125,1.96904296875,2.2236328125,2.04638671875,1.67578125,1.43408203125,1.4115234375,1.39541015625,1.36640625,1.34384765625,1.353515625,1.35029296875,1.3470703125,1.340625,1.353515625,1.35673828125,1.3599609375,1.3728515625,1.3599609375,1.37607421875,1.3728515625,1.38251953125,1.405078125,1.405078125,1.40185546875,1.41474609375,1.44052734375,1.4501953125,1.4630859375,1.48564453125,1.50498046875,1.50498046875,1.51142578125,1.53076171875,1.55009765625,1.5533203125,1.53720703125,1.5404296875,1.546875,1.52109375,1.48564453125,1.46953125,1.44697265625,1.4244140625,1.4115234375,1.3921875,1.379296875,1.37607421875,1.3728515625,1.38251953125,1.35673828125,1.36640625,1.36962890625,1.35673828125,1.37607421875,1.35029296875,1.35673828125,1.35673828125,1.3470703125,1.35673828125,1.34384765625,1.353515625,1.34384765625,1.33095703125,1.327734375,1.34384765625,1.33095703125,1.33095703125,1.3341796875,1.31806640625,1.327734375,1.3212890625,1.31806640625,1.3212890625,1.31484375,1.327734375,1.3212890625,1.31806640625,1.32451171875,1.340625,1.3341796875,1.3341796875,1.327734375,1.3212890625,1.33740234375,1.3341796875,1.33740234375,1.32451171875,1.33740234375,1.33740234375,1.31806640625,1.3212890625,1.340625,1.33740234375,1.3599609375,1.3470703125,1.35029296875,1.37607421875,1.38251953125,1.38251953125,1.37607421875,1.3857421875,1.35673828125,1.3728515625,1.3470703125,1.327734375,1.33095703125,1.327734375,1.327734375,1.3212890625,1.3341796875,1.3212890625,1.327734375,1.32451171875,1.276171875,1.27294921875,1.44052734375,1.68544921875,1.99482421875,2.230078125,2.0431640625,1.64677734375,1.4115234375,1.40830078125,1.40185546875,1.38896484375,1.379296875,1.379296875,1.3728515625,1.36318359375,1.3728515625,1.36640625,1.38251953125,1.38251953125,1.38896484375,1.40185546875,1.40830078125,1.40830078125,1.41474609375,1.430859375,1.42763671875,1.4115234375,1.44052734375,1.44375,1.456640625,1.48564453125,1.4759765625,1.4888671875,1.51142578125,1.533984375,1.5404296875,1.55009765625,1.56943359375,1.5533203125,1.56298828125,1.5404296875,1.54365234375,1.50498046875,1.482421875,1.4501953125,1.42763671875,1.3921875,1.3728515625,1.379296875,1.3728515625,1.36318359375,1.35029296875,1.35673828125,1.36318359375,1.3599609375,1.36640625,1.3599609375,1.3599609375,1.353515625,1.36962890625,1.353515625,1.353515625,1.3599609375,1.353515625,1.353515625,1.34384765625,1.3341796875,1.353515625,1.33740234375,1.33740234375,1.34384765625,1.33095703125,1.340625,1.327734375,1.3341796875,1.340625,1.3341796875,1.3212890625,1.33740234375,1.3470703125,1.33095703125,1.33095703125,1.340625,1.327734375,1.340625,1.3341796875,1.33740234375,1.32451171875,1.32451171875,1.33095703125,1.31162109375,1.33095703125,1.3212890625,1.3212890625,1.3212890625,1.3470703125,1.35029296875,1.34384765625,1.353515625,1.38251953125,1.36962890625,1.36640625,1.3728515625,1.36962890625,1.3599609375,1.34384765625,1.327734375,1.32451171875,1.31484375,1.30517578125,1.31806640625,1.31806640625,1.31162109375,1.30517578125,1.3083984375,1.276171875,1.28583984375,1.36318359375,1.59521484375,1.8755859375,2.13984375,2.0947265625,1.7015625,1.430859375,1.40830078125,1.3921875,1.3728515625,1.353515625,1.3470703125,1.35029296875,1.33095703125,1.340625,1.34384765625,1.35673828125,1.35673828125,1.36640625,1.3599609375,1.38251953125,1.38896484375,1.38251953125,1.3857421875,1.39541015625,1.4115234375,1.405078125,1.41796875,1.4244140625,1.44052734375,1.4501953125,1.47919921875,1.4888671875,1.4953125,1.508203125,1.5146484375,1.5275390625,1.51787109375,1.53720703125,1.508203125,1.48564453125,1.4759765625,1.44052734375,1.42119140625,1.3921875,1.37607421875,1.37607421875,1.3728515625,1.3470703125,1.353515625,1.35029296875,1.36962890625,1.34384765625,1.36962890625,1.353515625,1.36640625,1.35673828125,1.35673828125,1.353515625,1.35673828125,1.36962890625,1.36640625,1.36318359375,1.35673828125,1.36318359375,1.379296875,1.35673828125,1.36962890625,1.36640625,1.36640625,1.3728515625,1.36640625,1.35673828125,1.38251953125,1.379296875,1.3857421875,1.3728515625,1.3857421875,1.3857421875,1.3857421875,1.3857421875,1.38251953125,1.37607421875,1.3857421875,1.405078125,1.40185546875,1.40185546875,1.40185546875,1.41474609375,1.41474609375,1.4244140625,1.42763671875,1.430859375,1.44052734375,1.44697265625,1.45986328125
1.22783203125,1.2375,1.2439453125,1.2310546875,1.2310546875,1.1923828125,1.21171875,1.3341796875,1.585546875,1.90458984375,2.13662109375,1.98193359375,1.62421875,1.37607421875,1.36318359375,1.3470703125,1.31484375,1.29873046875,1.2955078125,1.30517578125,1.2955078125,1.29228515625,1.30517578125,1.2890625,1.31484375,1.31484375,1.31484375,1.33095703125,1.33095703125,1.33095703125,1.340625,1.35029296875,1.35673828125,1.379296875,1.3857421875,1.38896484375,1.40185546875,1.41474609375,1.42763671875,1.44375,1.4630859375,1.4759765625,1.47919921875,1.47919921875,1.48564453125,1.50498046875,1.482421875,1.4630859375,1.44697265625,1.42119140625,1.3921875,1.379296875,1.3728515625,1.353515625,1.35029296875,1.340625,1.340625,1.3341796875,1.33740234375,1.340625,1.3341796875,1.3341796875,1.3341796875,1.34384765625,1.340625,1.327734375,1.33740234375,1.33095703125,1.35029296875,1.340625,1.3341796875,1.3341796875,1.327734375,1.3341796875,1.3341796875,1.327734375,1.32451171875,1.33095703125,1.31806640625,1.3212890625,1.327734375,1.327734375,1.340625,1.340625,1.3341796875,1.32451171875,1.33740234375,1.33095703125,1.3341796875,1.33740234375,1.33095703125,1.33740234375,1.33740234375,1.3341796875,1.33740234375,1.33740234375,1.33740234375,1.33740234375,1.327734375,1.340625,1.34384765625,1.33095703125,1.340625,1.327734375,1.340625,1.35673828125,1.3599609375,1.36962890625,1.36962890625,1.38896484375,1.39541015625,1.3986328125,1.3857421875,1.38896484375,1.3921875,1.36962890625,1.3470703125,1.3341796875,1.3341796875,1.340625,1.33095703125,1.340625,1.340625,1.33740234375,1.340625,1.3212890625,1.27294921875,1.34384765625,1.54365234375,1.8626953125,2.14306640625,2.22041015625,1.843359375,1.53720703125,1.44375,1.44375,1.405078125,1.3857421875,1.37607421875,1.3728515625,1.3728515625,1.36640625,1.37607421875,1.37607421875,1.38251953125,1.3921875,1.405078125,1.39541015625,1.40185546875,1.4115234375,1.42119140625,1.4244140625,1.44052734375,1.44375,1.4501953125,1.46630859375,1.4759765625,1.4888671875,1.50498046875,1.508203125,1.52431640625,1.546875,1.55009765625,1.56943359375,1.5662109375,1.57265625,1.56943359375,1.56298828125,1.533984375,1.508203125,1.482421875,1.44697265625,1.43408203125,1.42119140625,1.4115234375,1.39541015625,1.39541015625,1.379296875,1.38251953125,1.3728515625,1.379296875,1.37607421875,1.37607421875,1.37607421875,1.3728515625,1.36640625,1.36640625,1.36318359375,1.3599609375,1.340625,1.3599609375,1.35029296875,1.3470703125,1.353515625,1.353515625,1.34384765625,1.35029296875,1.33740234375,1.3341796875,1.34384765625,1.33095703125,1.33740234375,1.327734375,1.340625,1.33095703125,1.3341796875,1.3341796875,1.327734375,1.33740234375,1.33095703125,1.3341796875,1.33095703125,1.3341796875,1.340625,1.3341796875,1.327734375,1.327734375,1.33740234375,1.327734375,1.33095703125,1.33095703125,1.33095703125,1.32451171875,1.3341796875,1.3341796875,1.33740234375,1.34384765625,1.340625,1.36318359375,1.36962890625,1.3857421875,1.3728515625,1.3857421875,1.36640625,1.36962890625,1.3599609375,1.327734375,1.31162109375,1.32451171875,1.3083984375,1.31806640625,1.31162109375,1.31162109375,1.3212890625,1.30517578125,1.29228515625,1.25361328125,1.32451171875,1.53720703125,1.85302734375,2.13984375,2.22685546875,1.82080078125,1.51787109375,1.40830078125,1.41796875,1.38896484375,1.36640625,1.3470703125,1.35029296875,1.33740234375,1.34384765625,1.3470703125,1.35029296875,1.34384765625,1.36640625,1.38251953125,1.37607421875,1.36640625,1.38896484375,1.36962890625,1.3921875,1.3986328125,1.3921875,1.41796875,1.4244140625,1.430859375,1.45986328125,1.44697265625,1.47275390625,1.5017578125,1.4953125,1.49853515625,1.52431640625,1.53076171875,1.53720703125,1.546875,1.51787109375,1.50498046875,1.47919921875,1.45341796875,1.41796875,1.405078125,1.3986328125,1.36318359375,1.3728515625,1.36640625,1.36318359375,1.36318359375,1.36962890625,1.3599609375,1.36318359375,1.36640625,1.35673828125,1.353515625,1.3599609375,1.353515625,1.35029296875,1.36640625,1.35673828125,1.36318359375,1.35029296875,1.33740234375,1.33740234375,1.3341796875,1.35029296875,1.33740234375,1.340625,1.327734375,1.33740234375,1.340625,1.3470703125,1.33740234375,1.3341796875,1.33740234375,1.3341796875,1.327734375,1.33095703125,1.33740234375,1.33740234375,1.3341796875,1.34384765625,1.33740234375,1.33740234375,1.34384765625,1.34384765625,1.3341796875,1.31806640625,1.3212890625,1.340625,1.35029296875,1.34384765625,1.34384765625,1.36962890625,1.36640625,1.3599609375,1.3857421875,1.3857421875,1.379296875,1.37607421875,1.38251953125,1.37607421875,1.36640625,1.340625,1.31484375,1.31806640625,1.327734375,1.31806640625,1.3212890625,1.3341796875,1.31806640625,1.31162109375,1.30517578125,1.26005859375,1.33740234375,1.54365234375,1.84658203125,2.152734375,2.20751953125,1.83046875,1.51787109375,1.40830078125,1.42119140625,1.405078125,1.37607421875,1.36962890625,1.36962890625,1.36318359375,1.36318359375,1.36962890625,1.3599609375,1.36640625,1.37607421875,1.36640625,1.38251953125,1.3728515625,1.3921875,1.3921875,1.40830078125,1.4115234375,1.4115234375,1.43408203125,1.44375,1.44375,1.45986328125,1.46953125,1.48564453125,1.50498046875,1.52431640625,1.51787109375,1.533984375,1.52431640625,1.52431640625,1.5404296875,1.52431640625,1.5017578125,1.4759765625,1.4501953125,1.44375,1.39541015625,1.38251953125,1.3857421875,1.379296875,1.36962890625,1.3728515625,1.36318359375,1.3728515625,1.35673828125,1.353515625,1.3470703125,1.3599609375,1.35673828125,1.38251953125,1.353515625,1.3470703125,1.3470703125,1.3470703125,1.353515625,1.3341796875,1.3470703125,1.33740234375,1.3470703125,1.34384765625,1.3470703125,1.34384765625,1.340625,1.35029296875,1.34384765625,1.3341796875,1.33740234375,1.35029296875,1.3341796875,1.33740234375,1.340625,1.340625,1.3470703125,1.33095703125,1.34384765625,1.340625,1.340625,1.327734375,1.340625,1.3341796875,1.3341796875,1.33095703125,1.34384765625,1.340625,1.3470703125,1.33740234375,1.35029296875,1.35673828125,1.36962890625,1.3921875,1.38896484375,1.37607421875,1.3921875,1.39541015625,1.3728515625,1.36962890625,1.353515625,1.3470703125,1.34384765625,1.33740234375,1.3341796875,1.31484375,1.327734375,1.32451171875,1.3212890625,1.276171875,1.28583984375,1.40830078125,1.611328125,1.90458984375,2.1591796875,2.0625,1.6951171875,1.430859375,1.405078125,1.41474609375,1.38251953125,1.379296875,1.3728515625,1.3470703125,1.36962890625,1.36318359375,1.3599609375,1.36640625,1.3857421875,1.379296875,1.37607421875,1.3857421875,1.405078125,1.3986328125,1.40185546875,1.41474609375,1.42119140625,1.42119140625,1.44052734375,1.44052734375,1.44697265625,1.46630859375,1.482421875,1.49853515625,1.5146484375,1.50498046875,1.53076171875,1.52431640625,1.54365234375,1.53720703125,1.51787109375,1.5017578125,1.47275390625,1.44697265625,1.430859375,1.42119140625,1.3857421875,1.36318359375,1.35673828125,1.34384765625,1.353515625,1.327734375,1.340625,1.34384765625,1.353515625,1.340625,1.340625,1.340625,1.3470703125,1.3470703125,1.340625,1.3470703125,1.340625,1.3341796875,1.35673828125,1.34384765625,1.327734375,1.34384765625,1.3341796875,1.3341796875,1.33740234375,1.33095703125,1.32451171875,1.32451171875,1.34384765625,1.33095703125,1.327734375,1.33095703125,1.33095703125,1.327734375,1.3341796875,1.33095703125,1.33740234375,1.33095703125,1.33740234375,1.327734375,1.34384765625,1.3341796875,1.33740234375,1.32451171875,1.340625,1.3470703125,1.35673828125,1.36640625,1.353515625,1.3728515625,1.38251953125,1.37607421875,1.3857421875,1.36962890625,1.3599609375,1.379296875,1.35029296875,1.327734375,1.327734375,1.33095703125,1.3212890625,1.33095703125,1.3212890625,1.33095703125,1.3212890625,1.31806640625,1.27294921875,1.33740234375,1.53076171875,1.81435546875,2.075390625,2.18173828125,1.84658203125,1.57587890625,1.44697265625,1.42763671875,1.40830078125,1.3921875,1.36962890625,1.3728515625,1.37607421875,1.36962890625,1.36962890625,1.37607421875,1.3728515625,1.37607421875,1.36962890625,1.379296875,1.3857421875,1.3857421875,1.405078125,1.405078125,1.3986328125,1.41474609375,1.43408203125,1.43408203125,1.4373046875,1.45341796875,1.4630859375,1.4888671875,1.4759765625,1.5017578125,1.51787109375,1.51787109375,1.52431640625,1.53076171875,1.52109375,1.508203125,1.482421875,1.45341796875,1.42763671875,1.40830078125,1.39541015625,1.36640625,1.36962890625,1.36962890625,1.36962890625,1.35673828125,1.36640625,1.35029296875,1.35673828125,1.36640625,1.3599609375,1.3728515625,1.36962890625,1.36962890625,1.36318359375,1.36318359375,1.353515625,1.36962890625,1.353515625,1.35673828125,1.353515625,1.340625,1.35029296875,1.353515625,1.353515625,1.34384765625,1.353515625,1.34384765625,1.353515625,1.3341796875,1.33095703125,1.34384765625,1.340625,1.340625,1.33095703125,1.33095703125,1.34384765625,1.327734375,1.33740234375,1.33740234375,1.34384765625,1.33740234375,1.34384765625,1.33740234375,1.327734375,1.340625,1.3341796875,1.3341796875,1.353515625,1.36318359375,1.36640625,1.3599609375,1.39541015625,1.3921875,1.37607421875,1.3857421875,1.37607421875,1.379296875,1.35673828125,1.3341796875,1.31484375,1.327734375,1.32451171875,1.3212890625,1.32451171875,1.31484375,1.31162109375,1.3083984375,1.276171875,1.27939453125,1.38251953125,1.59521484375,1.9013671875,2.14951171875,2.075390625,1.71767578125,1.4501953125,1.41474609375,1.3986328125,1.36640625,1.35673828125,1.34384765625,1.33095703125,1.3341796875,1.3341796875,1.35029296875,1.34384765625,1.36640625,1.35673828125,1.36640625,1.379296875,1.379296875,1.38251953125,1.3921875,1.39541015625,1.39541015625,1.4115234375,1.4244140625,1.44697265625,1.456640625,1.45986328125,1.48564453125,1.4888671875,1.50498046875,1.51142578125,1.5275390625,1.5275390625,1.53720703125,1.52431640625,1.52109375,1.5146484375,1.46953125,1.456640625,1.43408203125,1.40830078125,1.38896484375,1.38896484375,1.379296875,1.36962890625,1.36962890625,1.35673828125,1.3728515625,1.36318359375,1.3728515625,1.3728515625,1.36962890625,1.3599609375,1.36640625,1.353515625,1.36640625,1.3599609375,1.3599609375,1.35029296875,1.3470703125,1.3470703125,1.3470703125,1.35029296875,1.34384765625,1.35673828125,1.34384765625,1.3341796875,1.34384765625,1.34384765625,1.35673828125,1.3470703125,1.3470703125,1.3470703125,1.34384765625,1.353515625,1.3470703125,1.353515625,1.33095703125,1.340625,1.34384765625,1.34384765625,1.3470703125,1.35029296875,1.3470703125,1.3470703125,1.3599609375,1.353515625,1.36318359375,1.35029296875,1.35029296875,1.36318359375,1.36640625,1.3599609375,1.37607421875,1.38251953125,1.405078125,1.3857421875,1.38896484375,1.40185546875,1.3921875,1.3857421875,1.35673828125,1.340625,1.3470703125,1.3341796875,1.3341796875,1.340625,1.327734375,1.33095703125,1.33095703125,1.3470703125,1.27939453125,1.301953125,1.44052734375,1.67900390625,1.9787109375,2.2171875,2.0560546875,1.6822265625,1.44052734375,1.42763671875,1.405078125,1.37607421875,1.36962890625,1.36318359375,1.353515625,1.36640625,1.3599609375,1.3728515625,1.3599609375,1.36640625,1.36318359375,1.37607421875,1.38251953125,1.37607421875,1.39541015625,1.40185546875,1.40830078125,1.40830078125,1.42763671875,1.43408203125,1.44052734375,1.44697265625,1.47275390625,1.482421875,1.4888671875,1.51142578125,1.5146484375,1.52109375,1.533984375,1.546875,1.53720703125,1.5275390625,1.50498046875,1.47919921875,1.45341796875,1.42119140625,1.3986328125,1.40185546875,1.379296875,1.3599609375,1.35673828125,1.36640625,1.35673828125,1.353515625,1.353515625,1.35029296875,1.36640625,1.34384765625,1.3470703125,1.35029296875,1.34384765625,1.34384765625,1.33095703125,1.33095703125,1.33740234375,1.3212890625,1.32451171875,1.327734375,1.327734375,1.3212890625,1.3341796875,1.327734375,1.3212890625,1.32451171875,1.3212890625,1.31484375,1.32451171875,1.33095703125,1.327734375,1.3212890625,1.327734375,1.33095703125,1.32451171875,1.33095703125,1.3341796875,1.32451171875,1.33740234375,1.327734375,1.3212890625,1.327734375,1.327734375,1.3212890625,1.33095703125,1.3341796875,1.327734375,1.31806640625,1.3212890625,1.33095703125,1.34384765625,1.353515625,1.3599609375,1.36962890625,1.3728515625,1.37607421875,1.36962890625,1.379296875,1.37607421875,1.36640625,1.340625,1.33095703125,1.31806640625,1.32451171875,1.3212890625,1.32451171875,1.3341796875,1.3212890625,1.32451171875,1.32451171875,1.27939453125,1.276171875,1.41474609375,1.67255859375,1.98837890625,2.24296875,2.07861328125,1.688671875,1.45341796875,1.44697265625,1.42763671875,1.40830078125,1.38251953125,1.38251953125,1.379296875,1.3857421875,1.38251953125,1.38896484375,1.3986328125,1.3986328125,1.40185546875,1.40830078125,1.405078125,1.41474609375,1.41796875,1.43408203125,1.42763671875,1.4373046875,1.44052734375,1.4501953125,1.45986328125,1.47275390625,1.48564453125,1.5017578125,1.5146484375,1.52109375,1.5404296875,1.5275390625,1.55009765625,1.5404296875,1.5533203125,1.53076171875,1.5146484375,1.4759765625,1.45341796875,1.4244140625,1.39541015625,1.379296875,1.36962890625,1.353515625,1.35029296875,1.3470703125,1.3470703125,1.3341796875,1.33095703125,1.33095703125,1.34384765625,1.3341796875,1.340625,1.3341796875,1.327734375,1.340625,1.3341796875,1.33740234375,1.327734375,1.32451171875,1.33095703125,1.3212890625,1.31806640625,1.33095703125,1.31484375,1.327734375,1.32451171875,1.3212890625,1.3341796875,1.33095703125,1.32451171875,1.3212890625,1.32451171875,1.3341796875,1.327734375,1.327734375,1.3212890625,1.33740234375,1.3341796875,1.33095703125,1.327734375,1.33095703125,1.3341796875,1.327734375,1.327734375,1.3341796875,1.3341796875,1.327734375,1.3470703125,1.340625,1.340625,1.340625,1.35029296875,1.35673828125,1.35673828125,1.379296875,1.38896484375,1.40830078125,1.3857421875,1.39541015625,1.379296875,1.38251953125,1.36318359375,1.34384765625,1.31806640625,1.327734375,1.32451171875,1.32451171875,1.3212890625,1.3212890625,1.31806640625,1.3341796875,1.29873046875,1.26650390625,1.34384765625,1.5533203125,1.8884765625,2.1849609375,2.23974609375,1.843359375,1.51142578125,1.43408203125,1.4373046875,1.41474609375,1.405078125,1.36962890625,1.37607421875,1.3728515625,1.36962890625,1.3728515625,1.379296875,1.36962890625,1.3857421875,1.3921875,1.40185546875,1.3986328125,1.4244140625,1.40185546875,1.41474609375,1.4244140625,1.42763671875,1.44697265625,1.46953125,1.4759765625,1.47275390625,1.49208984375,1.50498046875,1.5017578125,1.51787109375,1.55654296875,1.5404296875,1.546875,1.55654296875,1.546875,1.533984375,1.5017578125,1.4888671875,1.456640625,1.41796875,1.40830078125,1.39541015625,1.379296875,1.3728515625,1.37607421875,1.36962890625,1.3599609375,1.3728515625,1.3728515625,1.38896484375,1.36640625,1.36962890625,1.36318359375,1.353515625,1.35029296875,1.340625,1.36962890625,1.3599609375,1.36318359375,1.3470703125,1.35673828125,1.327734375,1.3341796875,1.3341796875,1.327734375,1.327734375,1.32451171875,1.340625,1.3341796875,1.31806640625,1.327734375,1.3083984375,1.32451171875,1.32451171875,1.32451171875,1.32451171875,1.31484375,1.327734375,1.327734375,1.3212890625,1.3341796875,1.327734375,1.3212890625,1.31484375,1.327734375,1.33095703125,1.31484375,1.32451171875,1.3341796875,1.340625,1.35029296875,1.36318359375,1.3599609375,1.39541015625,1.37607421875,1.36640625,1.38251953125,1.3728515625,1.3921875,1.353515625,1.32451171875,1.32451171875,1.3341796875,1.31806640625,1.31484375,1.31484375,1.31484375,1.3083984375,1.3083984375,1.2697265625,1.2826171875,1.36962890625,1.62421875,1.91103515625,2.1849609375,2.0560546875,1.6564453125,1.3921875,1.3921875,1.3728515625,1.3470703125,1.3341796875,1.33740234375,1.34384765625,1.3341796875,1.340625,1.33095703125,1.3470703125,1.3470703125,1.3470703125,1.35029296875,1.353515625,1.37607421875,1.37607421875,1.38896484375,1.37607421875,1.38896484375,1.3986328125,1.4115234375,1.41796875,1.4244140625,1.430859375,1.456640625,1.46630859375,1.4953125,1.49853515625,1.508203125,1.52431640625,1.52431640625,1.53076171875,1.5146484375,1.48564453125,1.48564453125,1.4501953125,1.405078125,1.39541015625,1.38896484375,1.3857421875,1.3599609375,1.35673828125,1.3470703125,1.35673828125,1.3470703125,1.3599609375,1.35673828125,1.35673828125,1.3857421875,1.3728515625,1.37607421875,1.36640625,1.36640625,1.36962890625,1.36962890625,1.37607421875,1.3921875,1.3728515625,1.3728515625,1.3857421875,1.3921875,1.39541015625,1.3857421875,1.39541015625,1.39541015625,1.3921875,1.405078125
