1.33548387096774,1.32903225806452,1.31935483870968,1.3258064516129,1.33548387096774,1.30967741935484,1.31935483870968,1.3,1.31290322580645,1.30967741935484,1.3258064516129,1.3,1.31290322580645,1.32258064516129,1.29677419354839,1.3,1.30967741935484,1.31935483870968,1.29354838709677,1.30322580645161,1.28387096774194,1.29677419354839,1.28387096774194,1.28709677419355,1.3,1.28709677419355,1.28709677419355,1.30322580645161,1.28709677419355,1.30322580645161,1.30322580645161,1.29354838709677,1.2741935483871,1.2741935483871,1.27741935483871,1.30967741935484,1.28709677419355,1.30645161290323,1.30322580645161,1.31290322580645,1.30322580645161,1.30322580645161,1.32258064516129,1.31612903225806,1.3258064516129,1.29354838709677,1.30967741935484,1.33225806451613,1.32903225806452,1.31935483870968,1.29032258064516,1.26129032258065,1.28709677419355,1.28709677419355,1.25483870967742,1.27096774193548,1.28064516129032,1.27741935483871,1.29677419354839,1.27741935483871,1.26774193548387,1.25161290322581,1.28387096774194,1.28064516129032,1.28064516129032,1.27096774193548,1.36129032258065,1.55161290322581,1.76451612903226,1.69032258064516,1.40322580645161,1.23225806451613,1.17741935483871,1.20967741935484,1.24193548387097,1.25806451612903,1.27096774193548,1.28064516129032,1.28064516129032,1.26774193548387,1.26129032258065,1.28709677419355,1.2741935483871,1.29354838709677,1.29354838709677,1.28387096774194,1.28709677419355,1.3,1.29677419354839,1.30322580645161,1.31290322580645,1.31290322580645,1.30322580645161,1.31935483870968,1.31935483870968,1.33225806451613,1.33225806451613,1.34516129032258,1.34193548387097,1.35483870967742,1.34838709677419,1.36451612903226,1.34838709677419,1.34516129032258,1.36129032258065,1.36774193548387,1.37096774193548,1.35806451612903,1.33870967741935,1.34838709677419,1.32258064516129,1.3258064516129,1.31935483870968,1.30322580645161,1.31290322580645,1.30645161290323,1.30322580645161,1.27096774193548,1.28064516129032,1.28709677419355,1.29032258064516,1.28709677419355,1.27741935483871,1.26774193548387,1.27741935483871,1.2741935483871,1.2741935483871,1.28387096774194,1.28064516129032,1.28064516129032,1.27096774193548,1.2741935483871,1.2741935483871,1.25806451612903,1.28064516129032,1.28064516129032,1.2741935483871,1.26129032258065,1.27741935483871,1.27096774193548,1.26451612903226,1.26451612903226,1.26774193548387,1.2741935483871,1.27741935483871,1.2741935483871,1.28064516129032,1.28064516129032,1.25806451612903,1.2741935483871,1.27096774193548,1.27096774193548,1.28064516129032,1.25806451612903,1.29354838709677,1.3,1.29354838709677,1.29032258064516,1.29032258064516,1.30967741935484,1.30322580645161,1.30322580645161,1.30322580645161,1.30967741935484,1.31290322580645,1.28387096774194,1.28064516129032,1.28064516129032,1.26129032258065,1.2741935483871,1.25806451612903,1.25806451612903,1.25483870967742,1.25161290322581,1.25483870967742,1.25483870967742,1.25483870967742,1.26774193548387,1.24838709677419,1.27741935483871,1.26774193548387,1.26451612903226,1.33548387096774,1.52258064516129,1.74193548387097,1.62258064516129,1.38064516129032,1.23548387096774,1.16129032258065,1.2258064516129,1.24516129032258,1.26451612903226,1.29354838709677,1.28387096774194,1.28064516129032,1.27096774193548,1.28709677419355,1.28387096774194,1.26129032258065,1.27096774193548,1.29032258064516,1.2741935483871,1.28709677419355,1.28709677419355,1.29677419354839,1.29032258064516,1.3,1.3,1.32258064516129,1.29677419354839,1.32258064516129,1.30322580645161,1.31612903225806,1.32903225806452,1.32903225806452,1.33225806451613,1.32903225806452,1.34838709677419,1.34516129032258,1.34193548387097,1.33225806451613,1.35806451612903,1.35161290322581,1.34838709677419,1.34516129032258,1.34516129032258,1.32258064516129,1.31290322580645,1.30645161290323,1.30322580645161,1.30645161290323,1.28709677419355,1.28387096774194,1.30322580645161,1.28387096774194,1.29354838709677,1.28709677419355,1.28387096774194,1.28709677419355,1.27741935483871,1.27741935483871,1.30645161290323,1.28387096774194,1.28064516129032,1.25161290322581,1.28064516129032,1.29032258064516,1.28709677419355,1.29032258064516,1.28387096774194,1.29032258064516,1.28064516129032,1.28064516129032,1.28064516129032,1.29032258064516,1.28064516129032,1.25806451612903,1.29032258064516,1.27096774193548,1.29354838709677,1.2741935483871,1.27096774193548,1.28709677419355,1.28387096774194,1.28387096774194,1.2741935483871,1.29677419354839,1.27741935483871,1.29677419354839,1.27096774193548,1.28064516129032,1.29032258064516,1.28064516129032,1.29677419354839,1.28387096774194,1.29032258064516,1.30322580645161,1.3258064516129,1.30322580645161,1.32258064516129,1.29677419354839,1.32258064516129,1.31290322580645,1.32903225806452,1.31290322580645,1.31290322580645,1.29354838709677,1.28387096774194,1.2741935483871,1.26451612903226,1.25161290322581,1.27096774193548,1.26451612903226,1.28387096774194,1.26451612903226,1.28064516129032,1.26129032258065,1.2741935483871,1.28387096774194,1.28387096774194,1.25483870967742,1.25483870967742,1.3741935483871,1.60967741935484,1.77741935483871,1.56774193548387,1.35806451612903,1.20967741935484,1.20645161290323,1.26774193548387,1.28387096774194,1.28064516129032,1.29677419354839,1.29354838709677,1.29032258064516,1.27741935483871,1.28709677419355,1.28709677419355,1.28064516129032,1.2741935483871,1.3,1.28709677419355,1.3,1.28709677419355,1.28387096774194,1.3,1.29677419354839,1.31290322580645,1.32903225806452,1.32903225806452,1.32258064516129,1.32258064516129,1.33870967741935,1.32903225806452,1.35161290322581,1.35483870967742,1.34193548387097,1.34838709677419,1.36451612903226,1.35161290322581,1.35806451612903,1.36129032258065,1.37096774193548,1.36129032258065,1.34838709677419,1.34838709677419,1.33548387096774,1.32903225806452,1.32258064516129,1.30645161290323,1.29032258064516,1.30322580645161,1.29677419354839,1.28064516129032,1.29677419354839,1.28387096774194,1.28387096774194,1.28709677419355,1.28064516129032,1.27741935483871,1.28387096774194,1.2741935483871,1.2741935483871,1.2741935483871,1.27741935483871,1.25806451612903,1.27741935483871,1.27096774193548,1.26774193548387,1.28064516129032,1.28064516129032,1.26774193548387,1.25806451612903,1.2741935483871,1.29032258064516,1.2741935483871,1.2741935483871,1.26129032258065,1.2741935483871,1.25806451612903,1.27096774193548,1.25806451612903,1.25806451612903,1.27096774193548,1.26451612903226,1.27096774193548,1.27741935483871,1.27096774193548,1.26129032258065,1.27096774193548,1.26774193548387,1.2741935483871,1.3,1.28709677419355,1.29032258064516,1.29354838709677,1.30645161290323,1.31935483870968,1.3,1.30967741935484,1.3,1.32258064516129,1.29677419354839,1.3,1.29354838709677,1.27096774193548,1.26774193548387,1.26774193548387,1.24193548387097,1.2741935483871,1.25806451612903,1.25483870967742,1.23870967741935,1.24516129032258,1.26129032258065,1.26129032258065,1.24838709677419,1.27096774193548,1.26451612903226,1.24838709677419,1.28709677419355,1.40967741935484,1.68709677419355,1.81935483870968,1.56451612903226,1.35161290322581,1.16774193548387,1.20322580645161,1.21935483870968,1.26774193548387,1.2741935483871,1.2741935483871,1.2741935483871,1.27741935483871,1.25161290322581,1.25806451612903,1.28064516129032,1.27096774193548,1.26774193548387,1.27741935483871,1.27741935483871,1.29354838709677,1.3,1.3,1.29032258064516,1.28387096774194,1.29677419354839,1.31612903225806,1.32258064516129,1.3258064516129,1.33870967741935,1.32258064516129,1.34838709677419,1.35161290322581,1.34193548387097,1.35483870967742,1.36451612903226,1.37096774193548,1.36774193548387,1.3741935483871,1.35161290322581,1.36451612903226,1.36129032258065,1.36774193548387,1.34193548387097,1.3258064516129,1.32258064516129,1.33548387096774,1.29677419354839,1.29677419354839,1.30967741935484,1.30322580645161,1.29677419354839,1.29032258064516,1.3,1.28709677419355,1.28709677419355,1.27741935483871,1.2741935483871,1.28709677419355,1.28709677419355,1.28064516129032,1.28064516129032,1.28064516129032,1.24838709677419,1.25806451612903,1.26129032258065,1.28709677419355,1.26129032258065,1.26129032258065,1.26129032258065,1.26774193548387,1.28064516129032,1.2741935483871,1.27741935483871,1.2741935483871,1.26129032258065,1.25806451612903,1.26129032258065,1.26129032258065,1.28387096774194,1.27096774193548,1.27096774193548,1.27741935483871,1.28709677419355,1.26774193548387,1.2741935483871,1.28387096774194,1.28064516129032,1.28064516129032,1.30322580645161,1.30645161290323,1.30967741935484,1.31612903225806,1.29677419354839,1.30645161290323,1.31612903225806,1.31290322580645,1.30645161290323,1.26774193548387,1.28064516129032,1.25806451612903,1.26129032258065,1.25806451612903,1.24838709677419,1.28064516129032,1.27096774193548,1.24193548387097,1.28064516129032,1.26774193548387,1.2741935483871,1.26129032258065,1.27096774193548,1.26129032258065,1.29677419354839,1.39354838709677,1.63548387096774,1.78709677419355,1.56774193548387,1.3,1.1741935483871,1.19032258064516,1.23225806451613,1.24516129032258,1.26774193548387,1.28064516129032,1.28387096774194,1.28064516129032,1.26129032258065,1.28387096774194,1.29032258064516,1.28064516129032,1.29354838709677,1.2741935483871,1.29354838709677,1.29032258064516,1.28709677419355,1.29677419354839,1.30322580645161,1.31290322580645,1.30322580645161,1.31935483870968,1.33548387096774,1.3258064516129,1.34193548387097,1.32258064516129,1.31612903225806,1.33870967741935,1.35161290322581,1.33548387096774,1.35806451612903,1.37096774193548,1.36129032258065,1.36774193548387,1.36129032258065,1.35483870967742,1.34516129032258,1.34516129032258,1.33870967741935,1.31290322580645,1.31935483870968,1.3258064516129,1.29354838709677,1.29677419354839,1.29032258064516,1.28709677419355,1.29677419354839,1.29032258064516,1.27741935483871,1.28709677419355,1.26774193548387,1.29032258064516,1.27741935483871,1.28064516129032,1.28709677419355,1.29354838709677,1.28709677419355,1.29032258064516,1.28064516129032,1.27741935483871,1.25161290322581,1.28064516129032,1.28709677419355,1.28709677419355,1.29354838709677,1.26451612903226,1.27741935483871,1.28064516129032,1.27741935483871,1.26129032258065,1.2741935483871,1.28064516129032,1.28709677419355,1.2741935483871,1.27741935483871,1.29354838709677,1.26774193548387,1.28064516129032,1.2741935483871,1.26774193548387,1.29032258064516,1.27741935483871,1.28709677419355,1.2741935483871,1.2741935483871,1.3,1.30322580645161,1.30967741935484,1.30645161290323,1.30322580645161,1.31935483870968,1.31290322580645,1.30322580645161,1.3258064516129,1.30645161290323,1.29354838709677,1.30645161290323,1.3,1.28064516129032,1.27096774193548,1.25483870967742,1.2741935483871,1.26451612903226,1.26129032258065,1.28387096774194,1.26129032258065,1.25806451612903,1.25806451612903,1.26451612903226,1.28064516129032,1.29032258064516,1.25483870967742,1.31290322580645,1.50322580645161,1.71612903225806,1.66774193548387,1.40645161290323,1.24193548387097,1.1741935483871,1.23225806451613,1.26774193548387,1.28387096774194,1.27741935483871,1.3,1.28387096774194,1.28064516129032,1.27096774193548,1.27741935483871,1.29032258064516,1.2741935483871,1.28387096774194,1.28064516129032,1.3,1.29677419354839,1.29354838709677,1.29354838709677,1.29354838709677,1.30645161290323,1.30967741935484,1.3258064516129,1.32258064516129,1.31935483870968,1.33225806451613,1.32903225806452,1.33225806451613,1.32903225806452,1.34838709677419,1.36774193548387,1.35161290322581,1.34193548387097,1.35806451612903,1.36129032258065,1.35483870967742,1.34193548387097,1.34838709677419,1.33225806451613,1.33548387096774,1.30967741935484,1.31935483870968,1.3,1.30967741935484,1.30645161290323,1.27741935483871,1.27741935483871,1.29354838709677,1.3,1.27741935483871,1.2741935483871,1.28387096774194,1.28064516129032,1.2741935483871,1.26129032258065,1.28064516129032,1.26774193548387,1.27741935483871,1.27741935483871,1.26451612903226,1.26451612903226,1.26451612903226,1.26451612903226,1.28387096774194,1.27741935483871,1.27741935483871,1.27096774193548,1.27096774193548,1.26451612903226,1.26774193548387,1.29032258064516,1.28064516129032,1.27741935483871,1.25483870967742,1.28064516129032,1.28709677419355,1.27741935483871,1.28064516129032,1.2741935483871,1.28387096774194,1.28709677419355,1.27096774193548,1.28387096774194,1.28064516129032,1.28709677419355,1.27741935483871,1.28709677419355,1.3,1.28387096774194,1.29677419354839,1.31612903225806,1.30322580645161,1.31935483870968,1.31612903225806,1.28709677419355,1.32903225806452,1.30645161290323,1.30322580645161,1.30645161290323,1.28709677419355,1.28387096774194,1.25806451612903,1.26451612903226,1.2741935483871,1.26451612903226,1.25806451612903,1.26774193548387,1.24193548387097,1.26129032258065,1.26451612903226,1.26451612903226,1.26451612903226,1.27741935483871,1.27096774193548,1.26774193548387,1.33548387096774,1.56129032258065,1.76129032258065,1.62258064516129,1.36774193548387,1.23548387096774,1.18387096774194,1.25806451612903,1.2741935483871,1.28064516129032,1.28709677419355,1.28064516129032,1.29354838709677,1.2741935483871,1.28064516129032,1.28709677419355,1.28064516129032,1.28064516129032,1.28064516129032,1.26774193548387,1.29354838709677,1.29677419354839,1.29354838709677,1.30645161290323,1.30645161290323,1.31612903225806,1.31290322580645,1.33225806451613,1.33870967741935,1.30322580645161,1.33548387096774,1.34193548387097,1.32903225806452,1.34516129032258,1.34193548387097,1.35161290322581,1.35483870967742,1.36774193548387,1.36774193548387,1.35483870967742,1.36451612903226,1.38064516129032,1.35806451612903,1.33548387096774,1.34516129032258,1.31612903225806,1.31290322580645,1.32258064516129,1.3,1.29354838709677,1.32258064516129,1.29677419354839,1.28387096774194,1.28387096774194,1.28387096774194,1.28387096774194,1.28387096774194,1.2741935483871,1.27741935483871,1.28709677419355,1.28064516129032,1.26774193548387,1.28064516129032,1.28064516129032,1.25806451612903,1.29032258064516,1.26451612903226,1.26451612903226,1.2741935483871,1.27096774193548,1.26774193548387,1.26774193548387,1.25161290322581,1.27096774193548,1.27096774193548,1.26774193548387,1.26451612903226,1.27096774193548,1.2741935483871,1.27096774193548,1.25483870967742,1.25483870967742,1.28709677419355,1.25806451612903,1.29032258064516,1.28709677419355,1.27096774193548,1.27096774193548,1.2741935483871,1.29354838709677,1.2741935483871,1.30645161290323,1.28709677419355,1.29354838709677,1.30967741935484,1.32258064516129,1.32258064516129,1.30645161290323,1.3258064516129,1.30967741935484,1.29354838709677,1.28064516129032,1.2741935483871,1.27096774193548,1.24516129032258,1.25806451612903,1.2741935483871,1.26451612903226,1.25161290322581,1.23870967741935,1.25806451612903,1.25161290322581,1.27096774193548,1.27741935483871,1.26451612903226,1.28064516129032,1.25806451612903,1.30322580645161,1.45483870967742,1.69354838709677,1.79354838709677,1.51290322580645,1.2741935483871,1.17096774193548,1.18064516129032,1.22258064516129,1.24516129032258,1.25483870967742,1.27096774193548,1.27741935483871,1.26129032258065,1.26774193548387,1.28064516129032,1.27741935483871,1.28387096774194,1.2741935483871,1.26774193548387,1.27096774193548,1.29032258064516,1.29677419354839,1.30645161290323,1.29677419354839,1.3,1.30645161290323,1.33548387096774,1.31290322580645,1.3258064516129,1.33870967741935,1.34838709677419,1.32903225806452,1.34193548387097,1.34516129032258,1.33548387096774,1.36451612903226,1.34838709677419,1.39354838709677,1.35483870967742,1.36774193548387,1.34516129032258,1.35806451612903,1.36129032258065,1.36129032258065,1.33548387096774,1.31290322580645,1.3258064516129,1.30322580645161,1.3,1.29677419354839,1.28387096774194,1.29032258064516,1.29354838709677,1.29032258064516,1.30322580645161,1.28709677419355,1.27096774193548,1.26774193548387,1.29354838709677,1.2741935483871,1.30645161290323,1.28709677419355,1.27741935483871,1.28064516129032,1.28064516129032,1.28064516129032,1.27741935483871,1.28387096774194,1.28387096774194,1.28064516129032,1.2741935483871,1.29354838709677,1.27741935483871,1.26451612903226,1.29032258064516,1.26129032258065,1.2741935483871,1.28387096774194,1.28064516129032,1.26774193548387,1.26451612903226,1.27096774193548,1.27096774193548,1.2741935483871,1.2741935483871,1.28064516129032,1.27741935483871,1.29677419354839,1.29354838709677,1.3,1.29677419354839,1.29354838709677,1.30322580645161,1.30645161290323,1.32903225806452,1.30967741935484,1.31612903225806,1.30967741935484,1.31290322580645,1.30322580645161,1.2741935483871,1.27741935483871,1.2741935483871,1.26129032258065,1.26451612903226,1.27096774193548,1.27096774193548,1.26451612903226,1.26129032258065,1.27096774193548,1.25806451612903,1.26451612903226,1.27096774193548,1.29032258064516,1.25483870967742,1.27741935483871,1.38387096774194,1.61290322580645,1.78387096774194,1.56451612903226,1.33548387096774,1.19677419354839,1.19677419354839,1.24193548387097,1.26451612903226,1.28709677419355,1.27096774193548,1.29677419354839,1.27741935483871,1.28064516129032,1.27096774193548,1.25806451612903,1.29354838709677,1.2741935483871,1.28387096774194,1.28387096774194,1.29354838709677,1.27741935483871,1.3,1.30322580645161,1.3,1.31290322580645,1.3,1.32258064516129,1.33225806451613,1.32903225806452,1.32903225806452,1.34193548387097,1.33870967741935,1.34838709677419,1.34838709677419,1.35483870967742,1.34193548387097,1.36129032258065,1.35483870967742,1.37096774193548,1.36129032258065,1.34838709677419,1.35161290322581,1.33548387096774,1.33870967741935,1.30967741935484,1.3258064516129,1.30645161290323,1.31612903225806,1.28709677419355,1.29354838709677,1.27096774193548,1.29354838709677,1.28064516129032,1.29354838709677,1.28064516129032,1.2741935483871,1.26774193548387,1.28709677419355,1.25806451612903,1.25806451612903,1.28064516129032,1.28064516129032,1.26774193548387,1.28709677419355,1.2741935483871,1.27096774193548,1.26774193548387,1.26774193548387,1.25806451612903,1.26774193548387,1.27741935483871,1.27741935483871,1.2741935483871,1.27096774193548,1.26129032258065,1.26774193548387,1.26774193548387,1.26129032258065,1.25161290322581,1.26451612903226,1.27096774193548,1.27741935483871,1.25806451612903,1.28709677419355,1.26129032258065,1.26774193548387,1.27741935483871,1.26774193548387,1.26774193548387,1.2741935483871,1.2741935483871,1.28387096774194,1.29032258064516,1.29354838709677,1.30967741935484,1.31612903225806,1.3,1.30322580645161,1.28709677419355,1.31935483870968,1.29677419354839,1.30645161290323,1.28709677419355,1.27741935483871,1.28064516129032,1.24838709677419,1.24516129032258,1.26774193548387,1.25483870967742,1.26451612903226,1.25806451612903,1.27741935483871,1.25806451612903,1.2741935483871,1.25806451612903,1.27096774193548,1.27096774193548,1.22258064516129,1.2741935483871,1.44838709677419,1.68064516129032,1.75161290322581,1.49677419354839,1.28064516129032,1.16451612903226,1.20967741935484,1.27741935483871,1.28064516129032,1.26774193548387,1.29032258064516,1.29677419354839,1.26451612903226,1.27741935483871,1.27096774193548,1.28064516129032,1.28064516129032,1.28064516129032,1.27741935483871,1.29677419354839,1.28709677419355,1.29032258064516,1.31612903225806,1.28064516129032,1.29354838709677,1.33225806451613,1.34193548387097,1.31290322580645,1.31612903225806,1.33870967741935,1.33548387096774,1.35483870967742,1.36129032258065,1.35483870967742,1.32258064516129,1.36451612903226,1.35161290322581,1.35806451612903,1.37741935483871,1.37096774193548,1.36774193548387,1.3741935483871,1.36129032258065,1.34516129032258,1.33870967741935,1.31612903225806,1.31612903225806,1.30645161290323,1.29032258064516,1.30967741935484,1.30645161290323,1.31290322580645,1.29677419354839,1.3,1.29354838709677,1.29354838709677,1.28709677419355,1.29354838709677,1.26774193548387,1.30322580645161,1.28064516129032,1.28387096774194,1.28709677419355,1.3,1.29032258064516,1.30322580645161,1.29032258064516,1.28709677419355,1.2741935483871,1.28709677419355,1.29677419354839,1.29354838709677,1.29354838709677,1.29354838709677,1.3,1.28387096774194,1.29032258064516,1.29354838709677,1.2741935483871,1.29677419354839,1.29032258064516,1.30322580645161,1.29677419354839,1.29032258064516,1.27741935483871,1.29354838709677,1.2741935483871,1.29354838709677,1.28709677419355,1.28064516129032,1.29354838709677,1.29354838709677,1.28387096774194,1.30322580645161,1.32903225806452,1.30322580645161,1.31290322580645,1.31290322580645,1.31290322580645,1.31935483870968,1.31290322580645,1.32258064516129,1.29354838709677,1.3,1.29354838709677,1.30322580645161,1.24838709677419,1.24838709677419,1.23870967741935,1.21935483870968,1.25483870967742,1.23870967741935,1.20967741935484,1.25161290322581,1.22258064516129,1.23870967741935,1.2258064516129,1.22258064516129,1.22258064516129,1.18064516129032,1.23870967741935,1.41290322580645,1.65806451612903,1.69354838709677
1.3258064516129,1.29354838709677,1.30322580645161,1.30645161290323,1.29677419354839,1.28709677419355,1.29032258064516,1.29032258064516,1.3,1.24838709677419,1.29032258064516,1.27741935483871,1.25161290322581,1.25483870967742,1.26129032258065,1.26129032258065,1.27741935483871,1.25806451612903,1.25806451612903,1.26129032258065,1.27741935483871,1.26451612903226,1.26451612903226,1.26451612903226,1.25806451612903,1.26129032258065,1.27096774193548,1.26774193548387,1.2741935483871,1.24193548387097,1.2741935483871,1.26451612903226,1.26774193548387,1.29032258064516,1.26129032258065,1.26129032258065,1.26774193548387,1.27741935483871,1.27096774193548,1.2741935483871,1.26129032258065,1.28709677419355,1.29354838709677,1.3,1.30645161290323,1.28387096774194,1.28064516129032,1.29677419354839,1.30645161290323,1.30645161290323,1.31612903225806,1.29354838709677,1.31612903225806,1.29677419354839,1.28064516129032,1.28387096774194,1.26774193548387,1.24516129032258,1.25161290322581,1.26129032258065,1.24838709677419,1.26451612903226,1.25806451612903,1.24516129032258,1.27096774193548,1.26774193548387,1.27096774193548,1.29677419354839,1.25483870967742,1.2741935483871,1.35806451612903,1.58709677419355,1.81612903225806,1.66129032258065,1.35806451612903,1.21612903225806,1.16129032258065,1.19677419354839,1.25483870967742,1.26451612903226,1.26451612903226,1.28709677419355,1.27741935483871,1.27096774193548,1.26451612903226,1.27096774193548,1.26451612903226,1.28387096774194,1.28387096774194,1.28387096774194,1.29677419354839,1.30322580645161,1.30645161290323,1.31290322580645,1.31612903225806,1.32258064516129,1.32258064516129,1.32903225806452,1.31290322580645,1.34193548387097,1.34516129032258,1.3258064516129,1.34838709677419,1.35161290322581,1.36129032258065,1.35483870967742,1.3741935483871,1.38064516129032,1.3741935483871,1.37096774193548,1.36451612903226,1.38064516129032,1.35161290322581,1.34516129032258,1.34193548387097,1.33870967741935,1.31612903225806,1.32258064516129,1.30322580645161,1.3,1.29354838709677,1.29354838709677,1.29354838709677,1.27741935483871,1.27096774193548,1.29032258064516,1.28709677419355,1.29354838709677,1.28709677419355,1.27741935483871,1.28709677419355,1.28387096774194,1.26774193548387,1.26774193548387,1.28387096774194,1.25483870967742,1.30322580645161,1.29032258064516,1.26451612903226,1.26774193548387,1.28387096774194,1.27096774193548,1.25806451612903,1.27741935483871,1.29032258064516,1.26129032258065,1.25806451612903,1.28709677419355,1.2741935483871,1.26774193548387,1.25806451612903,1.27096774193548,1.27741935483871,1.28387096774194,1.29032258064516,1.25806451612903,1.28387096774194,1.27741935483871,1.28387096774194,1.29032258064516,1.28709677419355,1.3,1.31612903225806,1.3,1.31612903225806,1.31290322580645,1.31290322580645,1.28709677419355,1.28709677419355,1.2741935483871,1.26774193548387,1.25483870967742,1.25806451612903,1.26774193548387,1.24838709677419,1.24838709677419,1.26129032258065,1.24838709677419,1.26129032258065,1.27096774193548,1.25806451612903,1.26129032258065,1.28387096774194,1.24838709677419,1.29677419354839,1.4741935483871,1.70967741935484,1.73870967741935,1.47741935483871,1.27096774193548,1.15161290322581,1.2,1.24838709677419,1.27096774193548,1.28064516129032,1.27741935483871,1.29032258064516,1.29354838709677,1.28387096774194,1.26774193548387,1.25806451612903,1.28064516129032,1.28709677419355,1.29032258064516,1.28064516129032,1.28709677419355,1.28387096774194,1.30322580645161,1.30645161290323,1.30322580645161,1.30645161290323,1.32903225806452,1.30967741935484,1.3258064516129,1.3258064516129,1.34193548387097,1.35483870967742,1.33225806451613,1.34838709677419,1.34516129032258,1.34193548387097,1.35806451612903,1.36129032258065,1.34516129032258,1.35806451612903,1.3741935483871,1.36129032258065,1.33548387096774,1.32903225806452,1.33225806451613,1.31935483870968,1.3,1.3,1.3,1.29677419354839,1.3,1.28709677419355,1.27741935483871,1.28709677419355,1.2741935483871,1.27741935483871,1.28387096774194,1.29354838709677,1.28709677419355,1.27096774193548,1.27096774193548,1.26451612903226,1.28064516129032,1.28064516129032,1.27096774193548,1.2741935483871,1.28387096774194,1.28387096774194,1.27741935483871,1.28064516129032,1.27096774193548,1.27096774193548,1.27741935483871,1.2741935483871,1.28709677419355,1.2741935483871,1.26451612903226,1.27096774193548,1.28387096774194,1.27096774193548,1.29677419354839,1.2741935483871,1.2741935483871,1.27741935483871,1.26774193548387,1.2741935483871,1.2741935483871,1.28709677419355,1.29032258064516,1.29354838709677,1.30645161290323,1.29677419354839,1.31612903225806,1.30967741935484,1.30967741935484,1.29354838709677,1.32258064516129,1.31612903225806,1.29354838709677,1.30322580645161,1.2741935483871,1.2741935483871,1.2741935483871,1.26451612903226,1.27741935483871,1.26774193548387,1.24516129032258,1.25161290322581,1.24516129032258,1.26129032258065,1.27741935483871,1.27096774193548,1.28387096774194,1.27741935483871,1.23548387096774,1.26774193548387,1.41290322580645,1.64838709677419,1.78387096774194,1.53870967741935,1.29677419354839,1.20322580645161,1.21935483870968,1.25161290322581,1.2741935483871,1.2741935483871,1.28387096774194,1.2741935483871,1.28709677419355,1.26451612903226,1.26774193548387,1.28387096774194,1.30322580645161,1.29032258064516,1.28709677419355,1.29032258064516,1.2741935483871,1.2741935483871,1.30645161290323,1.30645161290323,1.29032258064516,1.31290322580645,1.3258064516129,1.3258064516129,1.30322580645161,1.33870967741935,1.31935483870968,1.35161290322581,1.33225806451613,1.34516129032258,1.33870967741935,1.35161290322581,1.36774193548387,1.36129032258065,1.3741935483871,1.36774193548387,1.37096774193548,1.37096774193548,1.32903225806452,1.34516129032258,1.32258064516129,1.31935483870968,1.30322580645161,1.29354838709677,1.31290322580645,1.29677419354839,1.29677419354839,1.29677419354839,1.28387096774194,1.26451612903226,1.26451612903226,1.30645161290323,1.29032258064516,1.26451612903226,1.28064516129032,1.28064516129032,1.2741935483871,1.26451612903226,1.26451612903226,1.27741935483871,1.2741935483871,1.25806451612903,1.28387096774194,1.27096774193548,1.27096774193548,1.2741935483871,1.26774193548387,1.28387096774194,1.25806451612903,1.27096774193548,1.26774193548387,1.28709677419355,1.26451612903226,1.28387096774194,1.2741935483871,1.26451612903226,1.28709677419355,1.2741935483871,1.27096774193548,1.28064516129032,1.26129032258065,1.26774193548387,1.26774193548387,1.28709677419355,1.29677419354839,1.28709677419355,1.29677419354839,1.29677419354839,1.31612903225806,1.30645161290323,1.30645161290323,1.30967741935484,1.31290322580645,1.30645161290323,1.30645161290323,1.3,1.2741935483871,1.28064516129032,1.28064516129032,1.24516129032258,1.24516129032258,1.26451612903226,1.25806451612903,1.26129032258065,1.25161290322581,1.26129032258065,1.26129032258065,1.25161290322581,1.27096774193548,1.28387096774194,1.23548387096774,1.27741935483871,1.39354838709677,1.6258064516129,1.78709677419355,1.55806451612903,1.30645161290323,1.19354838709677,1.20322580645161,1.26774193548387,1.29354838709677,1.2741935483871,1.28064516129032,1.28709677419355,1.27741935483871,1.26774193548387,1.28064516129032,1.29354838709677,1.27741935483871,1.27741935483871,1.28387096774194,1.28709677419355,1.30322580645161,1.29032258064516,1.29032258064516,1.29677419354839,1.29677419354839,1.31612903225806,1.32903225806452,1.3258064516129,1.33548387096774,1.34193548387097,1.33225806451613,1.34516129032258,1.33870967741935,1.33225806451613,1.35161290322581,1.35806451612903,1.36129032258065,1.36451612903226,1.37741935483871,1.38064516129032,1.36774193548387,1.35806451612903,1.34516129032258,1.34193548387097,1.32903225806452,1.32903225806452,1.32258064516129,1.30645161290323,1.31935483870968,1.3,1.30967741935484,1.28064516129032,1.29677419354839,1.27741935483871,1.26774193548387,1.26774193548387,1.2741935483871,1.28064516129032,1.26774193548387,1.27741935483871,1.27741935483871,1.2741935483871,1.28064516129032,1.27096774193548,1.25483870967742,1.28387096774194,1.26774193548387,1.26129032258065,1.26129032258065,1.28387096774194,1.27096774193548,1.2741935483871,1.28064516129032,1.2741935483871,1.26451612903226,1.27096774193548,1.25806451612903,1.27741935483871,1.2741935483871,1.26129032258065,1.28709677419355,1.27096774193548,1.28387096774194,1.25483870967742,1.29032258064516,1.27096774193548,1.25161290322581,1.29354838709677,1.28064516129032,1.3,1.29677419354839,1.29677419354839,1.29354838709677,1.29354838709677,1.31290322580645,1.30967741935484,1.30967741935484,1.31612903225806,1.3,1.30322580645161,1.29677419354839,1.26774193548387,1.26774193548387,1.26451612903226,1.25161290322581,1.25161290322581,1.26774193548387,1.24838709677419,1.24516129032258,1.26451612903226,1.26129032258065,1.24838709677419,1.25806451612903,1.26129032258065,1.26774193548387,1.25161290322581,1.30967741935484,1.49677419354839,1.75806451612903,1.7741935483871,1.45161290322581,1.24193548387097,1.15806451612903,1.20322580645161,1.25483870967742,1.27096774193548,1.26451612903226,1.26774193548387,1.28064516129032,1.28064516129032,1.28064516129032,1.26129032258065,1.28064516129032,1.27096774193548,1.28064516129032,1.28387096774194,1.30645161290323,1.29354838709677,1.29032258064516,1.28387096774194,1.31290322580645,1.3,1.31935483870968,1.31612903225806,1.33548387096774,1.32258064516129,1.32903225806452,1.33870967741935,1.34516129032258,1.34838709677419,1.3741935483871,1.35161290322581,1.38387096774194,1.38387096774194,1.37096774193548,1.39677419354839,1.36451612903226,1.37096774193548,1.34516129032258,1.34838709677419,1.34516129032258,1.33870967741935,1.3258064516129,1.31612903225806,1.30645161290323,1.30645161290323,1.30967741935484,1.30645161290323,1.28064516129032,1.28064516129032,1.28064516129032,1.29677419354839,1.26774193548387,1.28064516129032,1.2741935483871,1.28709677419355,1.26774193548387,1.28064516129032,1.25806451612903,1.28387096774194,1.27096774193548,1.26774193548387,1.27741935483871,1.26129032258065,1.28387096774194,1.27741935483871,1.28709677419355,1.27741935483871,1.27096774193548,1.25806451612903,1.25161290322581,1.26774193548387,1.28064516129032,1.27741935483871,1.25483870967742,1.2741935483871,1.27096774193548,1.24516129032258,1.27096774193548,1.28387096774194,1.26774193548387,1.25806451612903,1.27741935483871,1.28387096774194,1.29354838709677,1.28064516129032,1.29354838709677,1.30967741935484,1.29032258064516,1.28709677419355,1.3258064516129,1.31935483870968,1.30645161290323,1.2741935483871,1.28709677419355,1.28064516129032,1.24516129032258,1.28064516129032,1.24838709677419,1.25806451612903,1.2741935483871,1.24516129032258,1.28064516129032,1.23870967741935,1.26129032258065,1.24838709677419,1.25483870967742,1.25483870967742,1.25483870967742,1.26774193548387,1.29354838709677,1.49354838709677,1.75161290322581,1.67741935483871,1.40322580645161,1.23225806451613,1.19354838709677,1.20645161290323,1.24516129032258,1.26774193548387,1.27096774193548,1.28064516129032,1.28387096774194,1.25483870967742,1.2741935483871,1.26774193548387,1.3,1.26774193548387,1.28064516129032,1.29354838709677,1.29677419354839,1.28064516129032,1.29354838709677,1.31935483870968,1.30645161290323,1.30645161290323,1.30322580645161,1.33548387096774,1.33225806451613,1.34838709677419,1.34193548387097,1.35161290322581,1.37096774193548,1.35161290322581,1.33870967741935,1.35483870967742,1.33548387096774,1.36774193548387,1.39032258064516,1.37741935483871,1.3741935483871,1.38387096774194,1.35483870967742,1.35161290322581,1.33870967741935,1.3258064516129,1.32258064516129,1.30322580645161,1.29354838709677,1.30967741935484,1.30322580645161,1.28387096774194,1.27741935483871,1.26129032258065,1.3,1.28387096774194,1.28709677419355,1.27741935483871,1.28064516129032,1.26451612903226,1.28064516129032,1.3,1.28064516129032,1.2741935483871,1.28387096774194,1.24838709677419,1.28064516129032,1.28387096774194,1.26774193548387,1.28709677419355,1.26129032258065,1.28709677419355,1.29354838709677,1.28064516129032,1.25806451612903,1.28709677419355,1.28709677419355,1.28387096774194,1.29677419354839,1.26774193548387,1.2741935483871,1.2741935483871,1.27741935483871,1.2741935483871,1.27096774193548,1.29032258064516,1.29032258064516,1.26774193548387,1.33225806451613,1.2741935483871,1.27741935483871,1.29354838709677,1.3258064516129,1.30967741935484,1.31935483870968,1.31290322580645,1.33548387096774,1.2741935483871,1.30322580645161,1.26451612903226,1.27096774193548,1.26451612903226,1.25483870967742,1.21935483870968,1.26451612903226,1.25483870967742,1.27096774193548,1.25806451612903,1.26129032258065,1.24193548387097,1.26129032258065,1.29354838709677,1.24838709677419,1.24516129032258,1.34516129032258,1.55483870967742,1.76129032258065,1.64193548387097,1.40322580645161,1.23870967741935,1.18064516129032,1.22258064516129,1.26129032258065,1.3,1.25806451612903,1.27096774193548,1.28064516129032,1.28709677419355,1.29032258064516,1.26451612903226,1.29032258064516,1.29354838709677,1.28709677419355,1.28064516129032,1.27096774193548,1.27096774193548,1.3,1.29677419354839,1.28709677419355,1.32258064516129,1.29677419354839,1.3258064516129,1.31935483870968,1.32903225806452,1.33225806451613,1.35161290322581,1.35806451612903,1.32903225806452,1.36129032258065,1.33870967741935,1.36774193548387,1.35806451612903,1.36129032258065,1.3741935483871,1.35483870967742,1.34516129032258,1.35483870967742,1.34193548387097,1.31290322580645,1.34193548387097,1.31935483870968,1.30645161290323,1.29677419354839,1.27096774193548,1.28709677419355,1.28387096774194,1.29677419354839,1.27096774193548,1.30645161290323,1.26129032258065,1.27096774193548,1.26129032258065,1.27741935483871,1.26774193548387,1.25806451612903,1.26451612903226,1.26774193548387,1.27096774193548,1.26451612903226,1.24193548387097,1.27741935483871,1.27741935483871,1.28064516129032,1.26129032258065,1.26129032258065,1.28064516129032,1.29677419354839,1.26451612903226,1.27741935483871,1.25161290322581,1.26129032258065,1.25161290322581,1.26129032258065,1.27741935483871,1.24193548387097,1.28387096774194,1.26451612903226,1.29032258064516,1.26451612903226,1.27096774193548,1.25806451612903,1.28709677419355,1.28064516129032,1.29032258064516,1.30645161290323,1.29354838709677,1.31290322580645,1.30322580645161,1.29032258064516,1.33548387096774,1.30322580645161,1.30967741935484,1.30645161290323,1.26451612903226,1.26451612903226,1.26774193548387,1.24516129032258,1.25161290322581,1.26451612903226,1.25161290322581,1.24516129032258,1.25806451612903,1.28387096774194,1.27096774193548,1.25161290322581,1.25806451612903,1.27741935483871,1.25161290322581,1.30322580645161,1.44193548387097,1.73870967741935,1.82258064516129,1.54516129032258,1.31290322580645,1.13548387096774,1.2,1.25161290322581,1.26129032258065,1.25483870967742,1.28064516129032,1.31935483870968,1.28387096774194,1.27096774193548,1.26451612903226,1.28387096774194,1.2741935483871,1.27096774193548,1.28387096774194,1.30967741935484,1.29354838709677,1.30967741935484,1.3,1.30322580645161,1.31612903225806,1.31612903225806,1.31935483870968,1.32258064516129,1.31935483870968,1.34193548387097,1.36774193548387,1.33225806451613,1.3741935483871,1.35161290322581,1.3741935483871,1.36129032258065,1.36774193548387,1.37741935483871,1.39354838709677,1.39032258064516,1.36774193548387,1.37096774193548,1.36451612903226,1.33870967741935,1.34516129032258,1.34193548387097,1.31290322580645,1.30645161290323,1.29354838709677,1.30645161290323,1.30322580645161,1.28387096774194,1.27741935483871,1.30322580645161,1.27741935483871,1.29354838709677,1.26129032258065,1.28064516129032,1.27741935483871,1.28709677419355,1.2741935483871,1.27741935483871,1.29032258064516,1.26451612903226,1.28387096774194,1.28709677419355,1.28064516129032,1.26129032258065,1.26129032258065,1.25161290322581,1.26451612903226,1.27096774193548,1.27096774193548,1.28387096774194,1.28387096774194,1.26451612903226,1.26129032258065,1.26774193548387,1.25483870967742,1.26774193548387,1.26774193548387,1.26451612903226,1.27096774193548,1.25806451612903,1.27741935483871,1.30645161290323,1.28387096774194,1.28064516129032,1.27741935483871,1.30967741935484,1.30967741935484,1.27741935483871,1.31612903225806,1.30967741935484,1.29032258064516,1.29677419354839,1.26774193548387,1.26451612903226,1.23870967741935,1.25483870967742,1.26451612903226,1.23870967741935,1.24516129032258,1.25161290322581,1.27096774193548,1.25161290322581,1.24516129032258,1.24516129032258,1.27096774193548,1.28064516129032,1.25483870967742,1.26129032258065,1.37096774193548,1.58387096774194,1.7741935483871,1.61612903225806,1.36451612903226,1.2,1.15806451612903,1.2258064516129,1.25806451612903,1.29032258064516,1.26774193548387,1.28387096774194,1.27741935483871,1.27096774193548,1.2741935483871,1.26451612903226,1.29354838709677,1.2741935483871,1.26774193548387,1.27096774193548,1.28709677419355,1.28709677419355,1.29354838709677,1.30645161290323,1.3,1.32903225806452,1.28387096774194,1.31935483870968,1.32258064516129,1.33870967741935,1.32258064516129,1.33870967741935,1.35161290322581,1.34193548387097,1.34838709677419,1.36129032258065,1.35806451612903,1.37741935483871,1.35483870967742,1.36129032258065,1.34838709677419,1.35161290322581,1.35483870967742,1.32258064516129,1.32258064516129,1.31612903225806,1.31612903225806,1.3258064516129,1.3,1.29677419354839,1.3258064516129,1.29032258064516,1.27741935483871,1.26774193548387,1.28709677419355,1.29032258064516,1.2741935483871,1.29032258064516,1.26129032258065,1.26451612903226,1.29677419354839,1.28387096774194,1.29677419354839,1.27741935483871,1.28064516129032,1.2741935483871,1.25806451612903,1.28064516129032,1.27741935483871,1.26774193548387,1.28709677419355,1.27741935483871,1.26451612903226,1.28387096774194,1.28064516129032,1.28387096774194,1.26774193548387,1.25161290322581,1.3,1.28709677419355,1.26451612903226,1.25806451612903,1.26451612903226,1.29032258064516,1.28387096774194,1.28387096774194,1.28709677419355,1.28387096774194,1.30967741935484,1.28709677419355,1.28064516129032,1.30645161290323,1.31612903225806,1.30645161290323,1.31612903225806,1.32258064516129,1.31612903225806,1.31290322580645,1.30967741935484,1.26774193548387,1.26774193548387,1.28064516129032,1.25806451612903,1.24193548387097,1.25806451612903,1.25806451612903,1.26774193548387,1.26129032258065,1.2741935483871,1.26774193548387,1.25161290322581,1.25806451612903,1.26774193548387,1.24838709677419,1.24193548387097,1.31935483870968,1.53870967741935,1.76451612903226,1.65806451612903,1.41935483870968,1.2258064516129,1.17741935483871,1.24193548387097,1.2741935483871,1.29677419354839,1.29354838709677,1.2741935483871,1.29032258064516,1.28064516129032,1.26774193548387,1.26129032258065,1.26774193548387,1.28387096774194,1.29354838709677,1.28709677419355,1.29032258064516,1.28064516129032,1.30645161290323,1.3,1.28709677419355,1.3,1.32258064516129,1.32258064516129,1.30967741935484,1.33225806451613,1.34193548387097,1.34193548387097,1.33225806451613,1.31935483870968,1.35161290322581,1.37096774193548,1.36129032258065,1.37096774193548,1.36451612903226,1.36774193548387,1.3741935483871,1.32903225806452,1.36451612903226,1.35806451612903,1.3258064516129,1.32903225806452,1.32258064516129,1.31612903225806,1.29354838709677,1.30967741935484,1.29354838709677,1.29677419354839,1.28387096774194,1.29354838709677,1.27096774193548,1.27741935483871,1.28064516129032,1.24516129032258,1.2741935483871,1.3,1.27096774193548,1.28064516129032,1.27741935483871,1.2741935483871,1.23225806451613,1.26774193548387,1.28064516129032,1.2741935483871,1.25806451612903,1.26451612903226,1.28064516129032,1.27096774193548,1.27741935483871,1.27741935483871,1.28064516129032,1.26774193548387,1.25806451612903,1.3,1.28064516129032,1.27741935483871,1.26451612903226,1.27096774193548,1.28064516129032,1.26129032258065,1.25806451612903,1.2741935483871,1.29032258064516,1.30322580645161,1.30322580645161,1.31612903225806,1.30967741935484,1.30645161290323,1.32258064516129,1.31935483870968,1.32258064516129,1.33225806451613,1.33225806451613,1.30967741935484,1.30645161290323,1.28387096774194,1.25483870967742,1.23548387096774,1.27741935483871,1.27741935483871,1.24193548387097,1.25806451612903,1.29354838709677,1.26451612903226,1.25483870967742,1.28064516129032,1.27096774193548,1.25806451612903,1.26129032258065,1.25161290322581,1.37096774193548,1.61612903225806,1.81290322580645,1.66451612903226,1.40322580645161,1.23225806451613,1.19032258064516,1.21935483870968,1.24516129032258,1.26451612903226,1.28709677419355,1.28064516129032,1.26129032258065,1.25483870967742,1.2741935483871,1.25806451612903,1.28064516129032,1.26451612903226,1.29354838709677,1.28387096774194,1.27741935483871,1.28709677419355,1.28709677419355,1.26451612903226,1.28709677419355,1.29354838709677,1.31612903225806,1.28064516129032,1.3,1.31612903225806,1.30967741935484,1.3258064516129,1.31935483870968
1.33870967741935,1.31612903225806,1.31612903225806,1.31935483870968,1.30322580645161,1.29354838709677,1.3,1.29677419354839,1.29677419354839,1.28064516129032,1.29032258064516,1.2741935483871,1.29354838709677,1.3,1.2741935483871,1.3,1.26774193548387,1.2741935483871,1.28387096774194,1.2741935483871,1.27741935483871,1.28709677419355,1.28709677419355,1.27096774193548,1.26451612903226,1.26451612903226,1.28064516129032,1.30967741935484,1.29354838709677,1.27096774193548,1.28064516129032,1.27096774193548,1.27096774193548,1.27741935483871,1.26774193548387,1.29032258064516,1.26774193548387,1.29032258064516,1.2741935483871,1.27741935483871,1.3,1.27096774193548,1.30322580645161,1.28387096774194,1.30322580645161,1.30322580645161,1.30645161290323,1.30322580645161,1.30645161290323,1.3258064516129,1.30645161290323,1.33225806451613,1.33870967741935,1.32258064516129,1.28387096774194,1.29032258064516,1.29032258064516,1.26451612903226,1.25161290322581,1.2741935483871,1.27741935483871,1.26129032258065,1.27741935483871,1.25806451612903,1.2741935483871,1.26451612903226,1.27741935483871,1.25483870967742,1.28709677419355,1.23548387096774,1.28387096774194,1.44516129032258,1.66774193548387,1.78387096774194,1.51290322580645,1.28709677419355,1.17096774193548,1.20967741935484,1.25806451612903,1.29032258064516,1.29677419354839,1.29032258064516,1.28387096774194,1.28064516129032,1.27096774193548,1.26129032258065,1.28709677419355,1.27741935483871,1.28064516129032,1.29354838709677,1.29032258064516,1.27096774193548,1.30645161290323,1.29032258064516,1.30322580645161,1.28709677419355,1.31935483870968,1.32903225806452,1.31290322580645,1.34516129032258,1.34838709677419,1.33225806451613,1.35161290322581,1.34838709677419,1.31935483870968,1.34193548387097,1.38387096774194,1.35806451612903,1.3741935483871,1.3741935483871,1.36129032258065,1.37741935483871,1.36129032258065,1.33225806451613,1.33225806451613,1.34516129032258,1.3258064516129,1.32903225806452,1.3,1.29354838709677,1.30967741935484,1.30967741935484,1.28709677419355,1.31290322580645,1.28064516129032,1.28064516129032,1.26451612903226,1.26129032258065,1.28387096774194,1.26129032258065,1.28709677419355,1.28064516129032,1.25483870967742,1.28064516129032,1.2741935483871,1.25483870967742,1.25806451612903,1.27741935483871,1.26451612903226,1.29032258064516,1.25161290322581,1.26451612903226,1.27096774193548,1.25806451612903,1.25483870967742,1.26451612903226,1.28387096774194,1.26451612903226,1.25806451612903,1.28387096774194,1.28709677419355,1.28064516129032,1.26774193548387,1.25806451612903,1.2741935483871,1.28064516129032,1.26774193548387,1.29032258064516,1.28387096774194,1.29354838709677,1.30967741935484,1.28709677419355,1.29354838709677,1.31935483870968,1.30645161290323,1.29354838709677,1.31612903225806,1.31612903225806,1.29677419354839,1.24838709677419,1.26129032258065,1.26774193548387,1.26451612903226,1.26774193548387,1.23870967741935,1.25483870967742,1.25806451612903,1.24838709677419,1.26774193548387,1.25161290322581,1.25161290322581,1.26451612903226,1.27096774193548,1.23870967741935,1.28387096774194,1.43548387096774,1.67096774193548,1.80967741935484,1.56451612903226,1.29354838709677,1.15806451612903,1.1741935483871,1.21612903225806,1.24193548387097,1.26774193548387,1.2741935483871,1.29032258064516,1.2741935483871,1.26774193548387,1.2741935483871,1.2741935483871,1.27096774193548,1.28064516129032,1.27741935483871,1.28709677419355,1.29677419354839,1.30967741935484,1.30322580645161,1.3,1.29354838709677,1.31290322580645,1.31935483870968,1.31612903225806,1.31290322580645,1.32903225806452,1.34516129032258,1.32903225806452,1.34193548387097,1.34193548387097,1.36451612903226,1.35806451612903,1.35483870967742,1.37096774193548,1.37741935483871,1.3741935483871,1.36451612903226,1.36129032258065,1.34193548387097,1.33870967741935,1.34193548387097,1.30967741935484,1.31290322580645,1.30322580645161,1.3,1.30645161290323,1.29354838709677,1.28064516129032,1.29354838709677,1.26774193548387,1.29032258064516,1.27741935483871,1.29677419354839,1.28709677419355,1.27741935483871,1.29677419354839,1.28387096774194,1.26129032258065,1.29032258064516,1.28064516129032,1.25806451612903,1.27096774193548,1.26774193548387,1.29354838709677,1.25806451612903,1.28709677419355,1.27096774193548,1.26774193548387,1.28709677419355,1.27741935483871,1.27741935483871,1.26774193548387,1.28387096774194,1.2741935483871,1.2741935483871,1.25483870967742,1.26774193548387,1.2741935483871,1.26129032258065,1.27096774193548,1.28064516129032,1.3,1.28709677419355,1.30322580645161,1.3,1.3,1.30645161290323,1.31612903225806,1.3,1.32258064516129,1.33548387096774,1.28709677419355,1.29677419354839,1.28387096774194,1.28387096774194,1.25161290322581,1.27741935483871,1.25806451612903,1.26774193548387,1.24838709677419,1.25806451612903,1.2741935483871,1.24193548387097,1.26451612903226,1.26451612903226,1.27096774193548,1.26451612903226,1.26129032258065,1.2741935483871,1.38064516129032,1.61935483870968,1.77096774193548,1.56451612903226,1.32258064516129,1.19354838709677,1.17096774193548,1.23225806451613,1.26129032258065,1.28709677419355,1.28709677419355,1.29354838709677,1.2741935483871,1.27096774193548,1.2741935483871,1.28387096774194,1.27741935483871,1.26774193548387,1.29032258064516,1.29354838709677,1.29677419354839,1.3,1.29354838709677,1.31290322580645,1.30322580645161,1.31612903225806,1.30322580645161,1.30967741935484,1.30967741935484,1.34516129032258,1.33870967741935,1.34193548387097,1.33870967741935,1.36129032258065,1.34193548387097,1.34838709677419,1.35483870967742,1.36129032258065,1.35806451612903,1.36451612903226,1.36129032258065,1.35806451612903,1.36774193548387,1.31935483870968,1.3258064516129,1.3,1.31612903225806,1.29032258064516,1.28709677419355,1.3,1.29677419354839,1.26774193548387,1.28709677419355,1.27096774193548,1.28709677419355,1.28709677419355,1.2741935483871,1.27741935483871,1.29032258064516,1.28064516129032,1.25483870967742,1.27741935483871,1.28064516129032,1.28387096774194,1.27096774193548,1.28387096774194,1.27741935483871,1.27096774193548,1.2741935483871,1.28387096774194,1.29354838709677,1.24516129032258,1.2741935483871,1.26774193548387,1.26451612903226,1.26774193548387,1.28709677419355,1.26451612903226,1.28387096774194,1.2741935483871,1.2741935483871,1.26129032258065,1.27741935483871,1.25161290322581,1.28064516129032,1.2741935483871,1.28064516129032,1.28064516129032,1.3,1.30967741935484,1.30967741935484,1.31612903225806,1.30645161290323,1.32258064516129,1.31935483870968,1.31935483870968,1.30645161290323,1.31935483870968,1.30322580645161,1.28064516129032,1.25483870967742,1.25161290322581,1.2741935483871,1.29032258064516,1.26774193548387,1.2741935483871,1.24193548387097,1.26774193548387,1.27741935483871,1.26129032258065,1.2741935483871,1.26129032258065,1.29354838709677,1.23870967741935,1.30645161290323,1.44838709677419,1.70322580645161,1.72903225806452,1.46451612903226,1.26129032258065,1.18064516129032,1.21290322580645,1.26451612903226,1.2741935483871,1.26451612903226,1.29677419354839,1.29032258064516,1.27096774193548,1.26451612903226,1.28387096774194,1.2741935483871,1.29354838709677,1.28064516129032,1.28064516129032,1.2741935483871,1.28709677419355,1.29354838709677,1.32258064516129,1.30322580645161,1.31290322580645,1.30645161290323,1.31935483870968,1.31612903225806,1.33225806451613,1.33548387096774,1.35483870967742,1.32258064516129,1.33225806451613,1.35483870967742,1.35806451612903,1.33548387096774,1.3741935483871,1.37096774193548,1.35161290322581,1.34193548387097,1.34838709677419,1.36129032258065,1.35483870967742,1.33548387096774,1.3258064516129,1.33548387096774,1.32258064516129,1.28387096774194,1.30645161290323,1.29032258064516,1.29354838709677,1.29354838709677,1.25806451612903,1.27741935483871,1.28709677419355,1.28064516129032,1.28064516129032,1.28064516129032,1.27096774193548,1.2741935483871,1.28709677419355,1.26451612903226,1.27096774193548,1.26451612903226,1.25483870967742,1.28064516129032,1.28387096774194,1.26774193548387,1.27741935483871,1.26451612903226,1.2741935483871,1.26774193548387,1.28064516129032,1.26451612903226,1.27741935483871,1.26129032258065,1.26774193548387,1.27096774193548,1.27096774193548,1.27096774193548,1.24838709677419,1.26774193548387,1.27741935483871,1.29032258064516,1.26774193548387,1.29032258064516,1.28709677419355,1.29032258064516,1.29032258064516,1.28387096774194,1.30322580645161,1.31290322580645,1.32903225806452,1.30645161290323,1.3258064516129,1.30967741935484,1.31935483870968,1.32903225806452,1.27741935483871,1.27096774193548,1.24838709677419,1.27741935483871,1.26129032258065,1.2741935483871,1.26129032258065,1.24838709677419,1.26774193548387,1.2741935483871,1.26774193548387,1.26774193548387,1.26451612903226,1.26451612903226,1.24838709677419,1.28064516129032,1.3741935483871,1.59354838709677,1.79032258064516,1.5741935483871,1.34193548387097,1.20967741935484,1.18387096774194,1.21935483870968,1.2741935483871,1.26774193548387,1.28709677419355,1.29354838709677,1.28709677419355,1.25483870967742,1.27096774193548,1.26774193548387,1.28064516129032,1.28709677419355,1.28387096774194,1.28387096774194,1.2741935483871,1.31935483870968,1.30322580645161,1.28387096774194,1.3,1.31612903225806,1.29677419354839,1.31935483870968,1.33225806451613,1.33870967741935,1.35806451612903,1.33225806451613,1.35161290322581,1.35483870967742,1.35161290322581,1.35806451612903,1.34193548387097,1.36451612903226,1.37096774193548,1.37096774193548,1.37096774193548,1.36774193548387,1.36129032258065,1.35483870967742,1.29032258064516,1.3258064516129,1.31612903225806,1.31290322580645,1.30645161290323,1.29677419354839,1.28387096774194,1.30322580645161,1.29354838709677,1.26774193548387,1.2741935483871,1.2741935483871,1.24838709677419,1.29677419354839,1.28387096774194,1.28709677419355,1.27741935483871,1.26129032258065,1.26129032258065,1.27741935483871,1.25161290322581,1.25483870967742,1.23870967741935,1.27096774193548,1.28064516129032,1.28064516129032,1.26129032258065,1.26774193548387,1.25161290322581,1.26774193548387,1.2741935483871,1.26451612903226,1.24516129032258,1.2741935483871,1.29032258064516,1.2741935483871,1.26129032258065,1.25806451612903,1.27096774193548,1.26774193548387,1.27096774193548,1.28064516129032,1.28709677419355,1.30645161290323,1.29032258064516,1.30645161290323,1.30645161290323,1.30967741935484,1.31612903225806,1.33225806451613,1.30967741935484,1.3,1.29677419354839,1.27741935483871,1.28064516129032,1.26451612903226,1.25806451612903,1.25161290322581,1.27096774193548,1.25161290322581,1.25806451612903,1.23548387096774,1.23225806451613,1.2741935483871,1.27741935483871,1.26451612903226,1.27096774193548,1.24516129032258,1.26451612903226,1.3741935483871,1.61935483870968,1.83548387096774,1.65161290322581,1.34838709677419,1.18709677419355,1.1741935483871,1.22258064516129,1.24838709677419,1.26774193548387,1.26129032258065,1.28064516129032,1.28387096774194,1.2741935483871,1.26129032258065,1.28064516129032,1.28387096774194,1.28387096774194,1.27741935483871,1.26774193548387,1.28387096774194,1.29354838709677,1.31290322580645,1.30967741935484,1.30967741935484,1.31290322580645,1.3258064516129,1.31612903225806,1.34193548387097,1.35806451612903,1.32258064516129,1.35483870967742,1.35161290322581,1.35483870967742,1.37096774193548,1.34838709677419,1.36774193548387,1.37741935483871,1.37741935483871,1.39354838709677,1.38387096774194,1.37096774193548,1.35483870967742,1.33870967741935,1.32903225806452,1.33225806451613,1.31612903225806,1.31935483870968,1.3,1.28387096774194,1.3,1.28709677419355,1.30645161290323,1.29677419354839,1.29677419354839,1.26774193548387,1.25806451612903,1.28709677419355,1.28709677419355,1.29032258064516,1.27741935483871,1.2741935483871,1.28709677419355,1.28387096774194,1.28064516129032,1.25806451612903,1.28064516129032,1.26774193548387,1.27741935483871,1.25161290322581,1.25806451612903,1.27096774193548,1.2741935483871,1.2741935483871,1.2741935483871,1.2741935483871,1.26774193548387,1.26129032258065,1.27096774193548,1.26774193548387,1.25806451612903,1.28387096774194,1.28387096774194,1.28064516129032,1.27096774193548,1.27741935483871,1.3,1.30645161290323,1.29032258064516,1.30967741935484,1.28387096774194,1.31612903225806,1.31935483870968,1.30645161290323,1.30322580645161,1.29677419354839,1.26774193548387,1.25161290322581,1.2741935483871,1.24838709677419,1.25483870967742,1.26129032258065,1.23225806451613,1.25483870967742,1.26774193548387,1.25806451612903,1.24838709677419,1.26774193548387,1.28064516129032,1.27096774193548,1.25161290322581,1.31290322580645,1.46774193548387,1.71935483870968,1.70322580645161,1.42903225806452,1.25483870967742,1.14193548387097,1.20322580645161,1.23870967741935,1.25806451612903,1.25483870967742,1.25806451612903,1.29677419354839,1.29354838709677,1.26774193548387,1.27741935483871,1.27741935483871,1.27096774193548,1.28387096774194,1.3,1.27741935483871,1.28064516129032,1.28709677419355,1.30645161290323,1.30645161290323,1.28064516129032,1.31290322580645,1.32258064516129,1.31935483870968,1.32903225806452,1.34193548387097,1.33548387096774,1.34193548387097,1.34193548387097,1.34838709677419,1.33548387096774,1.34838709677419,1.3741935483871,1.36129032258065,1.35806451612903,1.37096774193548,1.36451612903226,1.34838709677419,1.35161290322581,1.34193548387097,1.31612903225806,1.3,1.31290322580645,1.30645161290323,1.30645161290323,1.30322580645161,1.30645161290323,1.29354838709677,1.26451612903226,1.2741935483871,1.28387096774194,1.28064516129032,1.27096774193548,1.29354838709677,1.28709677419355,1.28387096774194,1.26129032258065,1.29354838709677,1.27096774193548,1.26451612903226,1.26129032258065,1.2741935483871,1.26774193548387,1.29354838709677,1.29677419354839,1.28064516129032,1.24838709677419,1.26451612903226,1.28064516129032,1.2741935483871,1.27096774193548,1.25806451612903,1.27096774193548,1.2741935483871,1.27096774193548,1.28064516129032,1.28387096774194,1.27741935483871,1.27096774193548,1.28709677419355,1.26774193548387,1.28709677419355,1.30322580645161,1.30967741935484,1.28387096774194,1.29354838709677,1.31612903225806,1.31612903225806,1.31612903225806,1.31935483870968,1.31612903225806,1.3,1.3,1.27741935483871,1.28064516129032,1.26129032258065,1.25806451612903,1.2741935483871,1.27096774193548,1.25483870967742,1.27096774193548,1.25161290322581,1.26451612903226,1.26774193548387,1.27096774193548,1.27096774193548,1.2741935483871,1.25161290322581,1.28709677419355,1.42903225806452,1.7,1.73225806451613,1.48064516129032,1.26774193548387,1.1741935483871,1.20967741935484,1.26774193548387,1.2741935483871,1.28709677419355,1.27741935483871,1.2741935483871,1.28709677419355,1.2741935483871,1.26774193548387,1.27741935483871,1.28064516129032,1.28387096774194,1.27096774193548,1.27741935483871,1.29354838709677,1.29354838709677,1.3,1.31290322580645,1.31935483870968,1.32903225806452,1.31290322580645,1.31290322580645,1.33225806451613,1.3258064516129,1.32903225806452,1.35806451612903,1.33870967741935,1.35161290322581,1.36451612903226,1.3741935483871,1.35806451612903,1.3741935483871,1.35161290322581,1.36774193548387,1.36451612903226,1.36774193548387,1.34193548387097,1.34516129032258,1.31612903225806,1.32258064516129,1.30967741935484,1.30322580645161,1.29354838709677,1.29032258064516,1.28387096774194,1.30645161290323,1.30322580645161,1.26774193548387,1.28709677419355,1.27741935483871,1.28387096774194,1.26774193548387,1.27096774193548,1.27096774193548,1.27741935483871,1.26774193548387,1.28387096774194,1.25483870967742,1.27096774193548,1.25806451612903,1.27741935483871,1.26451612903226,1.28064516129032,1.27096774193548,1.27741935483871,1.27096774193548,1.26451612903226,1.25806451612903,1.26451612903226,1.28064516129032,1.26774193548387,1.2741935483871,1.2741935483871,1.27096774193548,1.28064516129032,1.26451612903226,1.25483870967742,1.2741935483871,1.28064516129032,1.29354838709677,1.3,1.28709677419355,1.31290322580645,1.29354838709677,1.3,1.32903225806452,1.29677419354839,1.33225806451613,1.32258064516129,1.32258064516129,1.29032258064516,1.29354838709677,1.28387096774194,1.26774193548387,1.27096774193548,1.27096774193548,1.25483870967742,1.26129032258065,1.26451612903226,1.27096774193548,1.26774193548387,1.26129032258065,1.25806451612903,1.27741935483871,1.27096774193548,1.26451612903226,1.2258064516129,1.31612903225806,1.51935483870968,1.75806451612903,1.67096774193548,1.41612903225806,1.23225806451613,1.17096774193548,1.22903225806452,1.25161290322581,1.28064516129032,1.28387096774194,1.29032258064516,1.27096774193548,1.27096774193548,1.26774193548387,1.2741935483871,1.27096774193548,1.28709677419355,1.28064516129032,1.3,1.29354838709677,1.28709677419355,1.28387096774194,1.30967741935484,1.30645161290323,1.29677419354839,1.31612903225806,1.3,1.33870967741935,1.32903225806452,1.34193548387097,1.34516129032258,1.33225806451613,1.36451612903226,1.35806451612903,1.35161290322581,1.37741935483871,1.35483870967742,1.36774193548387,1.38387096774194,1.37741935483871,1.35483870967742,1.37096774193548,1.34838709677419,1.34193548387097,1.33548387096774,1.31935483870968,1.30322580645161,1.29354838709677,1.31935483870968,1.29032258064516,1.28709677419355,1.30322580645161,1.28064516129032,1.28064516129032,1.26774193548387,1.2741935483871,1.29354838709677,1.3,1.29032258064516,1.25483870967742,1.24193548387097,1.25161290322581,1.28064516129032,1.27096774193548,1.26774193548387,1.25806451612903,1.25161290322581,1.25806451612903,1.27096774193548,1.25806451612903,1.25483870967742,1.26451612903226,1.25806451612903,1.28709677419355,1.26451612903226,1.26774193548387,1.25806451612903,1.27741935483871,1.25806451612903,1.26129032258065,1.25483870967742,1.26774193548387,1.24516129032258,1.26774193548387,1.26774193548387,1.28709677419355,1.29032258064516,1.3,1.30322580645161,1.30322580645161,1.30322580645161,1.29677419354839,1.29032258064516,1.30967741935484,1.30322580645161,1.31935483870968,1.30645161290323,1.28387096774194,1.2741935483871,1.26774193548387,1.27741935483871,1.24838709677419,1.24838709677419,1.24516129032258,1.26129032258065,1.24193548387097,1.24193548387097,1.26451612903226,1.25483870967742,1.26774193548387,1.27741935483871,1.22903225806452,1.29032258064516,1.44193548387097,1.69677419354839,1.81935483870968,1.57741935483871,1.30322580645161,1.14516129032258,1.17741935483871,1.21290322580645,1.26129032258065,1.26774193548387,1.24516129032258,1.28064516129032,1.28387096774194,1.26129032258065,1.25806451612903,1.26774193548387,1.25806451612903,1.26451612903226,1.28064516129032,1.29677419354839,1.26129032258065,1.28709677419355,1.3,1.30967741935484,1.31290322580645,1.3,1.32258064516129,1.33225806451613,1.33870967741935,1.32903225806452,1.32903225806452,1.3258064516129,1.34838709677419,1.36451612903226,1.35161290322581,1.35483870967742,1.36451612903226,1.37096774193548,1.37741935483871,1.37096774193548,1.38064516129032,1.35806451612903,1.37741935483871,1.33225806451613,1.33548387096774,1.31612903225806,1.31290322580645,1.30967741935484,1.3,1.31290322580645,1.30322580645161,1.29032258064516,1.29677419354839,1.29677419354839,1.28064516129032,1.29677419354839,1.29354838709677,1.26129032258065,1.29032258064516,1.2741935483871,1.29032258064516,1.3,1.28709677419355,1.28709677419355,1.28387096774194,1.29677419354839,1.28709677419355,1.28709677419355,1.28709677419355,1.27096774193548,1.29677419354839,1.29354838709677,1.26774193548387,1.26129032258065,1.26451612903226,1.26774193548387,1.28709677419355,1.28387096774194,1.26774193548387,1.27741935483871,1.25806451612903,1.29677419354839,1.28709677419355,1.28709677419355,1.28387096774194,1.29677419354839,1.29677419354839,1.31290322580645,1.28709677419355,1.29354838709677,1.32258064516129,1.31935483870968,1.32258064516129,1.33548387096774,1.27096774193548,1.3,1.29354838709677,1.28387096774194,1.27741935483871,1.27096774193548,1.27096774193548,1.25161290322581,1.25806451612903,1.26129032258065,1.26774193548387,1.24838709677419,1.28064516129032,1.25806451612903,1.25483870967742,1.27741935483871,1.22903225806452,1.27741935483871,1.36774193548387,1.58387096774194,1.79677419354839,1.60967741935484,1.35483870967742,1.2,1.18064516129032,1.21612903225806,1.24838709677419,1.2741935483871,1.27096774193548,1.27741935483871,1.29032258064516,1.27741935483871,1.25806451612903,1.27741935483871,1.27741935483871,1.26774193548387,1.27096774193548,1.26451612903226,1.27741935483871,1.25806451612903,1.29032258064516,1.29032258064516,1.29354838709677,1.30645161290323,1.28064516129032,1.29354838709677,1.30967741935484,1.31290322580645,1.30967741935484,1.31290322580645,1.31290322580645,1.3258064516129,1.31935483870968,1.32903225806452,1.31935483870968,1.32903225806452,1.32903225806452,1.31935483870968,1.30645161290323,1.3,1.3,1.29677419354839,1.27741935483871,1.27741935483871
1.28709677419355,1.30322580645161,1.26129032258065,1.3,1.2741935483871,1.28064516129032,1.25483870967742,1.28064516129032,1.25806451612903,1.25483870967742,1.26451612903226,1.25483870967742,1.28064516129032,1.26129032258065,1.2741935483871,1.24193548387097,1.25483870967742,1.26774193548387,1.27741935483871,1.28709677419355,1.24838709677419,1.25806451612903,1.25483870967742,1.26129032258065,1.26451612903226,1.25161290322581,1.29032258064516,1.25483870967742,1.27096774193548,1.26129032258065,1.26451612903226,1.28709677419355,1.27741935483871,1.28709677419355,1.26451612903226,1.26451612903226,1.26129032258065,1.27741935483871,1.30322580645161,1.28064516129032,1.28387096774194,1.29354838709677,1.30322580645161,1.30967741935484,1.32258064516129,1.30645161290323,1.3,1.29677419354839,1.29354838709677,1.28064516129032,1.26129032258065,1.25806451612903,1.25806451612903,1.26129032258065,1.26774193548387,1.25161290322581,1.25806451612903,1.2741935483871,1.25806451612903,1.26129032258065,1.26451612903226,1.27741935483871,1.24516129032258,1.28064516129032,1.39354838709677,1.64838709677419,1.85161290322581,1.64516129032258,1.34838709677419,1.20322580645161,1.1741935483871,1.22903225806452,1.27096774193548,1.26129032258065,1.28387096774194,1.29354838709677,1.27741935483871,1.27096774193548,1.27741935483871,1.28387096774194,1.27741935483871,1.27096774193548,1.27741935483871,1.30322580645161,1.30322580645161,1.27096774193548,1.30645161290323,1.29354838709677,1.30322580645161,1.31935483870968,1.33548387096774,1.32258064516129,1.33225806451613,1.34516129032258,1.35483870967742,1.35161290322581,1.36129032258065,1.38387096774194,1.37096774193548,1.36129032258065,1.39354838709677,1.37741935483871,1.38709677419355,1.39677419354839,1.39032258064516,1.36129032258065,1.38064516129032,1.3741935483871,1.32258064516129,1.30645161290323,1.30967741935484,1.32258064516129,1.30322580645161,1.30645161290323,1.3,1.27096774193548,1.29354838709677,1.29032258064516,1.30322580645161,1.27741935483871,1.28387096774194,1.30645161290323,1.26774193548387,1.26774193548387,1.28387096774194,1.27741935483871,1.27741935483871,1.27741935483871,1.26451612903226,1.27096774193548,1.26451612903226,1.2741935483871,1.28064516129032,1.25161290322581,1.26129032258065,1.26451612903226,1.28064516129032,1.26774193548387,1.27741935483871,1.28709677419355,1.26129032258065,1.27096774193548,1.2741935483871,1.27096774193548,1.2741935483871,1.25806451612903,1.26451612903226,1.28064516129032,1.28709677419355,1.27741935483871,1.30322580645161,1.29354838709677,1.28064516129032,1.27741935483871,1.29677419354839,1.29032258064516,1.31612903225806,1.29354838709677,1.30967741935484,1.29677419354839,1.29354838709677,1.26774193548387,1.24838709677419,1.2741935483871,1.24838709677419,1.24516129032258,1.24516129032258,1.26129032258065,1.25483870967742,1.25806451612903,1.25483870967742,1.23225806451613,1.26451612903226,1.27096774193548,1.26129032258065,1.26451612903226,1.35161290322581,1.5258064516129,1.78064516129032,1.66451612903226,1.39354838709677,1.2258064516129,1.15806451612903,1.19677419354839,1.24193548387097,1.26451612903226,1.26774193548387,1.27741935483871,1.27741935483871,1.25806451612903,1.25483870967742,1.28064516129032,1.28064516129032,1.25806451612903,1.28064516129032,1.27096774193548,1.29354838709677,1.28709677419355,1.29032258064516,1.28709677419355,1.29354838709677,1.2741935483871,1.3258064516129,1.30967741935484,1.3258064516129,1.35161290322581,1.32903225806452,1.33225806451613,1.34516129032258,1.33870967741935,1.35483870967742,1.36129032258065,1.34193548387097,1.35806451612903,1.39032258064516,1.36451612903226,1.35806451612903,1.35806451612903,1.35483870967742,1.33225806451613,1.33225806451613,1.31935483870968,1.32258064516129,1.30322580645161,1.30967741935484,1.30322580645161,1.29354838709677,1.28387096774194,1.27096774193548,1.27741935483871,1.29354838709677,1.27096774193548,1.27096774193548,1.29677419354839,1.26451612903226,1.29354838709677,1.28709677419355,1.28387096774194,1.28064516129032,1.2741935483871,1.27741935483871,1.28709677419355,1.26774193548387,1.28709677419355,1.28387096774194,1.26129032258065,1.26774193548387,1.28709677419355,1.27741935483871,1.28064516129032,1.26129032258065,1.28387096774194,1.27741935483871,1.2741935483871,1.25483870967742,1.29032258064516,1.2741935483871,1.29677419354839,1.26774193548387,1.29032258064516,1.28387096774194,1.29032258064516,1.3,1.29354838709677,1.29032258064516,1.3,1.31612903225806,1.30645161290323,1.3258064516129,1.3,1.31290322580645,1.32258064516129,1.28709677419355,1.30322580645161,1.30645161290323,1.27096774193548,1.25483870967742,1.24516129032258,1.26774193548387,1.25483870967742,1.26129032258065,1.28709677419355,1.26129032258065,1.26129032258065,1.26451612903226,1.26451612903226,1.26774193548387,1.27096774193548,1.24516129032258,1.31935483870968,1.52258064516129,1.71935483870968,1.70645161290323,1.42903225806452,1.24516129032258,1.1741935483871,1.21290322580645,1.24193548387097,1.28387096774194,1.29354838709677,1.29354838709677,1.29677419354839,1.28387096774194,1.27096774193548,1.26451612903226,1.28387096774194,1.29032258064516,1.28709677419355,1.29032258064516,1.26774193548387,1.28709677419355,1.30322580645161,1.29032258064516,1.29354838709677,1.30322580645161,1.32258064516129,1.31290322580645,1.32903225806452,1.3258064516129,1.32903225806452,1.35161290322581,1.30967741935484,1.34193548387097,1.35806451612903,1.34516129032258,1.35161290322581,1.36774193548387,1.34838709677419,1.36774193548387,1.36451612903226,1.34838709677419,1.35161290322581,1.34838709677419,1.33225806451613,1.33870967741935,1.32903225806452,1.3,1.31290322580645,1.30322580645161,1.30645161290323,1.29677419354839,1.28064516129032,1.28387096774194,1.26129032258065,1.28064516129032,1.26774193548387,1.27096774193548,1.28064516129032,1.2741935483871,1.24838709677419,1.25161290322581,1.28064516129032,1.26774193548387,1.25483870967742,1.28387096774194,1.2741935483871,1.2741935483871,1.26774193548387,1.27741935483871,1.28387096774194,1.28064516129032,1.28064516129032,1.26774193548387,1.26129032258065,1.26774193548387,1.26451612903226,1.3,1.2741935483871,1.26774193548387,1.26129032258065,1.26774193548387,1.28064516129032,1.27096774193548,1.28709677419355,1.2741935483871,1.28709677419355,1.28064516129032,1.29032258064516,1.28709677419355,1.30967741935484,1.29354838709677,1.30967741935484,1.30322580645161,1.30967741935484,1.3,1.31935483870968,1.30967741935484,1.26451612903226,1.28387096774194,1.25161290322581,1.24516129032258,1.24193548387097,1.23225806451613,1.24838709677419,1.24516129032258,1.25483870967742,1.27096774193548,1.25161290322581,1.23870967741935,1.25806451612903,1.25806451612903,1.2258064516129,1.28064516129032,1.37096774193548,1.65161290322581,1.83548387096774,1.59677419354839,1.34193548387097,1.20967741935484,1.20967741935484,1.25806451612903,1.26129032258065,1.24838709677419,1.2741935483871,1.27096774193548,1.27741935483871,1.28709677419355,1.26774193548387,1.26451612903226,1.26451612903226,1.28064516129032,1.28387096774194,1.28709677419355,1.28064516129032,1.28064516129032,1.31612903225806,1.30322580645161,1.29354838709677,1.31612903225806,1.29032258064516,1.3258064516129,1.32258064516129,1.33870967741935,1.35161290322581,1.35161290322581,1.37096774193548,1.36129032258065,1.37741935483871,1.38064516129032,1.38064516129032,1.38064516129032,1.39354838709677,1.38709677419355,1.38709677419355,1.35806451612903,1.36451612903226,1.36774193548387,1.32903225806452,1.33225806451613,1.31290322580645,1.32258064516129,1.30322580645161,1.29677419354839,1.3,1.31290322580645,1.27741935483871,1.26451612903226,1.28064516129032,1.2741935483871,1.27096774193548,1.28064516129032,1.27741935483871,1.25806451612903,1.28387096774194,1.26774193548387,1.26129032258065,1.26129032258065,1.26129032258065,1.26451612903226,1.26774193548387,1.26451612903226,1.2741935483871,1.26129032258065,1.28387096774194,1.25161290322581,1.28064516129032,1.28387096774194,1.25806451612903,1.24193548387097,1.26129032258065,1.26451612903226,1.30322580645161,1.29354838709677,1.26451612903226,1.28064516129032,1.25483870967742,1.28387096774194,1.29032258064516,1.28709677419355,1.27741935483871,1.29032258064516,1.3,1.30967741935484,1.31612903225806,1.30645161290323,1.30322580645161,1.30967741935484,1.26451612903226,1.2741935483871,1.28387096774194,1.25483870967742,1.26129032258065,1.25806451612903,1.25483870967742,1.24838709677419,1.27096774193548,1.23548387096774,1.25161290322581,1.25806451612903,1.27096774193548,1.25483870967742,1.25806451612903,1.23870967741935,1.28709677419355,1.37096774193548,1.58709677419355,1.8258064516129,1.65483870967742,1.36129032258065,1.19354838709677,1.1741935483871,1.23225806451613,1.25806451612903,1.25483870967742,1.28387096774194,1.28387096774194,1.27741935483871,1.26774193548387,1.26451612903226,1.27741935483871,1.26774193548387,1.26774193548387,1.26774193548387,1.28064516129032,1.28709677419355,1.29677419354839,1.28387096774194,1.30322580645161,1.3,1.31290322580645,1.31290322580645,1.31612903225806,1.31612903225806,1.33225806451613,1.33870967741935,1.33870967741935,1.33870967741935,1.35806451612903,1.35806451612903,1.35806451612903,1.35483870967742,1.37096774193548,1.37096774193548,1.37096774193548,1.35483870967742,1.37096774193548,1.33870967741935,1.33548387096774,1.34193548387097,1.31935483870968,1.31290322580645,1.31612903225806,1.30322580645161,1.29677419354839,1.29677419354839,1.30322580645161,1.27741935483871,1.26129032258065,1.28709677419355,1.25483870967742,1.28709677419355,1.28387096774194,1.28387096774194,1.27741935483871,1.3,1.26774193548387,1.27741935483871,1.2741935483871,1.29032258064516,1.28064516129032,1.27741935483871,1.28387096774194,1.28709677419355,1.27096774193548,1.28709677419355,1.26129032258065,1.25483870967742,1.2741935483871,1.26129032258065,1.26129032258065,1.24838709677419,1.28064516129032,1.27096774193548,1.25483870967742,1.25806451612903,1.24516129032258,1.28709677419355,1.27741935483871,1.27096774193548,1.29032258064516,1.28709677419355,1.30322580645161,1.28709677419355,1.29677419354839,1.28387096774194,1.30967741935484,1.29677419354839,1.30322580645161,1.31612903225806,1.3258064516129,1.3,1.3,1.29032258064516,1.26129032258065,1.27096774193548,1.27096774193548,1.27741935483871,1.24838709677419,1.26451612903226,1.25806451612903,1.25483870967742,1.27741935483871,1.26129032258065,1.28064516129032,1.24193548387097,1.2741935483871,1.24193548387097,1.3258064516129,1.49354838709677,1.72258064516129,1.70322580645161,1.44193548387097,1.24838709677419,1.18064516129032,1.21290322580645,1.25161290322581,1.28709677419355,1.26129032258065,1.28387096774194,1.28709677419355,1.27741935483871,1.27096774193548,1.27741935483871,1.26774193548387,1.27741935483871,1.29677419354839,1.28709677419355,1.29677419354839,1.29354838709677,1.29032258064516,1.29032258064516,1.31612903225806,1.3,1.32258064516129,1.30645161290323,1.3258064516129,1.31290322580645,1.3258064516129,1.33548387096774,1.33225806451613,1.35806451612903,1.35483870967742,1.36451612903226,1.35161290322581,1.3741935483871,1.37096774193548,1.35806451612903,1.34838709677419,1.37096774193548,1.34516129032258,1.36129032258065,1.34516129032258,1.32903225806452,1.32258064516129,1.31935483870968,1.30322580645161,1.28709677419355,1.27741935483871,1.3,1.28387096774194,1.29677419354839,1.29354838709677,1.27741935483871,1.28387096774194,1.28709677419355,1.25806451612903,1.28387096774194,1.28387096774194,1.27741935483871,1.26451612903226,1.26129032258065,1.27096774193548,1.25483870967742,1.27741935483871,1.30322580645161,1.28064516129032,1.27741935483871,1.26451612903226,1.27096774193548,1.26451612903226,1.28387096774194,1.28064516129032,1.26774193548387,1.27741935483871,1.2741935483871,1.25806451612903,1.3,1.26129032258065,1.26129032258065,1.28387096774194,1.28064516129032,1.27096774193548,1.28064516129032,1.28387096774194,1.3,1.28709677419355,1.28064516129032,1.3,1.31612903225806,1.28387096774194,1.31612903225806,1.29677419354839,1.31935483870968,1.32903225806452,1.30967741935484,1.30645161290323,1.30967741935484,1.27741935483871,1.27096774193548,1.26451612903226,1.25806451612903,1.26129032258065,1.26774193548387,1.25483870967742,1.26129032258065,1.24193548387097,1.28387096774194,1.25806451612903,1.26774193548387,1.2741935483871,1.27741935483871,1.23870967741935,1.27741935483871,1.45483870967742,1.70322580645161,1.74838709677419,1.48064516129032,1.3,1.16774193548387,1.21935483870968,1.25483870967742,1.28387096774194,1.2741935483871,1.27741935483871,1.28709677419355,1.28387096774194,1.27096774193548,1.25806451612903,1.25806451612903,1.28064516129032,1.29032258064516,1.29677419354839,1.27741935483871,1.28387096774194,1.28709677419355,1.28709677419355,1.28387096774194,1.3,1.31290322580645,1.3258064516129,1.33225806451613,1.30967741935484,1.34193548387097,1.35483870967742,1.3258064516129,1.3741935483871,1.35161290322581,1.37096774193548,1.36451612903226,1.34516129032258,1.35806451612903,1.36129032258065,1.35806451612903,1.36451612903226,1.35161290322581,1.33870967741935,1.33225806451613,1.32903225806452,1.31612903225806,1.31935483870968,1.30322580645161,1.29032258064516,1.29354838709677,1.29032258064516,1.28387096774194,1.28387096774194,1.29354838709677,1.30645161290323,1.27741935483871,1.26129032258065,1.25806451612903,1.27096774193548,1.24838709677419,1.26774193548387,1.24516129032258,1.2741935483871,1.26451612903226,1.25483870967742,1.28064516129032,1.27096774193548,1.26129032258065,1.24838709677419,1.25483870967742,1.26129032258065,1.26774193548387,1.24516129032258,1.27096774193548,1.26129032258065,1.28387096774194,1.27096774193548,1.27741935483871,1.26129032258065,1.25161290322581,1.26451612903226,1.26451612903226,1.26129032258065,1.2741935483871,1.26774193548387,1.29677419354839,1.30967741935484,1.31290322580645,1.29677419354839,1.29677419354839,1.28387096774194,1.29677419354839,1.32903225806452,1.32258064516129,1.32258064516129,1.3258064516129,1.29032258064516,1.3,1.2741935483871,1.28387096774194,1.2741935483871,1.25483870967742,1.25806451612903,1.25483870967742,1.25806451612903,1.26774193548387,1.24516129032258,1.25806451612903,1.2741935483871,1.25806451612903,1.27741935483871,1.25806451612903,1.25806451612903,1.30967741935484,1.49032258064516,1.74516129032258,1.80967741935484,1.5,1.28387096774194,1.14838709677419,1.19677419354839,1.26129032258065,1.2741935483871,1.2741935483871,1.27096774193548,1.3,1.27741935483871,1.26129032258065,1.25806451612903,1.26129032258065,1.28709677419355,1.29354838709677,1.28064516129032,1.28709677419355,1.29032258064516,1.28709677419355,1.28387096774194,1.30645161290323,1.32258064516129,1.31612903225806,1.30645161290323,1.33870967741935,1.31290322580645,1.31935483870968,1.34838709677419,1.34516129032258,1.36129032258065,1.37096774193548,1.35806451612903,1.37741935483871,1.36774193548387,1.36774193548387,1.38709677419355,1.38387096774194,1.35806451612903,1.35483870967742,1.35806451612903,1.31612903225806,1.31290322580645,1.31290322580645,1.31290322580645,1.30645161290323,1.31290322580645,1.31290322580645,1.28709677419355,1.27741935483871,1.27741935483871,1.29032258064516,1.27741935483871,1.29354838709677,1.3,1.28064516129032,1.28064516129032,1.27096774193548,1.27741935483871,1.26451612903226,1.2741935483871,1.28064516129032,1.26774193548387,1.3,1.26451612903226,1.27741935483871,1.26451612903226,1.28709677419355,1.26129032258065,1.26129032258065,1.26774193548387,1.2741935483871,1.24838709677419,1.28064516129032,1.26451612903226,1.28387096774194,1.26451612903226,1.25806451612903,1.26129032258065,1.28387096774194,1.26774193548387,1.28387096774194,1.28064516129032,1.28387096774194,1.29032258064516,1.29354838709677,1.29032258064516,1.29677419354839,1.30322580645161,1.30645161290323,1.31935483870968,1.31290322580645,1.31612903225806,1.28387096774194,1.26774193548387,1.26451612903226,1.26774193548387,1.23870967741935,1.25161290322581,1.25806451612903,1.23870967741935,1.27096774193548,1.24516129032258,1.25483870967742,1.25806451612903,1.27741935483871,1.26451612903226,1.25806451612903,1.24838709677419,1.27096774193548,1.38709677419355,1.64193548387097,1.78387096774194,1.57741935483871,1.32258064516129,1.19354838709677,1.19032258064516,1.22258064516129,1.23870967741935,1.28387096774194,1.28387096774194,1.28709677419355,1.25483870967742,1.27096774193548,1.26451612903226,1.2741935483871,1.2741935483871,1.28387096774194,1.28064516129032,1.30322580645161,1.30322580645161,1.25806451612903,1.29354838709677,1.3,1.29032258064516,1.29354838709677,1.30322580645161,1.33548387096774,1.3258064516129,1.34838709677419,1.33225806451613,1.34193548387097,1.35806451612903,1.34193548387097,1.35806451612903,1.35483870967742,1.36451612903226,1.34838709677419,1.3741935483871,1.35161290322581,1.37741935483871,1.35161290322581,1.35806451612903,1.34516129032258,1.31935483870968,1.31612903225806,1.29677419354839,1.31612903225806,1.3,1.29677419354839,1.28709677419355,1.27096774193548,1.29677419354839,1.28387096774194,1.29032258064516,1.29677419354839,1.29032258064516,1.26129032258065,1.28064516129032,1.26129032258065,1.28064516129032,1.29354838709677,1.28387096774194,1.3,1.29677419354839,1.28064516129032,1.27096774193548,1.28064516129032,1.2741935483871,1.25161290322581,1.26451612903226,1.28709677419355,1.26774193548387,1.28709677419355,1.24838709677419,1.25161290322581,1.28064516129032,1.26774193548387,1.26451612903226,1.28064516129032,1.28387096774194,1.28387096774194,1.27096774193548,1.28064516129032,1.28709677419355,1.24838709677419,1.27741935483871,1.29354838709677,1.30967741935484,1.27096774193548,1.29677419354839,1.29354838709677,1.3258064516129,1.30645161290323,1.32258064516129,1.31612903225806,1.31290322580645,1.31612903225806,1.29354838709677,1.28709677419355,1.27741935483871,1.27096774193548,1.26774193548387,1.25161290322581,1.27096774193548,1.28064516129032,1.26129032258065,1.25161290322581,1.27096774193548,1.2741935483871,1.25483870967742,1.25483870967742,1.26129032258065,1.25483870967742,1.25483870967742,1.33225806451613,1.57741935483871,1.7741935483871,1.61935483870968,1.38064516129032,1.2,1.18387096774194,1.21935483870968,1.27096774193548,1.27741935483871,1.26774193548387,1.29677419354839,1.27741935483871,1.2741935483871,1.25483870967742,1.28064516129032,1.27741935483871,1.27741935483871,1.2741935483871,1.27741935483871,1.2741935483871,1.30322580645161,1.28709677419355,1.30322580645161,1.28709677419355,1.30322580645161,1.32903225806452,1.34193548387097,1.3258064516129,1.33225806451613,1.32258064516129,1.31612903225806,1.34516129032258,1.35483870967742,1.35161290322581,1.36451612903226,1.36129032258065,1.38709677419355,1.36774193548387,1.38387096774194,1.37096774193548,1.34516129032258,1.35806451612903,1.33548387096774,1.34516129032258,1.32258064516129,1.31935483870968,1.31290322580645,1.31612903225806,1.30322580645161,1.28709677419355,1.28709677419355,1.28064516129032,1.2741935483871,1.29354838709677,1.29032258064516,1.28387096774194,1.28064516129032,1.28709677419355,1.24516129032258,1.3,1.26451612903226,1.26451612903226,1.26451612903226,1.28709677419355,1.28064516129032,1.28709677419355,1.28387096774194,1.26774193548387,1.28387096774194,1.26451612903226,1.28709677419355,1.27096774193548,1.27096774193548,1.29032258064516,1.28709677419355,1.26774193548387,1.27741935483871,1.2741935483871,1.28064516129032,1.28709677419355,1.30322580645161,1.28387096774194,1.27096774193548,1.28064516129032,1.28064516129032,1.30645161290323,1.29354838709677,1.29354838709677,1.30645161290323,1.29677419354839,1.30645161290323,1.30645161290323,1.3,1.32903225806452,1.30967741935484,1.31612903225806,1.30967741935484,1.30645161290323,1.30645161290323,1.28387096774194,1.25483870967742,1.24838709677419,1.24516129032258,1.28064516129032,1.26129032258065,1.24516129032258,1.25483870967742,1.24193548387097,1.27096774193548,1.25806451612903,1.26451612903226,1.25161290322581,1.24193548387097,1.25161290322581,1.35161290322581,1.59354838709677,1.79032258064516,1.65806451612903,1.3741935483871,1.20967741935484,1.19032258064516,1.21612903225806,1.28064516129032,1.26451612903226,1.27741935483871,1.27741935483871,1.2741935483871,1.24516129032258,1.26774193548387,1.26129032258065,1.26451612903226,1.26774193548387,1.25806451612903,1.28709677419355,1.27741935483871,1.27096774193548,1.28709677419355,1.29032258064516,1.28064516129032,1.3,1.30967741935484,1.29677419354839,1.30967741935484,1.31935483870968,1.31935483870968,1.33870967741935,1.3,1.31612903225806,1.34193548387097,1.34516129032258,1.35161290322581,1.34516129032258,1.35161290322581,1.32903225806452,1.35161290322581,1.34193548387097,1.31935483870968,1.31290322580645,1.32258064516129,1.28709677419355,1.27096774193548,1.24516129032258,1.26774193548387,1.23225806451613,1.2258064516129
1.30645161290323,1.29032258064516,1.2741935483871,1.2741935483871,1.27741935483871,1.29354838709677,1.27741935483871,1.26774193548387,1.27741935483871,1.2741935483871,1.2741935483871,1.26774193548387,1.28387096774194,1.26451612903226,1.27096774193548,1.28709677419355,1.27096774193548,1.28709677419355,1.2741935483871,1.28064516129032,1.29032258064516,1.28387096774194,1.27096774193548,1.26451612903226,1.27741935483871,1.26451612903226,1.28064516129032,1.28064516129032,1.26129032258065,1.28064516129032,1.28064516129032,1.28709677419355,1.2741935483871,1.28709677419355,1.28387096774194,1.27741935483871,1.29032258064516,1.30645161290323,1.30967741935484,1.30967741935484,1.3,1.29677419354839,1.30967741935484,1.31612903225806,1.31612903225806,1.30645161290323,1.30645161290323,1.30322580645161,1.29677419354839,1.27096774193548,1.24838709677419,1.26129032258065,1.25806451612903,1.2741935483871,1.2741935483871,1.25161290322581,1.27096774193548,1.25161290322581,1.26451612903226,1.26451612903226,1.28064516129032,1.27096774193548,1.25161290322581,1.27096774193548,1.49032258064516,1.72903225806452,1.75806451612903,1.49032258064516,1.2741935483871,1.16129032258065,1.22258064516129,1.25806451612903,1.2741935483871,1.28387096774194,1.2741935483871,1.28064516129032,1.28064516129032,1.26129032258065,1.2741935483871,1.26774193548387,1.29677419354839,1.2741935483871,1.29354838709677,1.28064516129032,1.28709677419355,1.29677419354839,1.29354838709677,1.30645161290323,1.29677419354839,1.31935483870968,1.30645161290323,1.33548387096774,1.35161290322581,1.36451612903226,1.34193548387097,1.36129032258065,1.36774193548387,1.35161290322581,1.35483870967742,1.3741935483871,1.37096774193548,1.3741935483871,1.37096774193548,1.36774193548387,1.38387096774194,1.38387096774194,1.33870967741935,1.39354838709677,1.3258064516129,1.31290322580645,1.33225806451613,1.30322580645161,1.30645161290323,1.31612903225806,1.3,1.29032258064516,1.2741935483871,1.30645161290323,1.27741935483871,1.29032258064516,1.26774193548387,1.2741935483871,1.2741935483871,1.25806451612903,1.25483870967742,1.29032258064516,1.27741935483871,1.2741935483871,1.2741935483871,1.28064516129032,1.26774193548387,1.25806451612903,1.25483870967742,1.26451612903226,1.24838709677419,1.26129032258065,1.28709677419355,1.24838709677419,1.2741935483871,1.26129032258065,1.25483870967742,1.25806451612903,1.28064516129032,1.2741935483871,1.29354838709677,1.27096774193548,1.26129032258065,1.2741935483871,1.28064516129032,1.25161290322581,1.28709677419355,1.30967741935484,1.30322580645161,1.2741935483871,1.29677419354839,1.30967741935484,1.32258064516129,1.29354838709677,1.30322580645161,1.28387096774194,1.28709677419355,1.24516129032258,1.25483870967742,1.27096774193548,1.25806451612903,1.25806451612903,1.25161290322581,1.25483870967742,1.25161290322581,1.26129032258065,1.23548387096774,1.25161290322581,1.25806451612903,1.28064516129032,1.24516129032258,1.26774193548387,1.34516129032258,1.57741935483871,1.8,1.66451612903226,1.36451612903226,1.21612903225806,1.14516129032258,1.21612903225806,1.23548387096774,1.2741935483871,1.27741935483871,1.2741935483871,1.2741935483871,1.25483870967742,1.29354838709677,1.27096774193548,1.28709677419355,1.27096774193548,1.26451612903226,1.29677419354839,1.29032258064516,1.29032258064516,1.29677419354839,1.27096774193548,1.31290322580645,1.28387096774194,1.31290322580645,1.32903225806452,1.33225806451613,1.33225806451613,1.3258064516129,1.34193548387097,1.35161290322581,1.33548387096774,1.34838709677419,1.32258064516129,1.36774193548387,1.3741935483871,1.36774193548387,1.35806451612903,1.38387096774194,1.37096774193548,1.35161290322581,1.3258064516129,1.33225806451613,1.31935483870968,1.3258064516129,1.31612903225806,1.3,1.29677419354839,1.27741935483871,1.3,1.27096774193548,1.29032258064516,1.28064516129032,1.28064516129032,1.29032258064516,1.28064516129032,1.28064516129032,1.26774193548387,1.3,1.26451612903226,1.29354838709677,1.26451612903226,1.27741935483871,1.27096774193548,1.2741935483871,1.26451612903226,1.28387096774194,1.26129032258065,1.27741935483871,1.28064516129032,1.29677419354839,1.27741935483871,1.26774193548387,1.27741935483871,1.27096774193548,1.27096774193548,1.27741935483871,1.28709677419355,1.2741935483871,1.28387096774194,1.2741935483871,1.28709677419355,1.26774193548387,1.27741935483871,1.27096774193548,1.30322580645161,1.29032258064516,1.29677419354839,1.29677419354839,1.31935483870968,1.30322580645161,1.31935483870968,1.31290322580645,1.3258064516129,1.31612903225806,1.31290322580645,1.29354838709677,1.27741935483871,1.27096774193548,1.2741935483871,1.24516129032258,1.26774193548387,1.25161290322581,1.24838709677419,1.25806451612903,1.26451612903226,1.28387096774194,1.2741935483871,1.27096774193548,1.27741935483871,1.23870967741935,1.26451612903226,1.33870967741935,1.54838709677419,1.79032258064516,1.66451612903226,1.40645161290323,1.21290322580645,1.18064516129032,1.24193548387097,1.26774193548387,1.27096774193548,1.26129032258065,1.29354838709677,1.29677419354839,1.27096774193548,1.27741935483871,1.22903225806452,1.30322580645161,1.28064516129032,1.28064516129032,1.28387096774194,1.27741935483871,1.28709677419355,1.29354838709677,1.28709677419355,1.29032258064516,1.3,1.3258064516129,1.33548387096774,1.33225806451613,1.33225806451613,1.32903225806452,1.34193548387097,1.33870967741935,1.34838709677419,1.33870967741935,1.34838709677419,1.36129032258065,1.3741935483871,1.36129032258065,1.38064516129032,1.36774193548387,1.35161290322581,1.34838709677419,1.34516129032258,1.33870967741935,1.30645161290323,1.3258064516129,1.33870967741935,1.30645161290323,1.29354838709677,1.29677419354839,1.29677419354839,1.28709677419355,1.29354838709677,1.27096774193548,1.28064516129032,1.26129032258065,1.28064516129032,1.26451612903226,1.27741935483871,1.29032258064516,1.26451612903226,1.26774193548387,1.25806451612903,1.2741935483871,1.25806451612903,1.27741935483871,1.27741935483871,1.27741935483871,1.27096774193548,1.29354838709677,1.28387096774194,1.25483870967742,1.26129032258065,1.26451612903226,1.25483870967742,1.27096774193548,1.26451612903226,1.28387096774194,1.28064516129032,1.28709677419355,1.26451612903226,1.25483870967742,1.27096774193548,1.27096774193548,1.28064516129032,1.2741935483871,1.27741935483871,1.29354838709677,1.28064516129032,1.31290322580645,1.3,1.31290322580645,1.3,1.30645161290323,1.31612903225806,1.3258064516129,1.31290322580645,1.30322580645161,1.26451612903226,1.27096774193548,1.28387096774194,1.25806451612903,1.26129032258065,1.25161290322581,1.24193548387097,1.25806451612903,1.24838709677419,1.24838709677419,1.26451612903226,1.24838709677419,1.25483870967742,1.27741935483871,1.22903225806452,1.2741935483871,1.36129032258065,1.62903225806452,1.79677419354839,1.60322580645161,1.31935483870968,1.20967741935484,1.19032258064516,1.24193548387097,1.27096774193548,1.27741935483871,1.28387096774194,1.29677419354839,1.3,1.25806451612903,1.26129032258065,1.25806451612903,1.25161290322581,1.27741935483871,1.28387096774194,1.29032258064516,1.28387096774194,1.27741935483871,1.31290322580645,1.3,1.30322580645161,1.30645161290323,1.32903225806452,1.31935483870968,1.32903225806452,1.35483870967742,1.33548387096774,1.32903225806452,1.31935483870968,1.34516129032258,1.35806451612903,1.35483870967742,1.36774193548387,1.37096774193548,1.38387096774194,1.36129032258065,1.36774193548387,1.3741935483871,1.34838709677419,1.33870967741935,1.33548387096774,1.34193548387097,1.31935483870968,1.30967741935484,1.30322580645161,1.30322580645161,1.31290322580645,1.28709677419355,1.28709677419355,1.25806451612903,1.28387096774194,1.29032258064516,1.29354838709677,1.27096774193548,1.29354838709677,1.26451612903226,1.28709677419355,1.26774193548387,1.25483870967742,1.27096774193548,1.2741935483871,1.28064516129032,1.26451612903226,1.27741935483871,1.2741935483871,1.26774193548387,1.25161290322581,1.30322580645161,1.27096774193548,1.2741935483871,1.27741935483871,1.26129032258065,1.2741935483871,1.2741935483871,1.27096774193548,1.27741935483871,1.26451612903226,1.26129032258065,1.28709677419355,1.28387096774194,1.2741935483871,1.26451612903226,1.28064516129032,1.29354838709677,1.26451612903226,1.30645161290323,1.3,1.3,1.3,1.29032258064516,1.31612903225806,1.30645161290323,1.33225806451613,1.30645161290323,1.27741935483871,1.29032258064516,1.2741935483871,1.24516129032258,1.24838709677419,1.25806451612903,1.26451612903226,1.25483870967742,1.23870967741935,1.25806451612903,1.26129032258065,1.25806451612903,1.28387096774194,1.25806451612903,1.25161290322581,1.24838709677419,1.31612903225806,1.53548387096774,1.78709677419355,1.69354838709677,1.41290322580645,1.2258064516129,1.16774193548387,1.2258064516129,1.23870967741935,1.27096774193548,1.27741935483871,1.28387096774194,1.26774193548387,1.28709677419355,1.25806451612903,1.28064516129032,1.28064516129032,1.27741935483871,1.27096774193548,1.27096774193548,1.29032258064516,1.28709677419355,1.29032258064516,1.29032258064516,1.30967741935484,1.30967741935484,1.30967741935484,1.33225806451613,1.3258064516129,1.34193548387097,1.32903225806452,1.36129032258065,1.33870967741935,1.34838709677419,1.36451612903226,1.36774193548387,1.36129032258065,1.39032258064516,1.4,1.37096774193548,1.38709677419355,1.38064516129032,1.36774193548387,1.35806451612903,1.32903225806452,1.3258064516129,1.32258064516129,1.31935483870968,1.31290322580645,1.28064516129032,1.28387096774194,1.30967741935484,1.31935483870968,1.28709677419355,1.28387096774194,1.27741935483871,1.27741935483871,1.25806451612903,1.26129032258065,1.25806451612903,1.26774193548387,1.27096774193548,1.27096774193548,1.28064516129032,1.25806451612903,1.26129032258065,1.26774193548387,1.26451612903226,1.25806451612903,1.26129032258065,1.26774193548387,1.26774193548387,1.28387096774194,1.27741935483871,1.27096774193548,1.24838709677419,1.2741935483871,1.27741935483871,1.28064516129032,1.27096774193548,1.28064516129032,1.26451612903226,1.26451612903226,1.2741935483871,1.2741935483871,1.27741935483871,1.30322580645161,1.30967741935484,1.29677419354839,1.29677419354839,1.3,1.3,1.31290322580645,1.31612903225806,1.30322580645161,1.29354838709677,1.27096774193548,1.28064516129032,1.24838709677419,1.25161290322581,1.26129032258065,1.24838709677419,1.26451612903226,1.25806451612903,1.25161290322581,1.24193548387097,1.25161290322581,1.24838709677419,1.2741935483871,1.26451612903226,1.24516129032258,1.2741935483871,1.43225806451613,1.68064516129032,1.80967741935484,1.55483870967742,1.27741935483871,1.13548387096774,1.19354838709677,1.2258064516129,1.25806451612903,1.27741935483871,1.26774193548387,1.29354838709677,1.26451612903226,1.27096774193548,1.25806451612903,1.2741935483871,1.28064516129032,1.2741935483871,1.3,1.28064516129032,1.29354838709677,1.28064516129032,1.29354838709677,1.30645161290323,1.30967741935484,1.3258064516129,1.31935483870968,1.31935483870968,1.33870967741935,1.33548387096774,1.34516129032258,1.35483870967742,1.3258064516129,1.35161290322581,1.38387096774194,1.37741935483871,1.3741935483871,1.37096774193548,1.3741935483871,1.35483870967742,1.3741935483871,1.35806451612903,1.34838709677419,1.34838709677419,1.34193548387097,1.32903225806452,1.30645161290323,1.3,1.3,1.30645161290323,1.26451612903226,1.27096774193548,1.29677419354839,1.28709677419355,1.26774193548387,1.28709677419355,1.28709677419355,1.28064516129032,1.28709677419355,1.25483870967742,1.28709677419355,1.2741935483871,1.25806451612903,1.29032258064516,1.27096774193548,1.26451612903226,1.2741935483871,1.28387096774194,1.25483870967742,1.26774193548387,1.2741935483871,1.28064516129032,1.2741935483871,1.28387096774194,1.26129032258065,1.2741935483871,1.25806451612903,1.25806451612903,1.28064516129032,1.28064516129032,1.23870967741935,1.26129032258065,1.28709677419355,1.26774193548387,1.27741935483871,1.29677419354839,1.28387096774194,1.29032258064516,1.29354838709677,1.28064516129032,1.3,1.30967741935484,1.29354838709677,1.31290322580645,1.32258064516129,1.31935483870968,1.3,1.28387096774194,1.28709677419355,1.27096774193548,1.25483870967742,1.25806451612903,1.25161290322581,1.24516129032258,1.25161290322581,1.26451612903226,1.25483870967742,1.2741935483871,1.26451612903226,1.28387096774194,1.2741935483871,1.25483870967742,1.24193548387097,1.33548387096774,1.55806451612903,1.79354838709677,1.65806451612903,1.39354838709677,1.23870967741935,1.19354838709677,1.21935483870968,1.25806451612903,1.28709677419355,1.27741935483871,1.28709677419355,1.26774193548387,1.26774193548387,1.28387096774194,1.26451612903226,1.27741935483871,1.26774193548387,1.29354838709677,1.27096774193548,1.27096774193548,1.28387096774194,1.28709677419355,1.30967741935484,1.28064516129032,1.31612903225806,1.31612903225806,1.33548387096774,1.3258064516129,1.32903225806452,1.33548387096774,1.34838709677419,1.35161290322581,1.36774193548387,1.36129032258065,1.34193548387097,1.38064516129032,1.35806451612903,1.37741935483871,1.3741935483871,1.37741935483871,1.35806451612903,1.35483870967742,1.34516129032258,1.34193548387097,1.34838709677419,1.31612903225806,1.30967741935484,1.30645161290323,1.28709677419355,1.28064516129032,1.30322580645161,1.29354838709677,1.3,1.28387096774194,1.26774193548387,1.3,1.2741935483871,1.29677419354839,1.27741935483871,1.27741935483871,1.26451612903226,1.2741935483871,1.27096774193548,1.26774193548387,1.25806451612903,1.23548387096774,1.27741935483871,1.28064516129032,1.28064516129032,1.28064516129032,1.27096774193548,1.24516129032258,1.2741935483871,1.26451612903226,1.26774193548387,1.26451612903226,1.25806451612903,1.26451612903226,1.2741935483871,1.24838709677419,1.27741935483871,1.27741935483871,1.26129032258065,1.25161290322581,1.28064516129032,1.28064516129032,1.2741935483871,1.29354838709677,1.30322580645161,1.29677419354839,1.27741935483871,1.31612903225806,1.30322580645161,1.27741935483871,1.31935483870968,1.31612903225806,1.33870967741935,1.30322580645161,1.30967741935484,1.28709677419355,1.25806451612903,1.24516129032258,1.24516129032258,1.23870967741935,1.25161290322581,1.25483870967742,1.26774193548387,1.25161290322581,1.25161290322581,1.25806451612903,1.26129032258065,1.24516129032258,1.23870967741935,1.26451612903226,1.35483870967742,1.5741935483871,1.81290322580645,1.64838709677419,1.38387096774194,1.21612903225806,1.19032258064516,1.24516129032258,1.26451612903226,1.28064516129032,1.27741935483871,1.26451612903226,1.29354838709677,1.2741935483871,1.27741935483871,1.26774193548387,1.27741935483871,1.28387096774194,1.28064516129032,1.26451612903226,1.3,1.29032258064516,1.28064516129032,1.31935483870968,1.31612903225806,1.31935483870968,1.32903225806452,1.30645161290323,1.33548387096774,1.31935483870968,1.33548387096774,1.35161290322581,1.35806451612903,1.35161290322581,1.35483870967742,1.36774193548387,1.35483870967742,1.36451612903226,1.37741935483871,1.38709677419355,1.36451612903226,1.37096774193548,1.36129032258065,1.33225806451613,1.34516129032258,1.32258064516129,1.3258064516129,1.31935483870968,1.30645161290323,1.30322580645161,1.31612903225806,1.28709677419355,1.29677419354839,1.27741935483871,1.28064516129032,1.28387096774194,1.26129032258065,1.28064516129032,1.28709677419355,1.28387096774194,1.26451612903226,1.2741935483871,1.2741935483871,1.27096774193548,1.26774193548387,1.25483870967742,1.24838709677419,1.28709677419355,1.29032258064516,1.27096774193548,1.24516129032258,1.26129032258065,1.2741935483871,1.27741935483871,1.2741935483871,1.26451612903226,1.26774193548387,1.24516129032258,1.27741935483871,1.28387096774194,1.2741935483871,1.28064516129032,1.25806451612903,1.25161290322581,1.26129032258065,1.27096774193548,1.28064516129032,1.28387096774194,1.26774193548387,1.28387096774194,1.30967741935484,1.29677419354839,1.29677419354839,1.29677419354839,1.31935483870968,1.29677419354839,1.3258064516129,1.30645161290323,1.3,1.30322580645161,1.28064516129032,1.28709677419355,1.26774193548387,1.24838709677419,1.24516129032258,1.25483870967742,1.26451612903226,1.24193548387097,1.26129032258065,1.25161290322581,1.25161290322581,1.2741935483871,1.24838709677419,1.26774193548387,1.23548387096774,1.26451612903226,1.38709677419355,1.62903225806452,1.83225806451613,1.64838709677419,1.36129032258065,1.15806451612903,1.17096774193548,1.22903225806452,1.26451612903226,1.25161290322581,1.2741935483871,1.28387096774194,1.27096774193548,1.26451612903226,1.27741935483871,1.2741935483871,1.27096774193548,1.25806451612903,1.29354838709677,1.29354838709677,1.29354838709677,1.28064516129032,1.3258064516129,1.30322580645161,1.31612903225806,1.29354838709677,1.30967741935484,1.31290322580645,1.32903225806452,1.36129032258065,1.34193548387097,1.36774193548387,1.36129032258065,1.34516129032258,1.34838709677419,1.36129032258065,1.36774193548387,1.39032258064516,1.39354838709677,1.3741935483871,1.39354838709677,1.38709677419355,1.35806451612903,1.35806451612903,1.33225806451613,1.32903225806452,1.31612903225806,1.31290322580645,1.28709677419355,1.29677419354839,1.30322580645161,1.28709677419355,1.30322580645161,1.2741935483871,1.28064516129032,1.28387096774194,1.29032258064516,1.28064516129032,1.2741935483871,1.27741935483871,1.2741935483871,1.2741935483871,1.29032258064516,1.27741935483871,1.26451612903226,1.26451612903226,1.27741935483871,1.25161290322581,1.25161290322581,1.26451612903226,1.26451612903226,1.24838709677419,1.2741935483871,1.29354838709677,1.26129032258065,1.26451612903226,1.2741935483871,1.2741935483871,1.26129032258065,1.25806451612903,1.25483870967742,1.25806451612903,1.26451612903226,1.3,1.26451612903226,1.28064516129032,1.29032258064516,1.3,1.28709677419355,1.3,1.31290322580645,1.27741935483871,1.2741935483871,1.32258064516129,1.31935483870968,1.31612903225806,1.29032258064516,1.29354838709677,1.28387096774194,1.25161290322581,1.25161290322581,1.24516129032258,1.25161290322581,1.24838709677419,1.24838709677419,1.25161290322581,1.25806451612903,1.25806451612903,1.25161290322581,1.24516129032258,1.26774193548387,1.24838709677419,1.24838709677419,1.30967741935484,1.51290322580645,1.78064516129032,1.72903225806452,1.43225806451613,1.22903225806452,1.14516129032258,1.19354838709677,1.23870967741935,1.24516129032258,1.28387096774194,1.29032258064516,1.2741935483871,1.25483870967742,1.27741935483871,1.26451612903226,1.27096774193548,1.3,1.24838709677419,1.29677419354839,1.2741935483871,1.29677419354839,1.30322580645161,1.31290322580645,1.28387096774194,1.29354838709677,1.30322580645161,1.31290322580645,1.31290322580645,1.34193548387097,1.35483870967742,1.33870967741935,1.36129032258065,1.35161290322581,1.35483870967742,1.36451612903226,1.35483870967742,1.38064516129032,1.37741935483871,1.39677419354839,1.36451612903226,1.38387096774194,1.37096774193548,1.36774193548387,1.33225806451613,1.3258064516129,1.32258064516129,1.28709677419355,1.30645161290323,1.29677419354839,1.29354838709677,1.3,1.28387096774194,1.29354838709677,1.29677419354839,1.29354838709677,1.2741935483871,1.27741935483871,1.28064516129032,1.3,1.2741935483871,1.26129032258065,1.28064516129032,1.27741935483871,1.28064516129032,1.28387096774194,1.2741935483871,1.2741935483871,1.28064516129032,1.28387096774194,1.27741935483871,1.25161290322581,1.2741935483871,1.27096774193548,1.28064516129032,1.28387096774194,1.28064516129032,1.30645161290323,1.28064516129032,1.25806451612903,1.26774193548387,1.26451612903226,1.27096774193548,1.28709677419355,1.2741935483871,1.29677419354839,1.3,1.28387096774194,1.30322580645161,1.3,1.30645161290323,1.32258064516129,1.3,1.30967741935484,1.30645161290323,1.33225806451613,1.30967741935484,1.32258064516129,1.3,1.28709677419355,1.26774193548387,1.26774193548387,1.26129032258065,1.25806451612903,1.25806451612903,1.24516129032258,1.2741935483871,1.25806451612903,1.23870967741935,1.27741935483871,1.25806451612903,1.2741935483871,1.29677419354839,1.23548387096774,1.28387096774194,1.43225806451613,1.69677419354839,1.79677419354839,1.55161290322581,1.3,1.1741935483871,1.20967741935484,1.24516129032258,1.25483870967742,1.2741935483871,1.25483870967742,1.2741935483871,1.2741935483871,1.24838709677419,1.28064516129032,1.25806451612903,1.2741935483871,1.28709677419355,1.27741935483871,1.2741935483871,1.27096774193548,1.27096774193548,1.30322580645161,1.27741935483871,1.28709677419355,1.3,1.28709677419355,1.29032258064516,1.29354838709677,1.30967741935484,1.31935483870968,1.29677419354839,1.32903225806452,1.31612903225806,1.34838709677419,1.33225806451613,1.31935483870968,1.35161290322581,1.34838709677419,1.31290322580645,1.3,1.33225806451613,1.28709677419355,1.28709677419355,1.27096774193548,1.26129032258065,1.25483870967742
