1.23548387096774,1.22903225806452,1.23870967741935,1.21290322580645,1.25483870967742,1.24838709677419,1.24838709677419,1.25161290322581,1.26774193548387,1.27096774193548,1.26451612903226,1.2741935483871,1.30967741935484,1.29677419354839,1.30645161290323,1.28709677419355,1.27096774193548,1.2258064516129,1.21612903225806,1.2,1.19677419354839,1.20322580645161,1.20645161290323,1.2,1.19354838709677,1.19354838709677,1.19677419354839,1.2258064516129,1.5,2.19677419354839,2.93548387096774,3.01290322580645,1.95806451612903,1.39354838709677,1.29677419354839,1.1741935483871,1.11290322580645,1.09677419354839,1.08064516129032,1.0741935483871,1.06129032258065,1.06451612903226,1.05806451612903,1.04838709677419,1.04516129032258,1.03548387096774,1.03225806451613,1.03870967741935,1.03225806451613,1.0258064516129,1.01290322580645,1.01935483870968,1.01612903225806,0.987096774193548,0.990322580645161,0.980645161290323,0.967741935483871,0.948387096774194,0.948387096774194,0.948387096774194,0.964516129032258,0.987096774193548,1.00645161290323,1.0741935483871,1.12258064516129,1.14838709677419,1.18387096774194,1.19354838709677,1.19032258064516,1.19677419354839,1.19354838709677,1.18387096774194,1.18064516129032,1.17741935483871,1.17096774193548,1.1741935483871,1.18064516129032,1.16774193548387,1.17096774193548,1.16774193548387,1.1741935483871,1.18709677419355,1.18387096774194,1.17741935483871,1.18387096774194,1.18709677419355,1.18064516129032,1.18064516129032,1.19032258064516,1.18064516129032,1.18387096774194,1.18709677419355,1.18709677419355,1.18064516129032,1.18064516129032,1.17096774193548,1.17096774193548,1.1741935483871,1.18064516129032,1.1741935483871,1.17741935483871,1.18064516129032,1.19677419354839,1.19354838709677,1.20322580645161,1.21290322580645,1.21290322580645,1.21290322580645,1.2258064516129,1.24838709677419,1.25806451612903,1.25483870967742,1.24838709677419,1.2258064516129,1.18709677419355,1.16774193548387,1.16129032258065,1.15806451612903,1.15806451612903,1.15806451612903,1.15483870967742,1.16774193548387,1.16129032258065,1.15806451612903,1.21935483870968,1.52903225806452,2.21612903225806,2.89032258064516,2.89677419354839,1.81290322580645,1.33870967741935,1.25483870967742,1.15161290322581,1.1,1.08709677419355,1.06774193548387,1.05161290322581,1.05161290322581,1.04838709677419,1.04193548387097,1.03548387096774,1.03548387096774,1.02903225806452,1.0258064516129,1.01935483870968,1.02258064516129,1.01290322580645,1.00967741935484,1,1,0.987096774193548,0.97741935483871,0.967741935483871,0.954838709677419,0.948387096774194,0.948387096774194,0.948387096774194,0.958064516129032,0.987096774193548,1.02903225806452,1.07741935483871,1.1258064516129,1.15806451612903,1.18064516129032,1.20322580645161,1.19677419354839,1.19677419354839,1.19677419354839,1.19032258064516,1.18387096774194,1.18387096774194,1.18709677419355,1.18709677419355,1.1741935483871,1.17741935483871,1.18387096774194,1.18387096774194,1.18387096774194,1.18709677419355,1.19032258064516,1.19354838709677,1.18709677419355,1.19032258064516,1.19032258064516,1.19032258064516,1.19032258064516,1.19354838709677,1.18387096774194,1.18387096774194,1.19032258064516,1.18387096774194,1.18387096774194,1.18709677419355,1.18387096774194,1.18387096774194,1.18387096774194,1.19032258064516,1.2,1.2,1.20322580645161,1.21935483870968,1.22903225806452,1.2258064516129,1.2258064516129,1.24516129032258,1.26451612903226,1.2741935483871,1.26451612903226,1.24838709677419,1.22903225806452,1.19032258064516,1.1741935483871,1.16451612903226,1.16774193548387,1.16129032258065,1.16774193548387,1.16774193548387,1.16774193548387,1.16451612903226,1.17741935483871,1.29677419354839,1.76774193548387,2.45483870967742,3.02903225806452,2.51935483870968,1.54193548387097,1.31935483870968,1.23870967741935,1.11935483870968,1.10322580645161,1.08064516129032,1.07096774193548,1.06451612903226,1.05806451612903,1.05161290322581,1.04838709677419,1.04516129032258,1.03225806451613,1.03548387096774,1.03225806451613,1.02903225806452,1.0258064516129,1.0258064516129,1.00967741935484,1.00322580645161,1,0.993548387096774,0.983870967741935,0.970967741935484,0.964516129032258,0.961290322580645,0.961290322580645,0.964516129032258,0.990322580645161,1.02258064516129,1.06129032258065,1.10645161290323,1.14838709677419,1.18064516129032,1.19032258064516,1.20967741935484,1.20322580645161,1.20322580645161,1.19677419354839,1.19354838709677,1.19032258064516,1.18709677419355,1.18709677419355,1.18387096774194,1.18709677419355,1.18064516129032,1.18064516129032,1.18387096774194,1.17741935483871,1.18387096774194,1.18387096774194,1.18709677419355,1.19032258064516,1.18709677419355,1.19032258064516,1.19354838709677,1.18709677419355,1.18709677419355,1.19032258064516,1.19032258064516,1.2,1.18387096774194,1.18709677419355,1.18709677419355,1.18709677419355,1.18709677419355,1.18709677419355,1.19677419354839,1.20322580645161,1.21290322580645,1.21612903225806,1.23548387096774,1.23225806451613,1.22903225806452,1.25161290322581,1.27096774193548,1.28064516129032,1.26451612903226,1.24838709677419,1.21935483870968,1.19032258064516,1.18387096774194,1.16774193548387,1.1741935483871,1.17096774193548,1.1741935483871,1.16451612903226,1.17096774193548,1.17741935483871,1.18064516129032,1.30645161290323,1.79354838709677,2.49032258064516,3.06451612903226,2.46129032258065,1.51290322580645,1.31290322580645,1.22258064516129,1.12903225806452,1.10645161290323,1.07741935483871,1.06129032258065,1.06129032258065,1.04516129032258,1.04193548387097,1.04193548387097,1.03870967741935,1.03548387096774,1.02903225806452,1.0258064516129,1.0258064516129,1.02258064516129,1.01935483870968,1.00322580645161,0.996774193548387,0.996774193548387,0.983870967741935,0.967741935483871,0.964516129032258,0.951612903225806,0.951612903225806,0.951612903225806,0.964516129032258,0.97741935483871,1.01290322580645,1.05806451612903,1.10322580645161,1.14193548387097,1.1741935483871,1.18709677419355,1.2,1.20322580645161,1.19677419354839,1.19032258064516,1.19032258064516,1.18387096774194,1.1741935483871,1.18064516129032,1.1741935483871,1.17096774193548,1.18064516129032,1.17741935483871,1.16774193548387,1.1741935483871,1.18064516129032,1.18064516129032,1.19677419354839,1.18064516129032,1.17741935483871,1.18064516129032,1.19032258064516,1.18709677419355,1.18387096774194,1.18387096774194,1.18709677419355,1.18387096774194,1.18064516129032,1.18387096774194,1.18709677419355,1.18387096774194,1.18709677419355,1.19677419354839,1.19677419354839,1.20322580645161,1.21935483870968,1.2258064516129,1.23225806451613,1.22903225806452,1.25161290322581,1.26451612903226,1.27741935483871,1.25483870967742,1.24838709677419,1.21612903225806,1.18709677419355,1.17096774193548,1.16129032258065,1.16129032258065,1.15483870967742,1.16129032258065,1.16451612903226,1.16451612903226,1.16451612903226,1.16129032258065,1.25483870967742,1.68387096774194,2.40645161290323,3.06451612903226,2.72903225806452,1.6258064516129,1.31612903225806,1.22903225806452,1.12903225806452,1.08387096774194,1.08387096774194,1.05806451612903,1.04838709677419,1.04838709677419,1.04193548387097,1.03548387096774,1.03225806451613,1.02258064516129,1.01935483870968,1.02258064516129,1.01612903225806,1.00967741935484,1.00645161290323,1.00322580645161,0.990322580645161,0.987096774193548,0.970967741935484,0.967741935483871,0.951612903225806,0.951612903225806,0.941935483870968,0.951612903225806,0.958064516129032,0.970967741935484,1,1.04838709677419,1.1,1.13870967741935,1.17096774193548,1.19354838709677,1.20322580645161,1.20967741935484,1.20322580645161,1.20322580645161,1.18387096774194,1.19677419354839,1.19032258064516,1.18709677419355,1.18064516129032,1.1741935483871,1.1741935483871,1.17741935483871,1.18064516129032,1.18387096774194,1.18064516129032,1.18387096774194,1.19354838709677,1.19032258064516,1.19032258064516,1.19677419354839,1.19032258064516,1.19354838709677,1.19032258064516,1.18064516129032,1.19032258064516,1.2,1.18709677419355,1.19032258064516,1.18064516129032,1.19677419354839,1.2,1.21290322580645,1.21935483870968,1.22258064516129,1.23870967741935,1.23225806451613,1.23870967741935,1.26774193548387,1.2741935483871,1.26774193548387,1.26129032258065,1.23870967741935,1.20322580645161,1.18064516129032,1.17096774193548,1.17096774193548,1.17096774193548,1.1741935483871,1.16774193548387,1.16451612903226,1.16774193548387,1.16774193548387,1.21612903225806,1.48709677419355,2.18064516129032,2.88064516129032,2.98709677419355,1.9,1.35483870967742,1.26451612903226,1.15483870967742,1.09677419354839,1.09032258064516,1.05483870967742,1.05483870967742,1.04838709677419,1.03870967741935,1.03548387096774,1.03548387096774,1.0258064516129,1.0258064516129,1.02258064516129,1.01935483870968,1.01935483870968,1.01290322580645,1.00322580645161,0.996774193548387,0.996774193548387,0.980645161290323,0.967741935483871,0.961290322580645,0.954838709677419,0.948387096774194,0.945161290322581,0.951612903225806,0.967741935483871,0.987096774193548,1.0258064516129,1.08709677419355,1.13225806451613,1.16129032258065,1.18709677419355,1.20322580645161,1.20967741935484,1.2,1.19677419354839,1.19032258064516,1.18387096774194,1.18064516129032,1.18387096774194,1.18387096774194,1.17741935483871,1.17741935483871,1.18064516129032,1.17741935483871,1.18064516129032,1.18387096774194,1.19032258064516,1.18709677419355,1.18709677419355,1.19032258064516,1.19032258064516,1.19032258064516,1.19354838709677,1.19677419354839,1.19354838709677,1.19032258064516,1.19032258064516,1.2,1.20967741935484,1.20967741935484,1.20645161290323,1.2258064516129,1.23225806451613,1.24193548387097,1.23225806451613,1.25161290322581,1.27096774193548,1.27096774193548,1.26774193548387,1.25161290322581,1.22903225806452,1.19354838709677,1.18064516129032,1.15806451612903,1.16774193548387,1.1741935483871,1.15806451612903,1.15483870967742,1.15806451612903,1.17741935483871,1.15483870967742,1.23548387096774,1.58064516129032,2.27741935483871,2.99354838709677,2.94838709677419,1.79354838709677,1.32903225806452,1.24516129032258,1.13548387096774,1.08387096774194,1.07096774193548,1.05806451612903,1.04516129032258,1.04193548387097,1.03225806451613,1.0258064516129,1.01935483870968,1.01612903225806,1.01290322580645,1.00967741935484,1.00645161290323,1,1.00645161290323,0.996774193548387,0.974193548387097,0.974193548387097,0.980645161290323,0.967741935483871,0.945161290322581,0.929032258064516,0.941935483870968,0.945161290322581,0.938709677419355,0.967741935483871,0.996774193548387,1.05806451612903,1.10645161290323,1.15483870967742,1.1741935483871,1.20322580645161,1.20645161290323,1.20322580645161,1.2,1.19032258064516,1.19032258064516,1.18064516129032,1.18064516129032,1.18387096774194,1.16774193548387,1.1741935483871,1.1741935483871,1.16129032258065,1.17741935483871,1.1741935483871,1.17741935483871,1.1741935483871,1.18387096774194,1.18064516129032,1.17741935483871,1.17741935483871,1.19032258064516,1.16774193548387,1.18064516129032,1.18387096774194,1.19032258064516,1.19354838709677,1.1741935483871,1.18387096774194,1.19032258064516,1.17741935483871,1.19354838709677,1.20967741935484,1.21612903225806,1.23548387096774,1.21612903225806,1.24193548387097,1.26129032258065,1.27096774193548,1.26774193548387,1.25483870967742,1.22258064516129,1.19354838709677,1.17096774193548,1.1741935483871,1.15806451612903,1.16451612903226,1.15806451612903,1.17096774193548,1.16129032258065,1.1741935483871,1.17096774193548,1.2,1.44516129032258,2.11612903225806,2.87096774193548,3.05806451612903,2,1.37096774193548,1.29032258064516,1.18387096774194,1.11290322580645,1.09032258064516,1.06774193548387,1.06129032258065,1.05806451612903,1.05483870967742,1.03870967741935,1.03870967741935,1.05161290322581,1.03548387096774,1.04516129032258,1.0258064516129,1.02903225806452,1.01935483870968,1.01612903225806,1.02258064516129,1.00645161290323,1.00645161290323,0.974193548387097,0.961290322580645,0.954838709677419,0.954838709677419,0.954838709677419,0.961290322580645,0.967741935483871,0.993548387096774,1.02258064516129,1.09032258064516,1.13548387096774,1.18387096774194,1.2,1.20967741935484,1.19677419354839,1.20645161290323,1.18387096774194,1.19354838709677,1.19677419354839,1.19354838709677,1.18387096774194,1.18064516129032,1.19677419354839,1.18709677419355,1.20322580645161,1.19354838709677,1.20322580645161,1.2,1.19354838709677,1.19677419354839,1.19354838709677,1.19354838709677,1.19032258064516,1.2,1.15806451612903,1.18709677419355,1.19677419354839,1.19354838709677,1.19032258064516,1.18709677419355,1.18709677419355,1.19677419354839,1.18709677419355,1.19354838709677,1.2,1.21290322580645,1.19032258064516,1.21612903225806,1.21935483870968,1.22258064516129,1.23870967741935,1.23225806451613,1.24838709677419,1.27096774193548,1.24838709677419,1.24193548387097,1.21290322580645,1.18709677419355,1.17096774193548,1.15483870967742,1.16451612903226,1.15161290322581,1.15806451612903,1.16451612903226,1.15483870967742,1.16774193548387,1.16774193548387,1.33870967741935,1.89677419354839,2.60645161290323,3.01935483870968,2.17096774193548,1.42903225806452,1.3,1.21935483870968,1.11935483870968,1.10322580645161,1.08387096774194,1.0741935483871,1.04838709677419,1.06774193548387,1.04838709677419,1.05161290322581,1.03225806451613,1.03548387096774,1.03225806451613,1.03225806451613,1.02903225806452,1.02258064516129,1.00322580645161,1.00645161290323,1.00322580645161,0.996774193548387,0.993548387096774,0.97741935483871,0.961290322580645,0.961290322580645,0.958064516129032,0.961290322580645,0.967741935483871,0.993548387096774,1.02258064516129,1.07096774193548,1.11935483870968,1.16129032258065,1.18064516129032,1.2,1.23225806451613,1.19354838709677,1.20645161290323,1.2,1.19032258064516,1.17741935483871,1.17741935483871,1.18064516129032,1.18064516129032,1.19032258064516,1.18387096774194,1.18709677419355,1.18709677419355,1.19032258064516,1.19354838709677,1.18709677419355,1.2,1.19677419354839,1.20322580645161,1.19032258064516,1.19677419354839,1.19677419354839,1.19354838709677,1.19354838709677,1.19677419354839,1.18064516129032,1.18387096774194,1.18709677419355,1.17741935483871,1.1741935483871,1.19354838709677,1.20967741935484,1.19354838709677,1.2258064516129,1.21612903225806,1.21935483870968,1.22258064516129,1.22258064516129,1.24838709677419,1.26451612903226,1.27096774193548,1.25161290322581,1.23225806451613,1.19032258064516,1.18064516129032,1.16451612903226,1.16451612903226,1.16451612903226,1.15161290322581,1.15161290322581,1.15806451612903,1.16774193548387,1.14838709677419,1.21935483870968,1.53225806451613,2.18709677419355,2.84193548387097,2.84193548387097,1.82258064516129,1.34516129032258,1.26129032258065,1.16129032258065,1.09677419354839,1.09032258064516,1.06774193548387,1.04516129032258,1.05161290322581,1.04193548387097,1.03870967741935,1.03225806451613,1.03225806451613,1.0258064516129,1.0258064516129,1.01935483870968,1.01612903225806,1.01935483870968,1.00322580645161,1.00322580645161,0.996774193548387,0.980645161290323,0.97741935483871,0.970967741935484,0.954838709677419,0.954838709677419,0.948387096774194,0.961290322580645,0.970967741935484,1,1.04516129032258,1.08709677419355,1.13548387096774,1.15806451612903,1.19354838709677,1.20967741935484,1.20645161290323,1.20645161290323,1.20645161290323,1.19677419354839,1.18387096774194,1.19354838709677,1.18064516129032,1.18064516129032,1.17096774193548,1.18709677419355,1.18387096774194,1.19032258064516,1.19354838709677,1.19354838709677,1.19354838709677,1.18709677419355,1.18709677419355,1.19032258064516,1.19354838709677,1.19354838709677,1.19354838709677,1.19032258064516,1.18064516129032,1.18064516129032,1.19032258064516,1.18387096774194,1.18064516129032,1.18387096774194,1.17741935483871,1.18709677419355,1.18064516129032,1.18387096774194,1.18387096774194,1.19677419354839,1.20322580645161,1.20967741935484,1.22258064516129,1.21612903225806,1.2258064516129,1.24516129032258,1.26129032258065,1.27096774193548,1.2741935483871,1.25161290322581,1.23225806451613,1.19354838709677,1.18709677419355,1.17741935483871,1.1741935483871,1.16774193548387,1.16451612903226,1.17096774193548,1.1741935483871,1.1741935483871,1.18064516129032,1.2741935483871,1.70645161290323,2.36774193548387,3.01935483870968,2.73225806451613,1.68064516129032,1.35806451612903,1.25483870967742,1.15161290322581,1.10967741935484,1.09032258064516,1.07096774193548,1.06774193548387,1.06129032258065,1.05806451612903,1.04516129032258,1.04838709677419,1.04193548387097,1.03225806451613,1.03548387096774,1.03225806451613,1.01935483870968,1.02258064516129,1.00967741935484,1.00967741935484,0.996774193548387,0.987096774193548,0.980645161290323,0.967741935483871,0.961290322580645,0.961290322580645,0.951612903225806,0.970967741935484,0.987096774193548,1.01612903225806,1.05161290322581,1.10322580645161,1.14516129032258,1.17741935483871,1.20322580645161,1.21612903225806,1.20967741935484,1.21290322580645,1.20967741935484,1.20322580645161,1.2,1.19354838709677,1.19354838709677,1.19354838709677,1.19354838709677,1.19032258064516,1.19032258064516,1.17741935483871,1.18064516129032,1.19032258064516,1.19032258064516,1.19032258064516,1.19032258064516,1.19032258064516,1.2,1.19354838709677,1.19354838709677,1.19354838709677,1.19032258064516,1.19032258064516,1.19032258064516,1.19032258064516,1.18064516129032,1.18709677419355,1.18709677419355,1.18709677419355,1.18387096774194,1.19032258064516,1.18064516129032,1.18387096774194,1.18709677419355,1.19677419354839,1.20967741935484,1.21290322580645,1.21935483870968,1.2258064516129,1.22258064516129,1.24516129032258,1.25806451612903,1.27741935483871,1.25806451612903,1.24838709677419,1.21935483870968,1.18387096774194,1.17096774193548,1.15483870967742,1.16129032258065,1.15806451612903,1.15806451612903,1.15483870967742,1.15806451612903,1.15806451612903,1.16129032258065,1.26774193548387,1.72903225806452,2.40967741935484,3.03548387096774,2.62903225806452,1.59677419354839,1.31612903225806,1.2258064516129,1.11935483870968,1.08709677419355,1.06129032258065,1.04838709677419,1.05161290322581,1.04193548387097,1.0258064516129,1.0258064516129,1.02258064516129,1.01935483870968,1.01290322580645,1.00967741935484,1.01290322580645,1.00645161290323,1,0.996774193548387,0.990322580645161,0.97741935483871,0.967741935483871,0.961290322580645,0.954838709677419,0.938709677419355,0.938709677419355,0.938709677419355,0.935483870967742,0.954838709677419,0.980645161290323,1.02903225806452,1.08064516129032,1.12903225806452,1.16129032258065,1.18709677419355,1.19677419354839,1.19354838709677,1.19354838709677,1.18709677419355,1.18387096774194,1.18064516129032,1.18064516129032,1.1741935483871,1.1741935483871,1.17096774193548,1.17096774193548,1.17096774193548,1.1741935483871,1.17096774193548,1.17741935483871,1.1741935483871,1.18064516129032,1.17741935483871,1.18387096774194,1.19032258064516,1.18387096774194,1.18709677419355,1.19354838709677,1.18387096774194,1.18387096774194,1.19032258064516,1.17741935483871,1.18064516129032,1.18064516129032,1.18709677419355,1.18387096774194,1.1741935483871,1.18387096774194,1.18387096774194,1.17741935483871,1.18064516129032,1.2,1.19354838709677,1.20967741935484,1.21290322580645,1.23225806451613,1.23548387096774,1.23225806451613,1.25161290322581,1.27096774193548,1.28709677419355,1.2741935483871,1.26129032258065,1.24193548387097,1.2,1.18709677419355,1.18064516129032,1.17741935483871,1.1741935483871,1.17096774193548,1.1741935483871,1.17741935483871,1.18387096774194,1.18064516129032,1.25806451612903,1.66129032258065,2.35161290322581,3.0258064516129,2.79677419354839,1.69677419354839,1.33870967741935,1.25161290322581,1.15161290322581,1.10645161290323,1.09032258064516,1.08064516129032,1.07741935483871,1.06451612903226,1.06129032258065,1.05806451612903,1.04838709677419,1.05161290322581,1.03548387096774,1.04193548387097,1.04516129032258,1.04193548387097,1.02903225806452,1.03225806451613,1.01612903225806,1.01290322580645,1.00322580645161,0.996774193548387,0.983870967741935,0.97741935483871,0.974193548387097,0.967741935483871,0.97741935483871,0.987096774193548,1.01290322580645,1.06129032258065,1.11290322580645,1.15806451612903,1.19354838709677,1.21612903225806,1.23225806451613,1.23548387096774,1.23870967741935,1.22903225806452,1.2258064516129,1.21612903225806,1.21935483870968,1.21612903225806,1.20645161290323,1.21290322580645,1.21290322580645,1.21290322580645,1.20967741935484,1.21290322580645,1.21290322580645,1.21612903225806,1.21612903225806,1.21612903225806,1.21612903225806,1.21935483870968,1.21935483870968,1.21290322580645,1.20967741935484,1.20645161290323,1.21612903225806,1.21612903225806,1.20322580645161,1.2,1.20322580645161,1.19032258064516,1.19354838709677,1.19677419354839,1.18387096774194,1.18387096774194,1.18709677419355,1.19354838709677,1.2,1.20645161290323,1.20645161290323,1.21612903225806,1.23225806451613,1.21612903225806,1.22258064516129,1.24838709677419,1.25806451612903,1.24838709677419,1.2258064516129,1.21935483870968
1.24193548387097,1.23548387096774,1.24193548387097,1.24193548387097,1.25806451612903,1.23548387096774,1.25806451612903,1.25806451612903,1.26129032258065,1.27741935483871,1.27096774193548,1.28709677419355,1.30967741935484,1.28709677419355,1.27741935483871,1.24838709677419,1.21935483870968,1.20322580645161,1.18709677419355,1.19354838709677,1.18064516129032,1.18709677419355,1.19354838709677,1.18387096774194,1.19354838709677,1.19354838709677,1.36451612903226,1.92258064516129,2.63225806451613,3.04193548387097,2.19354838709677,1.44838709677419,1.31935483870968,1.24193548387097,1.13870967741935,1.12258064516129,1.10322580645161,1.09354838709677,1.06451612903226,1.08387096774194,1.06451612903226,1.06774193548387,1.04838709677419,1.04838709677419,1.04516129032258,1.04193548387097,1.04193548387097,1.03548387096774,1.01290322580645,1.01612903225806,1.00967741935484,1.00322580645161,1.00322580645161,0.983870967741935,0.970967741935484,0.970967741935484,0.964516129032258,0.967741935483871,0.974193548387097,0.996774193548387,1.0258064516129,1.0741935483871,1.12258064516129,1.16451612903226,1.18064516129032,1.20322580645161,1.23225806451613,1.19677419354839,1.20645161290323,1.2,1.19354838709677,1.17741935483871,1.17741935483871,1.18064516129032,1.18064516129032,1.19032258064516,1.18387096774194,1.18387096774194,1.18387096774194,1.18709677419355,1.19032258064516,1.18387096774194,1.19677419354839,1.19354838709677,1.2,1.18709677419355,1.19032258064516,1.19354838709677,1.19032258064516,1.18709677419355,1.19032258064516,1.1741935483871,1.17741935483871,1.18064516129032,1.17096774193548,1.16774193548387,1.18709677419355,1.20322580645161,1.18709677419355,1.21935483870968,1.20967741935484,1.21290322580645,1.21612903225806,1.21612903225806,1.24193548387097,1.25483870967742,1.26451612903226,1.24516129032258,1.2258064516129,1.18387096774194,1.1741935483871,1.15806451612903,1.15806451612903,1.15806451612903,1.14516129032258,1.14516129032258,1.15161290322581,1.16129032258065,1.14193548387097,1.21290322580645,1.5258064516129,2.17741935483871,2.83548387096774,2.83548387096774,1.81612903225806,1.33870967741935,1.25483870967742,1.15483870967742,1.09032258064516,1.08387096774194,1.06129032258065,1.03870967741935,1.04516129032258,1.03870967741935,1.03548387096774,1.0258064516129,1.0258064516129,1.01935483870968,1.01935483870968,1.01290322580645,1.00967741935484,1.01290322580645,0.996774193548387,1,0.993548387096774,0.974193548387097,0.974193548387097,0.964516129032258,0.951612903225806,0.948387096774194,0.945161290322581,0.954838709677419,0.967741935483871,0.996774193548387,1.04193548387097,1.08387096774194,1.12903225806452,1.15161290322581,1.19032258064516,1.20322580645161,1.20322580645161,1.20322580645161,1.20322580645161,1.19354838709677,1.18064516129032,1.19032258064516,1.17741935483871,1.17741935483871,1.16774193548387,1.18387096774194,1.18064516129032,1.18709677419355,1.19032258064516,1.19032258064516,1.19032258064516,1.18387096774194,1.18387096774194,1.18709677419355,1.19354838709677,1.19032258064516,1.19032258064516,1.18709677419355,1.17741935483871,1.17741935483871,1.18709677419355,1.18064516129032,1.17741935483871,1.18387096774194,1.1741935483871,1.18709677419355,1.17741935483871,1.18064516129032,1.18387096774194,1.19354838709677,1.20322580645161,1.20645161290323,1.21935483870968,1.21290322580645,1.2258064516129,1.24516129032258,1.25806451612903,1.26774193548387,1.27096774193548,1.25161290322581,1.23225806451613,1.19032258064516,1.18387096774194,1.1741935483871,1.17096774193548,1.16774193548387,1.16129032258065,1.16774193548387,1.17096774193548,1.1741935483871,1.18064516129032,1.2741935483871,1.70322580645161,2.36774193548387,3.01612903225806,2.72903225806452,1.67741935483871,1.35806451612903,1.25483870967742,1.14838709677419,1.10645161290323,1.09032258064516,1.06774193548387,1.06451612903226,1.05806451612903,1.05806451612903,1.04516129032258,1.04516129032258,1.03870967741935,1.03225806451613,1.03548387096774,1.03225806451613,1.01935483870968,1.01935483870968,1.00967741935484,1.00967741935484,0.993548387096774,0.987096774193548,0.980645161290323,0.967741935483871,0.961290322580645,0.958064516129032,0.951612903225806,0.967741935483871,0.983870967741935,1.01612903225806,1.05161290322581,1.10322580645161,1.14516129032258,1.17741935483871,1.20322580645161,1.21612903225806,1.20967741935484,1.21290322580645,1.20967741935484,1.20322580645161,1.2,1.19354838709677,1.19354838709677,1.19354838709677,1.19354838709677,1.19032258064516,1.19032258064516,1.18064516129032,1.18064516129032,1.19032258064516,1.19032258064516,1.19032258064516,1.19032258064516,1.19032258064516,1.20322580645161,1.19354838709677,1.19677419354839,1.19354838709677,1.19032258064516,1.19032258064516,1.19032258064516,1.19032258064516,1.18387096774194,1.18709677419355,1.19032258064516,1.18709677419355,1.18387096774194,1.19032258064516,1.18064516129032,1.18709677419355,1.19032258064516,1.2,1.21290322580645,1.21612903225806,1.22258064516129,1.22903225806452,1.22903225806452,1.24838709677419,1.26129032258065,1.28387096774194,1.26451612903226,1.25161290322581,1.2258064516129,1.18709677419355,1.17741935483871,1.16129032258065,1.16774193548387,1.16451612903226,1.16451612903226,1.16129032258065,1.16451612903226,1.16451612903226,1.16774193548387,1.2741935483871,1.73548387096774,2.41612903225806,3.04193548387097,2.63548387096774,1.60322580645161,1.32258064516129,1.23225806451613,1.1258064516129,1.09354838709677,1.06774193548387,1.05483870967742,1.05806451612903,1.04838709677419,1.03225806451613,1.03548387096774,1.03225806451613,1.0258064516129,1.02258064516129,1.01612903225806,1.01935483870968,1.01290322580645,1.00967741935484,1.00322580645161,0.996774193548387,0.987096774193548,0.97741935483871,0.970967741935484,0.961290322580645,0.948387096774194,0.948387096774194,0.948387096774194,0.945161290322581,0.964516129032258,0.990322580645161,1.03870967741935,1.09032258064516,1.13870967741935,1.17096774193548,1.19677419354839,1.20645161290323,1.20322580645161,1.20322580645161,1.19677419354839,1.19354838709677,1.18709677419355,1.19032258064516,1.18387096774194,1.18387096774194,1.18064516129032,1.17741935483871,1.17741935483871,1.18064516129032,1.18064516129032,1.18709677419355,1.18387096774194,1.18709677419355,1.18709677419355,1.19032258064516,1.19677419354839,1.18709677419355,1.19354838709677,1.19677419354839,1.19032258064516,1.19032258064516,1.19677419354839,1.18387096774194,1.18387096774194,1.18709677419355,1.19032258064516,1.18709677419355,1.17741935483871,1.18709677419355,1.18709677419355,1.18064516129032,1.18387096774194,1.2,1.19354838709677,1.20967741935484,1.21290322580645,1.23225806451613,1.23225806451613,1.22903225806452,1.25161290322581,1.26774193548387,1.28387096774194,1.27096774193548,1.25806451612903,1.23548387096774,1.19354838709677,1.18064516129032,1.1741935483871,1.17096774193548,1.16774193548387,1.16451612903226,1.16451612903226,1.16774193548387,1.1741935483871,1.17096774193548,1.24838709677419,1.65161290322581,2.33870967741935,3.01290322580645,2.78387096774194,1.68387096774194,1.3258064516129,1.23870967741935,1.13548387096774,1.08709677419355,1.07096774193548,1.06129032258065,1.06129032258065,1.04516129032258,1.04193548387097,1.03870967741935,1.02903225806452,1.02903225806452,1.01290322580645,1.01935483870968,1.02258064516129,1.01935483870968,1.00322580645161,1.00645161290323,0.993548387096774,0.987096774193548,0.97741935483871,0.970967741935484,0.958064516129032,0.951612903225806,0.945161290322581,0.941935483870968,0.948387096774194,0.958064516129032,0.983870967741935,1.03225806451613,1.08387096774194,1.12903225806452,1.16129032258065,1.18387096774194,1.2,1.20645161290323,1.20967741935484,1.2,1.19354838709677,1.18709677419355,1.19032258064516,1.18387096774194,1.17741935483871,1.18387096774194,1.18387096774194,1.18387096774194,1.18064516129032,1.18387096774194,1.18709677419355,1.18709677419355,1.18709677419355,1.19032258064516,1.19032258064516,1.19354838709677,1.19677419354839,1.19354838709677,1.18709677419355,1.18709677419355,1.19677419354839,1.19677419354839,1.18709677419355,1.18709677419355,1.19032258064516,1.18064516129032,1.18387096774194,1.19032258064516,1.18064516129032,1.18064516129032,1.18709677419355,1.19354838709677,1.20322580645161,1.21290322580645,1.21612903225806,1.22903225806452,1.24516129032258,1.23225806451613,1.24193548387097,1.27096774193548,1.28709677419355,1.27741935483871,1.25806451612903,1.25483870967742,1.20967741935484,1.19677419354839,1.18709677419355,1.17096774193548,1.18064516129032,1.1741935483871,1.17096774193548,1.17741935483871,1.18064516129032,1.1741935483871,1.21290322580645,1.44838709677419,2.11935483870968,2.83225806451613,3.01612903225806,1.97741935483871,1.38387096774194,1.3,1.18064516129032,1.11290322580645,1.1,1.08064516129032,1.06774193548387,1.05483870967742,1.05161290322581,1.05161290322581,1.04193548387097,1.03225806451613,1.03548387096774,1.02903225806452,1.0258064516129,1.01612903225806,1.02258064516129,1.00967741935484,1.00645161290323,1,0.987096774193548,0.980645161290323,0.958064516129032,0.954838709677419,0.941935483870968,0.948387096774194,0.948387096774194,0.954838709677419,0.980645161290323,1.01290322580645,1.06774193548387,1.11290322580645,1.15483870967742,1.1741935483871,1.2,1.20645161290323,1.20967741935484,1.19677419354839,1.19354838709677,1.19032258064516,1.19032258064516,1.1741935483871,1.18064516129032,1.18064516129032,1.17741935483871,1.18064516129032,1.19032258064516,1.18064516129032,1.18387096774194,1.18387096774194,1.18709677419355,1.19032258064516,1.18709677419355,1.19032258064516,1.19032258064516,1.19032258064516,1.18387096774194,1.18387096774194,1.18387096774194,1.19354838709677,1.18709677419355,1.18709677419355,1.18709677419355,1.18064516129032,1.17096774193548,1.18064516129032,1.18064516129032,1.18709677419355,1.18064516129032,1.18387096774194,1.18387096774194,1.19354838709677,1.19032258064516,1.21290322580645,1.21290322580645,1.21935483870968,1.23548387096774,1.23548387096774,1.23870967741935,1.26129032258065,1.27096774193548,1.26451612903226,1.26129032258065,1.23870967741935,1.19354838709677,1.18064516129032,1.17096774193548,1.16451612903226,1.16774193548387,1.16129032258065,1.16129032258065,1.15806451612903,1.16774193548387,1.16451612903226,1.22258064516129,1.5258064516129,2.24516129032258,2.97096774193548,2.99354838709677,1.85161290322581,1.34193548387097,1.25806451612903,1.15483870967742,1.1,1.07741935483871,1.07096774193548,1.06451612903226,1.03870967741935,1.04516129032258,1.03225806451613,1.03225806451613,1.02903225806452,1.01290322580645,1.00967741935484,1.0258064516129,1,1.01290322580645,0.987096774193548,0.996774193548387,0.983870967741935,0.974193548387097,0.954838709677419,0.958064516129032,0.951612903225806,0.941935483870968,0.935483870967742,0.948387096774194,0.958064516129032,0.980645161290323,1.02903225806452,1.08064516129032,1.12903225806452,1.15483870967742,1.19354838709677,1.21290322580645,1.20645161290323,1.21612903225806,1.20967741935484,1.18387096774194,1.20322580645161,1.19354838709677,1.17741935483871,1.17741935483871,1.17741935483871,1.18709677419355,1.20967741935484,1.18709677419355,1.19032258064516,1.2,1.18709677419355,1.19032258064516,1.19677419354839,1.19677419354839,1.18709677419355,1.20322580645161,1.19354838709677,1.19354838709677,1.19032258064516,1.20322580645161,1.19354838709677,1.19032258064516,1.19677419354839,1.19032258064516,1.18064516129032,1.18064516129032,1.18387096774194,1.19032258064516,1.18387096774194,1.18709677419355,1.18709677419355,1.19354838709677,1.19354838709677,1.18709677419355,1.20967741935484,1.20967741935484,1.2258064516129,1.2258064516129,1.23870967741935,1.25161290322581,1.27096774193548,1.26774193548387,1.25483870967742,1.25483870967742,1.23548387096774,1.19677419354839,1.19032258064516,1.17096774193548,1.17096774193548,1.1741935483871,1.16451612903226,1.17741935483871,1.16129032258065,1.17096774193548,1.15806451612903,1.2258064516129,1.63870967741935,2.37741935483871,3.06129032258065,2.79677419354839,1.68709677419355,1.32903225806452,1.23548387096774,1.13548387096774,1.09032258064516,1.0741935483871,1.06451612903226,1.05161290322581,1.04838709677419,1.03548387096774,1.03225806451613,1.03870967741935,1.03548387096774,1.00967741935484,1.02258064516129,1.03548387096774,1.02258064516129,1.00322580645161,0.996774193548387,1.00322580645161,0.983870967741935,0.987096774193548,0.97741935483871,0.954838709677419,0.954838709677419,0.941935483870968,0.945161290322581,0.932258064516129,0.958064516129032,1.00967741935484,1.02258064516129,1.09354838709677,1.1258064516129,1.16451612903226,1.17741935483871,1.2,1.20322580645161,1.2,1.19032258064516,1.1741935483871,1.17096774193548,1.18387096774194,1.18064516129032,1.18387096774194,1.1741935483871,1.19032258064516,1.17741935483871,1.18387096774194,1.18064516129032,1.19354838709677,1.19032258064516,1.18387096774194,1.19032258064516,1.18064516129032,1.19677419354839,1.18709677419355,1.18709677419355,1.18064516129032,1.18064516129032,1.19032258064516,1.20645161290323,1.19354838709677,1.18709677419355,1.19677419354839,1.19677419354839,1.18709677419355,1.18064516129032,1.18387096774194,1.18064516129032,1.18709677419355,1.19032258064516,1.19032258064516,1.19354838709677,1.20322580645161,1.21290322580645,1.21290322580645,1.21935483870968,1.21935483870968,1.23225806451613,1.22903225806452,1.24838709677419,1.26129032258065,1.28064516129032,1.25806451612903,1.25806451612903,1.22258064516129,1.19677419354839,1.18709677419355,1.16451612903226,1.18064516129032,1.1741935483871,1.1741935483871,1.1741935483871,1.18064516129032,1.16774193548387,1.19354838709677,1.35806451612903,1.90967741935484,2.63225806451613,3.06129032258065,2.20322580645161,1.44838709677419,1.31290322580645,1.21935483870968,1.12903225806452,1.10645161290323,1.08709677419355,1.0741935483871,1.0741935483871,1.06774193548387,1.05161290322581,1.05161290322581,1.04838709677419,1.04516129032258,1.03548387096774,1.03870967741935,1.03548387096774,1.01612903225806,1.02258064516129,1.02258064516129,1,0.996774193548387,0.983870967741935,0.97741935483871,0.967741935483871,0.964516129032258,0.954838709677419,0.951612903225806,0.954838709677419,0.974193548387097,1.01612903225806,1.06451612903226,1.11612903225806,1.13548387096774,1.1741935483871,1.19032258064516,1.19677419354839,1.20645161290323,1.19354838709677,1.20322580645161,1.18387096774194,1.18387096774194,1.18387096774194,1.19032258064516,1.19354838709677,1.18387096774194,1.19032258064516,1.19032258064516,1.18064516129032,1.19354838709677,1.20322580645161,1.19677419354839,1.2,1.18709677419355,1.19677419354839,1.19677419354839,1.19677419354839,1.20322580645161,1.2,1.19032258064516,1.19354838709677,1.18709677419355,1.20322580645161,1.19032258064516,1.18709677419355,1.19032258064516,1.18387096774194,1.18387096774194,1.19032258064516,1.18387096774194,1.18387096774194,1.17741935483871,1.19032258064516,1.19677419354839,1.20322580645161,1.20322580645161,1.21290322580645,1.23225806451613,1.2258064516129,1.2258064516129,1.23870967741935,1.24838709677419,1.26774193548387,1.26129032258065,1.25161290322581,1.23225806451613,1.19677419354839,1.18387096774194,1.16774193548387,1.18064516129032,1.17096774193548,1.17096774193548,1.17096774193548,1.16774193548387,1.1741935483871,1.15806451612903,1.23225806451613,1.59354838709677,2.2741935483871,2.95806451612903,2.84838709677419,1.78387096774194,1.34516129032258,1.26451612903226,1.13870967741935,1.10322580645161,1.08064516129032,1.07096774193548,1.05161290322581,1.05806451612903,1.05161290322581,1.04838709677419,1.05161290322581,1.03548387096774,1.03870967741935,1.01935483870968,1.0258064516129,1.02258064516129,1.02258064516129,1.00967741935484,1.00322580645161,0.990322580645161,0.980645161290323,0.970967741935484,0.967741935483871,0.954838709677419,0.948387096774194,0.951612903225806,0.948387096774194,0.961290322580645,0.996774193548387,1.01935483870968,1.0741935483871,1.11935483870968,1.15483870967742,1.18064516129032,1.19032258064516,1.20967741935484,1.2,1.19032258064516,1.18709677419355,1.18709677419355,1.18387096774194,1.17741935483871,1.1741935483871,1.1741935483871,1.17096774193548,1.17741935483871,1.17096774193548,1.17741935483871,1.16774193548387,1.17741935483871,1.1741935483871,1.17741935483871,1.18064516129032,1.18709677419355,1.17741935483871,1.19032258064516,1.18387096774194,1.18064516129032,1.18387096774194,1.18064516129032,1.1741935483871,1.17096774193548,1.18064516129032,1.1741935483871,1.18064516129032,1.1741935483871,1.17096774193548,1.16774193548387,1.17741935483871,1.17096774193548,1.1741935483871,1.18709677419355,1.19032258064516,1.19354838709677,1.19677419354839,1.20967741935484,1.21612903225806,1.21612903225806,1.22903225806452,1.25806451612903,1.25806451612903,1.25483870967742,1.24838709677419,1.23548387096774,1.19677419354839,1.18064516129032,1.16774193548387,1.16451612903226,1.16129032258065,1.16451612903226,1.16774193548387,1.16451612903226,1.1741935483871,1.16774193548387,1.22258064516129,1.5,2.18064516129032,2.86451612903226,2.95161290322581,1.9,1.36129032258065,1.27741935483871,1.17096774193548,1.1,1.08709677419355,1.0741935483871,1.05806451612903,1.05161290322581,1.04516129032258,1.04516129032258,1.03870967741935,1.03870967741935,1.03225806451613,1.03225806451613,1.02258064516129,1.02258064516129,1.01935483870968,1.00967741935484,1.00322580645161,1,0.990322580645161,0.983870967741935,0.974193548387097,0.964516129032258,0.961290322580645,0.954838709677419,0.964516129032258,0.967741935483871,0.993548387096774,1.0258064516129,1.07741935483871,1.12258064516129,1.15483870967742,1.19032258064516,1.20322580645161,1.21612903225806,1.20322580645161,1.20967741935484,1.20645161290323,1.19354838709677,1.19677419354839,1.18709677419355,1.19354838709677,1.19032258064516,1.17741935483871,1.19677419354839,1.19032258064516,1.19677419354839,1.19354838709677,1.18709677419355,1.19677419354839,1.19677419354839,1.2,1.19354838709677,1.19677419354839,1.20645161290323,1.20967741935484,1.2,1.20645161290323,1.20645161290323,1.2,1.19354838709677,1.20645161290323,1.2,1.2,1.19677419354839,1.19677419354839,1.19677419354839,1.2,1.2,1.2,1.19354838709677,1.19677419354839,1.2,1.2,1.20322580645161,1.2,1.20645161290323,1.20967741935484,1.21935483870968,1.21935483870968,1.2258064516129,1.23225806451613,1.24838709677419,1.25161290322581,1.25483870967742,1.27096774193548,1.27741935483871,1.29354838709677,1.28709677419355,1.28709677419355,1.25483870967742,1.21935483870968,1.20322580645161,1.19677419354839,1.19354838709677,1.19677419354839,1.19354838709677,1.19354838709677,1.18387096774194,1.18709677419355,1.20645161290323,1.33548387096774,1.83548387096774,2.54193548387097,3.09354838709677,2.40322580645161,1.50645161290323,1.31935483870968,1.23548387096774,1.13548387096774,1.10645161290323,1.08709677419355,1.08064516129032,1.0741935483871,1.06774193548387,1.05483870967742,1.04838709677419,1.04838709677419,1.04193548387097,1.04193548387097,1.03548387096774,1.03548387096774,1.02903225806452,1.0258064516129,1.02258064516129,1.00322580645161,1.00322580645161,0.990322580645161,0.983870967741935,0.967741935483871,0.967741935483871,0.958064516129032,0.954838709677419,0.961290322580645,0.974193548387097,0.990322580645161,1.03548387096774,1.08387096774194,1.12903225806452,1.15483870967742,1.18064516129032,1.19032258064516,1.2,1.20322580645161,1.19032258064516,1.18709677419355,1.18709677419355,1.17741935483871,1.1741935483871,1.16774193548387,1.16774193548387,1.16774193548387,3,1.16774193548387,1.16451612903226,1.16451612903226,1.15806451612903,1.16129032258065,1.16129032258065,1.17096774193548,1.16451612903226,1.16451612903226,1.15806451612903,1.15806451612903,1.15806451612903,1.15806451612903,1.16129032258065,1.15161290322581,1.15483870967742,1.14516129032258,1.15161290322581,1.14838709677419,1.14838709677419,1.14838709677419,1.14516129032258,1.14193548387097,1.14516129032258,1.13870967741935,1.14193548387097,1.13548387096774,1.13548387096774,1.15483870967742,1.15483870967742,1.15806451612903,1.17096774193548,1.17741935483871,1.19354838709677,1.19032258064516,1.20645161290323,1.21290322580645,1.22258064516129,1.2258064516129,1.20967741935484,1.19354838709677,1.14193548387097,1.14838709677419,1.12258064516129,1.1258064516129,1.12258064516129,1.11935483870968,1.12903225806452,1.1258064516129,1.13225806451613,1.12903225806452,1.18387096774194,1.43548387096774,2.11612903225806,2.82258064516129,2.96129032258065,1.90322580645161,1.33870967741935,1.25161290322581,1.14838709677419,1.08387096774194,1.0741935483871,1.05483870967742,1.05161290322581,1.04838709677419,1.04193548387097,1.04838709677419,1.04838709677419,1.05161290322581,1.04838709677419,1.04838709677419,1.04838709677419,1.05161290322581,1.05483870967742,1.05483870967742,1.04838709677419,1.05161290322581,1.04838709677419,1.05483870967742
1.21612903225806,1.20645161290323,1.22258064516129,1.22258064516129,1.21935483870968,1.21612903225806,1.21290322580645,1.20967741935484,1.21290322580645,1.2258064516129,1.23870967741935,1.24838709677419,1.25806451612903,1.24516129032258,1.26774193548387,1.28387096774194,1.29677419354839,1.29032258064516,1.27096774193548,1.23870967741935,1.20645161290323,1.20645161290323,1.18709677419355,1.18387096774194,1.19032258064516,1.18387096774194,1.18709677419355,1.18709677419355,1.1741935483871,1.16451612903226,1.22903225806452,1.57741935483871,2.28387096774194,2.97096774193548,2.92258064516129,1.8258064516129,1.34193548387097,1.26451612903226,1.15806451612903,1.09677419354839,1.09354838709677,1.0741935483871,1.07096774193548,1.05161290322581,1.06129032258065,1.04193548387097,1.05483870967742,1.0258064516129,1.03548387096774,1.04193548387097,1.0258064516129,1.02258064516129,1.01612903225806,1.01290322580645,1.00322580645161,1.00322580645161,0.993548387096774,0.974193548387097,0.970967741935484,0.951612903225806,0.951612903225806,0.938709677419355,0.951612903225806,0.958064516129032,0.990322580645161,1.01290322580645,1.07096774193548,1.12903225806452,1.15161290322581,1.1741935483871,1.18064516129032,1.20645161290323,1.2,1.20322580645161,1.18709677419355,1.18064516129032,1.1741935483871,1.18709677419355,1.18064516129032,1.1741935483871,1.17741935483871,1.16774193548387,1.17741935483871,1.17741935483871,1.1741935483871,1.18387096774194,1.18709677419355,1.18709677419355,1.18064516129032,1.18387096774194,1.19354838709677,1.17741935483871,1.19032258064516,1.17096774193548,1.19032258064516,1.18387096774194,1.19032258064516,1.19032258064516,1.18709677419355,1.18064516129032,1.19032258064516,1.18387096774194,1.17096774193548,1.17741935483871,1.17096774193548,1.18064516129032,1.19032258064516,1.2,1.21290322580645,1.20967741935484,1.20322580645161,1.21612903225806,1.20967741935484,1.24193548387097,1.24838709677419,1.26451612903226,1.25161290322581,1.24516129032258,1.20967741935484,1.19032258064516,1.16451612903226,1.16129032258065,1.16451612903226,1.16451612903226,1.15806451612903,1.16129032258065,1.15161290322581,1.15806451612903,1.18709677419355,1.30967741935484,1.8258064516129,2.54516129032258,3.06774193548387,2.30322580645161,1.48064516129032,1.30322580645161,1.21290322580645,1.12903225806452,1.09354838709677,1.07096774193548,1.07096774193548,1.06129032258065,1.04193548387097,1.04838709677419,1.05161290322581,1.04516129032258,1.03225806451613,1.0258064516129,1.03225806451613,1.02903225806452,1.01935483870968,1.01612903225806,1.01290322580645,1.00645161290323,0.990322580645161,0.990322580645161,0.97741935483871,0.970967741935484,0.961290322580645,0.948387096774194,0.954838709677419,0.964516129032258,0.97741935483871,1.01612903225806,1.05161290322581,1.10645161290323,1.14838709677419,1.16451612903226,1.19354838709677,1.19354838709677,1.20322580645161,1.19677419354839,1.19032258064516,1.19354838709677,1.17096774193548,1.19354838709677,1.18387096774194,1.17096774193548,1.17096774193548,1.19354838709677,1.18064516129032,1.17096774193548,1.18387096774194,1.18709677419355,1.18387096774194,1.2,1.17741935483871,1.19354838709677,1.19032258064516,1.18709677419355,1.19354838709677,1.19677419354839,1.19032258064516,1.19354838709677,1.19354838709677,1.19032258064516,1.2,1.18709677419355,1.19677419354839,1.19032258064516,1.19354838709677,1.17096774193548,1.2,1.2,1.2,1.2,1.2258064516129,1.23548387096774,1.23225806451613,1.23548387096774,1.25161290322581,1.25806451612903,1.2741935483871,1.25806451612903,1.24516129032258,1.20967741935484,1.18387096774194,1.17741935483871,1.17096774193548,1.1741935483871,1.16451612903226,1.16774193548387,1.16129032258065,1.16451612903226,1.17096774193548,1.19032258064516,1.34193548387097,1.86774193548387,2.56774193548387,3.10322580645161,2.34838709677419,1.50967741935484,1.32258064516129,1.22903225806452,1.11935483870968,1.09354838709677,1.08064516129032,1.06451612903226,1.05806451612903,1.05483870967742,1.04516129032258,1.03548387096774,1.04516129032258,1.03225806451613,1.03225806451613,1.02903225806452,1.02903225806452,1.02258064516129,1.01290322580645,1.00967741935484,1.00322580645161,0.993548387096774,0.980645161290323,0.980645161290323,0.970967741935484,0.958064516129032,0.961290322580645,0.967741935483871,0.961290322580645,0.993548387096774,1.02903225806452,1.06774193548387,1.11290322580645,1.15483870967742,1.17741935483871,1.18709677419355,1.20645161290323,1.20967741935484,1.20967741935484,1.19677419354839,1.20645161290323,1.19032258064516,1.19677419354839,1.18064516129032,1.18064516129032,1.18064516129032,1.18064516129032,1.18064516129032,1.18387096774194,1.18064516129032,1.18064516129032,1.18709677419355,1.18064516129032,1.18387096774194,1.19032258064516,1.18387096774194,1.19032258064516,1.18709677419355,1.18709677419355,1.19354838709677,1.19032258064516,1.18709677419355,1.19032258064516,1.19032258064516,1.18387096774194,1.19032258064516,1.18064516129032,1.17741935483871,1.18387096774194,1.1741935483871,1.17741935483871,1.18387096774194,1.19677419354839,1.20645161290323,1.20322580645161,1.22258064516129,1.23225806451613,1.22258064516129,1.23225806451613,1.24516129032258,1.26451612903226,1.26774193548387,1.26451612903226,1.25483870967742,1.2258064516129,1.2,1.1741935483871,1.16774193548387,1.16129032258065,1.17096774193548,1.17096774193548,1.17096774193548,1.1741935483871,1.17741935483871,1.16774193548387,1.25161290322581,1.64516129032258,2.31612903225806,2.99677419354839,2.83548387096774,1.72903225806452,1.33548387096774,1.24193548387097,1.15161290322581,1.10645161290323,1.08064516129032,1.06774193548387,1.04838709677419,1.05161290322581,1.04193548387097,1.03548387096774,1.03870967741935,1.02258064516129,1.0258064516129,1.02258064516129,1.02903225806452,1.01290322580645,1.00967741935484,1.00645161290323,1.00322580645161,0.996774193548387,0.983870967741935,0.974193548387097,0.961290322580645,0.958064516129032,0.951612903225806,0.951612903225806,0.961290322580645,0.974193548387097,0.993548387096774,1.03548387096774,1.08064516129032,1.11935483870968,1.16451612903226,1.1741935483871,1.19677419354839,1.19354838709677,1.2,1.19354838709677,1.19677419354839,1.18709677419355,1.18709677419355,1.18387096774194,1.19032258064516,1.18064516129032,1.17741935483871,1.16774193548387,1.17741935483871,1.18064516129032,1.1741935483871,1.18064516129032,1.17741935483871,1.17741935483871,1.18387096774194,1.18064516129032,1.18064516129032,1.18709677419355,1.18064516129032,1.19032258064516,1.18709677419355,1.18064516129032,1.18064516129032,1.18709677419355,1.18387096774194,1.18064516129032,1.18064516129032,1.18709677419355,1.19032258064516,1.18064516129032,1.18064516129032,1.19032258064516,1.19354838709677,1.19354838709677,1.19354838709677,1.21290322580645,1.22903225806452,1.2258064516129,1.22903225806452,1.24838709677419,1.26129032258065,1.2741935483871,1.27096774193548,1.25161290322581,1.22903225806452,1.19677419354839,1.18064516129032,1.16129032258065,1.16774193548387,1.16129032258065,1.16451612903226,1.15806451612903,1.16774193548387,1.16774193548387,1.16774193548387,1.2258064516129,1.5258064516129,2.20322580645161,2.9,2.97096774193548,1.86774193548387,1.34838709677419,1.26129032258065,1.15806451612903,1.09677419354839,1.07741935483871,1.06451612903226,1.05483870967742,1.04838709677419,1.04838709677419,1.04838709677419,1.03225806451613,1.0258064516129,1.03225806451613,1.0258064516129,1.01935483870968,1.0258064516129,1.01612903225806,1.01290322580645,1.00322580645161,0.996774193548387,0.996774193548387,0.970967741935484,0.967741935483871,0.954838709677419,0.958064516129032,0.948387096774194,0.961290322580645,0.974193548387097,0.996774193548387,1.02903225806452,1.0741935483871,1.12903225806452,1.15483870967742,1.18064516129032,1.20645161290323,1.20645161290323,1.20645161290323,1.20322580645161,1.19032258064516,1.2,1.19032258064516,1.19354838709677,1.19354838709677,1.18387096774194,1.18064516129032,1.18387096774194,1.1741935483871,1.18064516129032,1.18064516129032,1.1741935483871,1.18387096774194,1.18387096774194,1.19032258064516,1.19354838709677,1.18709677419355,1.19677419354839,1.19677419354839,1.19032258064516,1.19354838709677,1.18709677419355,1.18709677419355,1.18709677419355,1.18709677419355,1.19354838709677,1.19354838709677,1.19677419354839,1.18709677419355,1.18387096774194,1.18387096774194,1.19677419354839,1.20645161290323,1.19677419354839,1.21290322580645,1.22258064516129,1.24193548387097,1.23870967741935,1.24193548387097,1.25806451612903,1.26774193548387,1.27096774193548,1.26451612903226,1.25483870967742,1.23870967741935,1.2,1.18387096774194,1.16451612903226,1.1741935483871,1.17096774193548,1.1741935483871,1.17096774193548,1.17096774193548,1.17741935483871,1.17096774193548,1.23548387096774,1.5258064516129,2.21935483870968,2.9258064516129,2.9741935483871,1.86774193548387,1.35161290322581,1.25806451612903,1.16129032258065,1.10322580645161,1.08387096774194,1.05806451612903,1.05806451612903,1.05161290322581,1.04193548387097,1.03870967741935,1.03548387096774,1.03548387096774,1.02258064516129,1.0258064516129,1.01612903225806,1.01935483870968,1.00645161290323,1.00322580645161,0.996774193548387,0.993548387096774,0.980645161290323,0.980645161290323,0.967741935483871,0.954838709677419,0.948387096774194,0.945161290322581,0.951612903225806,0.961290322580645,0.983870967741935,1.02258064516129,1.06451612903226,1.11612903225806,1.15161290322581,1.18064516129032,1.19677419354839,1.2,1.2,1.19677419354839,1.19354838709677,1.18709677419355,1.18387096774194,1.18709677419355,1.18387096774194,1.18064516129032,1.18064516129032,1.18064516129032,1.18709677419355,1.18064516129032,1.18709677419355,1.18064516129032,1.17741935483871,1.18709677419355,1.18064516129032,1.19032258064516,1.18709677419355,1.19354838709677,1.19354838709677,1.19032258064516,1.19032258064516,1.18709677419355,1.19032258064516,1.19354838709677,1.18709677419355,1.18709677419355,1.19032258064516,1.18387096774194,1.18064516129032,1.1741935483871,1.18387096774194,1.19032258064516,1.17741935483871,1.17741935483871,1.19354838709677,1.19354838709677,1.20645161290323,1.20645161290323,1.23548387096774,1.24193548387097,1.2258064516129,1.24193548387097,1.26451612903226,1.2741935483871,1.26451612903226,1.26129032258065,1.23870967741935,1.2,1.18709677419355,1.1741935483871,1.16774193548387,1.1741935483871,1.17096774193548,1.17741935483871,1.17096774193548,1.1741935483871,1.16774193548387,1.20645161290323,1.42258064516129,2.06774193548387,2.80322580645161,3.08387096774194,2.05483870967742,1.38064516129032,1.29354838709677,1.19032258064516,1.10967741935484,1.09032258064516,1.07741935483871,1.06129032258065,1.04838709677419,1.04838709677419,1.04516129032258,1.03548387096774,1.0258064516129,1.03225806451613,1.02903225806452,1.02258064516129,1.01612903225806,1.01290322580645,1.01290322580645,1,0.990322580645161,0.987096774193548,0.980645161290323,0.964516129032258,0.964516129032258,0.961290322580645,0.941935483870968,0.951612903225806,0.967741935483871,0.974193548387097,1.00967741935484,1.06129032258065,1.10645161290323,1.13225806451613,1.18064516129032,1.20322580645161,1.22258064516129,1.20645161290323,1.20967741935484,1.19032258064516,1.19354838709677,1.19032258064516,1.18064516129032,1.1741935483871,1.18064516129032,1.18387096774194,1.17741935483871,1.17096774193548,1.18387096774194,1.18387096774194,1.18064516129032,1.18709677419355,1.17096774193548,1.19032258064516,1.18709677419355,1.18064516129032,1.18709677419355,1.18387096774194,1.2,1.18709677419355,1.18387096774194,1.19032258064516,1.18387096774194,1.17741935483871,1.18064516129032,1.16774193548387,1.18064516129032,1.19032258064516,1.18064516129032,1.17741935483871,1.18064516129032,1.19354838709677,1.19032258064516,1.19677419354839,1.21935483870968,1.20645161290323,1.2258064516129,1.23225806451613,1.24516129032258,1.25806451612903,1.2741935483871,1.26774193548387,1.25483870967742,1.24193548387097,1.20645161290323,1.19032258064516,1.17741935483871,1.16451612903226,1.16774193548387,1.16774193548387,1.16451612903226,1.16129032258065,1.15806451612903,1.15483870967742,1.18387096774194,1.31935483870968,1.87096774193548,2.6741935483871,3.2,2.39354838709677,1.47741935483871,1.29032258064516,1.21935483870968,1.12258064516129,1.08709677419355,1.06451612903226,1.05806451612903,1.05483870967742,1.04193548387097,1.04516129032258,1.04193548387097,1.03548387096774,1.01935483870968,1.01290322580645,1.0258064516129,1.01612903225806,1.01612903225806,1.01935483870968,0.996774193548387,0.996774193548387,0.987096774193548,0.97741935483871,0.97741935483871,0.954838709677419,0.935483870967742,0.958064516129032,0.935483870967742,0.941935483870968,0.967741935483871,0.990322580645161,1.05161290322581,1.09354838709677,1.13548387096774,1.16774193548387,1.19677419354839,1.20322580645161,1.20967741935484,1.19354838709677,1.20967741935484,1.19354838709677,1.19032258064516,1.18387096774194,1.18387096774194,1.17741935483871,1.18064516129032,1.19677419354839,1.19354838709677,1.19032258064516,1.19354838709677,1.19032258064516,1.18709677419355,1.19354838709677,1.19677419354839,1.19677419354839,1.19677419354839,1.19354838709677,1.21935483870968,1.19032258064516,1.19677419354839,1.2,1.18709677419355,1.18709677419355,1.19032258064516,1.19032258064516,1.19032258064516,1.18709677419355,1.18709677419355,1.19032258064516,1.19032258064516,1.2,1.20645161290323,1.20967741935484,1.20322580645161,1.23870967741935,1.21290322580645,1.23225806451613,1.24516129032258,1.24838709677419,1.26451612903226,1.27096774193548,1.26129032258065,1.24838709677419,1.20322580645161,1.1741935483871,1.18064516129032,1.17741935483871,1.16451612903226,1.16451612903226,1.1741935483871,1.17096774193548,1.16129032258065,1.15161290322581,1.19032258064516,1.4,2,2.75483870967742,3.06451612903226,2.10322580645161,1.40967741935484,1.30645161290323,1.19354838709677,1.10645161290323,1.0741935483871,1.07096774193548,1.05161290322581,1.06129032258065,1.05161290322581,1.03548387096774,1.03870967741935,1.03548387096774,1.03548387096774,1.01935483870968,1.01935483870968,1.0258064516129,1.00967741935484,1.02258064516129,1.01612903225806,1,0.987096774193548,0.974193548387097,0.97741935483871,0.961290322580645,0.954838709677419,0.948387096774194,0.958064516129032,0.964516129032258,0.990322580645161,1.01290322580645,1.05483870967742,1.11290322580645,1.14193548387097,1.18064516129032,1.17741935483871,1.2,1.20967741935484,1.18064516129032,1.19032258064516,1.1741935483871,1.18064516129032,1.18709677419355,1.1741935483871,1.18709677419355,1.18709677419355,1.19032258064516,1.19032258064516,1.1741935483871,1.19354838709677,1.19677419354839,1.18709677419355,1.18709677419355,1.20322580645161,1.20322580645161,1.19354838709677,1.18709677419355,1.19677419354839,1.19032258064516,1.19677419354839,1.18387096774194,1.2,1.20645161290323,1.19032258064516,1.2,1.20645161290323,1.17741935483871,1.2,1.18387096774194,1.20322580645161,1.2,1.21290322580645,1.19677419354839,1.22258064516129,1.2258064516129,1.22903225806452,1.23225806451613,1.24838709677419,1.2741935483871,1.25161290322581,1.24193548387097,1.24193548387097,1.20645161290323,1.19677419354839,1.16774193548387,1.16774193548387,1.14838709677419,1.18064516129032,1.16451612903226,1.15483870967742,1.17741935483871,1.16451612903226,1.22258064516129,1.56774193548387,2.24193548387097,2.88709677419355,2.81935483870968,1.79354838709677,1.35483870967742,1.26774193548387,1.15161290322581,1.09032258064516,1.08709677419355,1.07741935483871,1.06451612903226,1.05483870967742,1.04193548387097,1.05161290322581,1.02903225806452,1.04516129032258,1.0258064516129,1.02903225806452,1.01290322580645,1.01935483870968,1.00967741935484,1.01935483870968,1.00967741935484,0.993548387096774,0.993548387096774,0.97741935483871,0.974193548387097,0.948387096774194,0.970967741935484,0.961290322580645,0.967741935483871,0.983870967741935,1.01290322580645,1.04516129032258,1.09354838709677,1.11612903225806,1.16129032258065,1.18387096774194,1.18387096774194,1.2,1.20645161290323,1.18709677419355,1.17741935483871,1.1741935483871,1.18387096774194,1.15806451612903,1.18709677419355,1.17096774193548,1.16129032258065,1.17741935483871,1.17741935483871,1.18387096774194,1.17741935483871,1.18387096774194,1.18064516129032,1.17096774193548,1.19354838709677,1.17096774193548,1.18064516129032,1.18387096774194,1.18709677419355,1.18387096774194,1.18064516129032,1.18064516129032,1.17096774193548,1.18709677419355,1.15483870967742,1.18709677419355,1.17741935483871,1.1741935483871,1.18064516129032,1.2,1.18709677419355,1.2,1.20322580645161,1.20645161290323,1.21290322580645,1.21290322580645,1.21290322580645,1.25483870967742,1.25483870967742,1.26129032258065,1.25161290322581,1.22258064516129,1.2,1.17096774193548,1.17741935483871,1.16774193548387,1.16774193548387,1.15806451612903,1.17096774193548,1.16129032258065,1.16451612903226,1.17096774193548,1.23225806451613,1.57096774193548,2.21935483870968,2.87741935483871,2.8,1.78709677419355,1.36451612903226,1.25483870967742,1.16451612903226,1.10645161290323,1.09354838709677,1.07096774193548,1.06451612903226,1.06451612903226,1.04193548387097,1.03548387096774,1.06129032258065,1.04516129032258,1.03870967741935,1.04516129032258,1.03548387096774,1.03225806451613,1.03225806451613,1.02258064516129,1.00967741935484,1.01290322580645,1.01290322580645,0.993548387096774,0.97741935483871,0.980645161290323,0.970967741935484,0.967741935483871,0.980645161290323,0.980645161290323,1.01935483870968,1.04516129032258,1.10645161290323,1.14193548387097,1.15806451612903,1.19354838709677,1.20322580645161,1.19354838709677,1.19032258064516,1.21935483870968,1.19354838709677,1.2,1.19677419354839,1.19677419354839,1.18387096774194,1.18709677419355,1.19354838709677,1.18709677419355,1.19032258064516,1.18064516129032,1.18064516129032,1.17096774193548,1.18064516129032,1.19677419354839,1.19354838709677,1.19032258064516,1.21290322580645,1.18709677419355,1.19677419354839,1.19677419354839,1.20322580645161,1.18064516129032,1.19677419354839,1.19354838709677,1.19677419354839,1.18709677419355,1.18387096774194,1.19032258064516,1.20322580645161,1.20967741935484,1.20645161290323,1.22258064516129,1.23225806451613,1.23548387096774,1.23870967741935,1.22903225806452,1.24838709677419,1.27096774193548,1.28064516129032,1.26129032258065,1.25483870967742,1.21290322580645,1.19677419354839,1.18064516129032,1.17096774193548,1.18709677419355,1.16774193548387,1.1741935483871,1.1741935483871,1.1741935483871,1.18064516129032,1.20645161290323,1.40322580645161,1.95161290322581,2.65161290322581,3.06774193548387,2.23225806451613,1.47741935483871,1.34193548387097,1.21935483870968,1.13225806451613,1.10967741935484,1.08064516129032,1.06451612903226,1.05806451612903,1.05161290322581,1.05161290322581,1.04838709677419,1.04193548387097,1.04516129032258,1.04193548387097,1.04193548387097,1.01290322580645,1.00645161290323,1.00967741935484,1.00967741935484,1.00967741935484,1,0.97741935483871,0.970967741935484,0.974193548387097,0.958064516129032,0.964516129032258,0.964516129032258,0.964516129032258,1.00322580645161,1.03225806451613,1.06774193548387,1.10322580645161,1.13548387096774,1.1741935483871,1.18387096774194,1.18387096774194,1.19032258064516,1.19032258064516,1.18387096774194,1.17096774193548,1.17741935483871,1.16774193548387,1.17096774193548,1.17096774193548,1.15483870967742,1.15806451612903,1.15483870967742,1.15806451612903,1.15806451612903,1.15806451612903,1.16129032258065,1.15806451612903,1.14516129032258,1.16129032258065,1.16129032258065,1.16129032258065,1.16774193548387,1.15483870967742,1.16451612903226,1.17096774193548,1.16129032258065,1.15806451612903,1.15806451612903,1.15806451612903,1.15161290322581,1.14193548387097,1.15161290322581,1.16129032258065,1.1741935483871,1.17096774193548,1.17096774193548,1.19032258064516,1.19677419354839,1.18709677419355,1.18709677419355,1.21935483870968,1.22903225806452,1.22903225806452,1.23225806451613,1.20967741935484,1.1741935483871,1.15161290322581,1.13548387096774,1.13225806451613,1.13548387096774,1.13548387096774,1.13225806451613,1.14516129032258,1.14516129032258,1.14838709677419,1.16451612903226,1.33548387096774,1.90322580645161,2.6,3.07096774193548,2.24516129032258,1.45806451612903,1.31290322580645,1.20322580645161,1.10645161290323,1.08064516129032,1.0741935483871,1.06129032258065,1.05806451612903,1.05161290322581,1.05161290322581,1.03870967741935,1.05483870967742,1.05161290322581,1.04516129032258,1.04193548387097,1.03225806451613,1.04193548387097,1.04193548387097,1.03870967741935,1.0258064516129,1.03225806451613,1.03225806451613,1.03548387096774,1.02258064516129,1.01935483870968,1.02258064516129,1.03548387096774,1.05483870967742,1.08709677419355,1.11612903225806,1.16451612903226,1.2258064516129,1.26129032258065,1.30322580645161,1.33225806451613,1.34193548387097,1.35161290322581,1.34516129032258,1.35483870967742
2.75806451612903,3.18064516129032,2.27741935483871,1.48387096774194,1.35161290322581,1.25161290322581,1.14838709677419,1.12258064516129,1.09354838709677,1.08709677419355,1.08709677419355,1.0741935483871,1.0741935483871,1.04193548387097,1.07096774193548,1.06129032258065,1.04516129032258,1.05161290322581,1.05806451612903,1.03870967741935,1.02258064516129,1.02903225806452,1.02903225806452,1.00967741935484,1.01612903225806,0.983870967741935,0.97741935483871,0.987096774193548,0.970967741935484,0.970967741935484,0.983870967741935,1.00322580645161,1.02903225806452,1.07741935483871,1.13548387096774,1.1741935483871,1.18064516129032,1.20967741935484,1.20967741935484,1.21935483870968,1.21290322580645,1.20967741935484,1.19677419354839,1.20322580645161,1.18709677419355,1.18709677419355,1.18064516129032,1.18064516129032,1.18387096774194,1.19677419354839,1.19677419354839,1.19677419354839,1.18709677419355,1.20322580645161,1.19677419354839,1.2,1.21935483870968,1.2,1.19354838709677,1.20645161290323,1.20967741935484,1.2,1.2,1.19354838709677,1.19032258064516,1.18709677419355,1.19032258064516,1.1741935483871,1.21290322580645,1.2,1.18387096774194,1.18387096774194,1.19032258064516,1.19354838709677,1.20322580645161,1.22258064516129,1.21290322580645,1.23870967741935,1.22903225806452,1.21935483870968,1.25806451612903,1.25806451612903,1.26774193548387,1.26451612903226,1.25483870967742,1.22258064516129,1.19032258064516,1.18387096774194,1.16774193548387,1.16129032258065,1.15806451612903,1.15806451612903,1.16129032258065,1.16774193548387,1.17741935483871,1.16774193548387,1.2258064516129,1.6,2.29677419354839,2.97741935483871,2.80645161290323,1.74838709677419,1.34516129032258,1.26774193548387,1.14516129032258,1.1,1.0741935483871,1.06129032258065,1.05483870967742,1.05806451612903,1.05483870967742,1.04838709677419,1.04193548387097,1.03870967741935,1.03870967741935,1.02258064516129,1.02258064516129,1.02258064516129,1.01935483870968,1.00967741935484,1.00645161290323,0.990322580645161,1.00322580645161,0.967741935483871,0.967741935483871,0.954838709677419,0.951612903225806,0.948387096774194,0.964516129032258,0.970967741935484,1,1.02903225806452,1.08709677419355,1.11290322580645,1.15483870967742,1.18387096774194,1.18709677419355,1.18387096774194,1.19677419354839,1.18064516129032,1.18064516129032,1.2,1.15806451612903,1.18387096774194,1.17096774193548,1.1741935483871,1.16451612903226,1.19032258064516,1.19032258064516,1.15806451612903,1.17741935483871,1.17741935483871,1.19032258064516,1.16774193548387,1.19677419354839,1.18709677419355,1.19354838709677,1.18387096774194,1.18709677419355,1.18709677419355,1.19354838709677,1.19032258064516,1.19032258064516,1.16774193548387,1.2,1.18064516129032,1.1741935483871,1.18387096774194,1.18709677419355,1.18387096774194,1.18709677419355,1.18709677419355,1.2,1.19032258064516,1.23225806451613,1.21612903225806,1.21612903225806,1.21935483870968,1.23870967741935,1.26129032258065,1.2741935483871,1.25483870967742,1.23225806451613,1.21290322580645,1.19354838709677,1.17096774193548,1.1741935483871,1.17096774193548,1.16774193548387,1.16774193548387,1.16129032258065,1.16451612903226,1.16451612903226,1.18387096774194,1.3258064516129,1.86451612903226,2.56451612903226,3.06129032258065,2.30322580645161,1.49032258064516,1.32903225806452,1.22258064516129,1.12258064516129,1.09354838709677,1.07096774193548,1.06129032258065,1.0741935483871,1.05161290322581,1.06451612903226,1.04193548387097,1.03870967741935,1.02903225806452,1.03548387096774,1.03548387096774,1.01290322580645,1.03548387096774,1.01935483870968,1.02258064516129,1.00967741935484,1,0.97741935483871,0.980645161290323,0.954838709677419,0.967741935483871,0.958064516129032,0.951612903225806,0.97741935483871,0.990322580645161,1.01612903225806,1.05483870967742,1.1,1.14516129032258,1.17096774193548,1.19032258064516,1.19354838709677,1.2,1.19677419354839,1.19677419354839,1.19032258064516,1.18709677419355,1.17741935483871,1.18064516129032,1.1741935483871,1.18709677419355,1.18064516129032,1.17741935483871,1.18064516129032,1.1741935483871,1.18709677419355,1.19354838709677,1.18064516129032,1.20645161290323,1.19677419354839,1.18709677419355,1.20322580645161,1.18387096774194,1.19032258064516,1.18387096774194,1.19677419354839,1.18387096774194,1.18709677419355,1.18387096774194,1.18064516129032,1.19354838709677,1.18387096774194,1.18387096774194,1.18709677419355,1.2,1.19677419354839,1.20322580645161,1.21290322580645,1.21290322580645,1.22258064516129,1.20967741935484,1.2258064516129,1.25161290322581,1.26451612903226,1.27741935483871,1.25483870967742,1.24516129032258,1.21612903225806,1.19032258064516,1.1741935483871,1.18064516129032,1.16451612903226,1.16451612903226,1.16451612903226,1.15806451612903,1.16774193548387,1.1741935483871,1.16774193548387,1.2741935483871,1.69354838709677,2.38387096774194,3.03225806451613,2.72903225806452,1.6741935483871,1.34193548387097,1.24516129032258,1.12903225806452,1.09354838709677,1.07741935483871,1.06129032258065,1.06451612903226,1.04193548387097,1.05806451612903,1.04193548387097,1.03870967741935,1.03870967741935,1.0258064516129,1.02903225806452,1.0258064516129,1.01935483870968,1.01612903225806,1.00967741935484,1.00645161290323,0.987096774193548,0.990322580645161,0.980645161290323,0.970967741935484,0.954838709677419,0.948387096774194,0.970967741935484,0.970967741935484,0.983870967741935,1.00645161290323,1.04516129032258,1.09677419354839,1.13548387096774,1.17096774193548,1.19032258064516,1.20322580645161,1.2,1.20322580645161,1.19677419354839,1.19032258064516,1.18709677419355,1.17741935483871,1.1741935483871,1.17096774193548,1.18387096774194,1.18064516129032,1.1741935483871,1.17741935483871,1.17741935483871,1.18064516129032,1.18709677419355,1.18064516129032,1.18387096774194,1.18709677419355,1.18387096774194,1.18064516129032,1.18709677419355,1.19032258064516,1.17741935483871,1.18064516129032,1.18387096774194,1.18709677419355,1.18387096774194,1.19032258064516,1.17741935483871,1.18387096774194,1.19032258064516,1.18064516129032,1.18387096774194,1.19354838709677,1.2,1.20322580645161,1.21612903225806,1.23225806451613,1.2258064516129,1.2258064516129,1.25483870967742,1.26451612903226,1.27741935483871,1.26129032258065,1.24516129032258,1.22903225806452,1.19032258064516,1.17741935483871,1.16129032258065,1.16774193548387,1.16451612903226,1.16129032258065,1.16451612903226,1.16129032258065,1.16451612903226,1.17096774193548,1.26129032258065,1.69677419354839,2.37741935483871,3.01290322580645,2.71290322580645,1.64838709677419,1.30967741935484,1.24193548387097,1.12903225806452,1.09677419354839,1.0741935483871,1.05806451612903,1.06129032258065,1.05161290322581,1.04838709677419,1.03870967741935,1.03870967741935,1.03870967741935,1.03225806451613,1.0258064516129,1.02903225806452,1.0258064516129,1.00967741935484,1.00967741935484,1.00645161290323,0.987096774193548,0.996774193548387,0.980645161290323,0.967741935483871,0.964516129032258,0.964516129032258,0.967741935483871,0.967741935483871,0.97741935483871,1.00322580645161,1.03870967741935,1.1,1.13548387096774,1.16451612903226,1.18709677419355,1.19032258064516,1.20967741935484,1.2,1.19354838709677,1.18709677419355,1.19677419354839,1.18709677419355,1.1741935483871,1.18387096774194,1.17741935483871,1.18064516129032,1.1741935483871,1.17096774193548,1.1741935483871,1.16774193548387,1.18064516129032,1.18709677419355,1.18064516129032,1.17741935483871,1.18064516129032,1.18064516129032,1.18709677419355,1.18387096774194,1.19032258064516,1.19677419354839,1.18064516129032,1.19032258064516,1.18387096774194,1.2,1.17741935483871,1.18709677419355,1.18387096774194,1.18387096774194,1.18387096774194,1.19354838709677,1.19677419354839,1.20322580645161,1.20967741935484,1.21290322580645,1.25483870967742,1.23225806451613,1.24193548387097,1.26129032258065,1.26774193548387,1.26774193548387,1.25161290322581,1.23870967741935,1.19354838709677,1.19032258064516,1.16129032258065,1.16774193548387,1.18064516129032,1.1741935483871,1.1741935483871,1.16451612903226,1.16774193548387,1.17096774193548,1.20645161290323,1.41290322580645,2.03548387096774,2.75806451612903,3.09354838709677,2.10967741935484,1.39677419354839,1.31612903225806,1.19354838709677,1.11935483870968,1.08709677419355,1.0741935483871,1.05483870967742,1.05161290322581,1.04193548387097,1.03548387096774,1.03870967741935,1.03548387096774,1.03225806451613,1.03870967741935,1.01290322580645,1.0258064516129,1.00322580645161,1.01290322580645,1.00967741935484,0.993548387096774,0.987096774193548,0.983870967741935,0.970967741935484,0.964516129032258,0.945161290322581,0.948387096774194,0.967741935483871,0.967741935483871,0.983870967741935,1.01290322580645,1.07096774193548,1.11935483870968,1.15483870967742,1.18064516129032,1.19032258064516,1.20645161290323,1.20322580645161,1.2,1.18709677419355,1.19032258064516,1.18387096774194,1.1741935483871,1.16774193548387,1.18387096774194,1.1741935483871,1.18387096774194,1.16451612903226,1.19032258064516,1.18387096774194,1.16774193548387,1.1741935483871,1.17741935483871,1.18064516129032,1.1741935483871,1.2,1.18709677419355,1.18709677419355,1.18064516129032,1.18387096774194,1.18387096774194,1.18387096774194,1.18387096774194,1.18709677419355,1.18387096774194,1.17741935483871,1.18387096774194,1.19032258064516,1.17096774193548,1.18064516129032,1.2,1.2,1.20322580645161,1.21612903225806,1.22903225806452,1.24516129032258,1.23225806451613,1.24838709677419,1.26129032258065,1.26451612903226,1.24838709677419,1.26451612903226,1.24193548387097,1.19354838709677,1.18064516129032,1.16451612903226,1.16774193548387,1.1741935483871,1.16774193548387,1.15806451612903,1.18064516129032,1.17741935483871,1.15806451612903,1.2258064516129,1.56451612903226,2.2741935483871,3.01290322580645,2.96451612903226,1.83225806451613,1.32903225806452,1.26774193548387,1.14516129032258,1.10322580645161,1.07741935483871,1.06451612903226,1.06129032258065,1.04516129032258,1.04193548387097,1.03548387096774,1.04193548387097,1.05483870967742,1.0258064516129,1.02903225806452,1.0258064516129,1.02903225806452,1.01935483870968,1,1,0.996774193548387,0.97741935483871,0.97741935483871,0.964516129032258,0.948387096774194,0.97741935483871,0.938709677419355,0.948387096774194,0.983870967741935,0.987096774193548,1.03548387096774,1.08064516129032,1.12903225806452,1.14193548387097,1.17741935483871,1.20322580645161,1.19354838709677,1.19677419354839,1.19354838709677,1.19032258064516,1.19032258064516,1.18387096774194,1.1741935483871,1.17741935483871,1.16774193548387,1.17741935483871,1.18709677419355,1.16451612903226,1.18064516129032,1.18387096774194,1.18709677419355,1.18387096774194,1.18064516129032,1.18387096774194,1.18709677419355,1.17741935483871,1.19032258064516,1.1741935483871,1.19032258064516,1.18387096774194,1.18387096774194,1.19032258064516,1.18709677419355,1.18064516129032,1.19354838709677,1.18709677419355,1.18709677419355,1.19032258064516,1.17741935483871,1.19354838709677,1.18709677419355,1.19032258064516,1.20322580645161,1.20645161290323,1.2258064516129,1.21935483870968,1.21935483870968,1.22258064516129,1.24193548387097,1.26774193548387,1.25483870967742,1.2741935483871,1.24193548387097,1.24838709677419,1.19677419354839,1.19354838709677,1.17741935483871,1.17741935483871,1.1741935483871,1.17741935483871,1.16451612903226,1.1741935483871,1.17096774193548,1.16774193548387,1.24838709677419,1.55483870967742,2.22903225806452,2.95161290322581,2.89354838709677,1.83870967741935,1.35483870967742,1.25483870967742,1.14838709677419,1.09677419354839,1.08709677419355,1.06774193548387,1.05806451612903,1.05483870967742,1.04193548387097,1.04516129032258,1.03225806451613,1.03548387096774,1.01290322580645,1.0258064516129,1.02258064516129,1.01935483870968,1.00967741935484,1.01290322580645,0.996774193548387,1.00645161290323,0.97741935483871,0.980645161290323,0.970967741935484,0.97741935483871,0.958064516129032,0.958064516129032,0.958064516129032,0.970967741935484,1,1.03870967741935,1.08387096774194,1.13225806451613,1.15161290322581,1.17096774193548,1.19677419354839,1.2,1.18387096774194,1.19032258064516,1.20322580645161,1.19032258064516,1.18064516129032,1.18064516129032,1.1741935483871,1.17741935483871,1.16451612903226,1.17741935483871,1.1741935483871,1.18709677419355,1.19032258064516,1.19032258064516,1.19032258064516,1.19032258064516,1.19677419354839,1.19354838709677,1.19354838709677,1.20645161290323,1.2,1.2,1.18709677419355,1.2,1.19677419354839,1.19032258064516,1.20322580645161,1.1741935483871,1.20645161290323,1.19032258064516,1.18387096774194,1.18709677419355,1.19032258064516,1.18387096774194,1.19354838709677,1.19032258064516,1.20322580645161,1.21612903225806,1.21290322580645,1.20645161290323,1.21612903225806,1.24193548387097,1.21935483870968,1.23225806451613,1.25806451612903,1.25806451612903,1.2741935483871,1.25806451612903,1.24838709677419,1.23225806451613,1.19032258064516,1.17096774193548,1.17096774193548,1.1741935483871,1.18064516129032,1.16451612903226,1.16774193548387,1.16451612903226,1.16129032258065,1.19677419354839,1.37096774193548,1.93548387096774,2.62903225806452,3.04516129032258,2.19032258064516,1.43870967741935,1.30967741935484,1.20322580645161,1.1258064516129,1.10322580645161,1.07741935483871,1.06451612903226,1.06774193548387,1.05483870967742,1.04838709677419,1.04838709677419,1.03548387096774,1.04193548387097,1.04193548387097,1.0258064516129,1.02903225806452,1.0258064516129,1.01290322580645,1,1.00645161290323,0.987096774193548,0.980645161290323,0.974193548387097,0.97741935483871,0.958064516129032,0.961290322580645,0.964516129032258,0.970967741935484,0.987096774193548,1.00967741935484,1.06774193548387,1.10322580645161,1.15161290322581,1.16451612903226,1.18064516129032,1.19354838709677,1.19032258064516,1.19677419354839,1.18064516129032,1.19354838709677,1.19032258064516,1.18064516129032,1.1741935483871,1.1741935483871,1.17096774193548,1.17096774193548,1.1741935483871,1.19032258064516,1.1741935483871,1.19677419354839,1.18709677419355,1.18387096774194,1.18387096774194,1.18387096774194,1.18709677419355,1.18387096774194,1.18709677419355,1.18709677419355,1.18064516129032,1.18064516129032,1.18387096774194,1.18709677419355,1.18709677419355,1.19032258064516,1.18064516129032,1.18064516129032,1.18387096774194,1.17741935483871,1.1741935483871,1.1741935483871,1.1741935483871,1.19354838709677,1.19677419354839,1.20645161290323,1.21290322580645,1.21612903225806,1.21290322580645,1.21612903225806,1.23548387096774,1.25161290322581,1.25161290322581,1.2741935483871,1.24193548387097,1.23870967741935,1.19032258064516,1.18387096774194,1.17741935483871,1.16451612903226,1.15483870967742,1.15806451612903,1.16774193548387,1.16129032258065,1.15806451612903,1.16774193548387,1.24193548387097,1.60322580645161,2.2741935483871,2.98064516129032,2.89032258064516,1.80645161290323,1.35161290322581,1.2741935483871,1.14516129032258,1.10967741935484,1.08064516129032,1.07096774193548,1.05806451612903,1.04838709677419,1.04838709677419,1.04193548387097,1.03225806451613,1.03225806451613,1.02258064516129,1.04193548387097,1.02903225806452,1.01290322580645,1.01290322580645,1.00322580645161,0.996774193548387,0.993548387096774,0.983870967741935,0.964516129032258,0.974193548387097,0.970967741935484,0.958064516129032,0.958064516129032,0.980645161290323,0.983870967741935,1,1.04193548387097,1.09032258064516,1.12903225806452,1.15806451612903,1.18064516129032,1.19032258064516,1.19032258064516,1.2,1.19677419354839,1.19677419354839,1.18064516129032,1.20322580645161,1.18709677419355,1.18064516129032,1.18387096774194,1.18709677419355,1.18064516129032,1.1741935483871,1.17741935483871,1.18064516129032,1.17741935483871,1.17096774193548,1.18709677419355,1.18064516129032,1.18709677419355,1.18064516129032,1.18387096774194,1.19354838709677,1.18709677419355,1.18709677419355,1.19032258064516,1.18709677419355,1.18387096774194,1.19354838709677,1.2,1.18709677419355,1.18709677419355,1.19032258064516,1.17741935483871,1.18064516129032,1.18064516129032,1.18387096774194,1.18387096774194,1.2,1.20322580645161,1.21612903225806,1.21935483870968,1.22903225806452,1.23548387096774,1.23225806451613,1.26129032258065,1.27096774193548,1.26774193548387,1.25806451612903,1.25161290322581,1.20322580645161,1.19677419354839,1.1741935483871,1.17096774193548,1.16774193548387,1.16451612903226,1.1741935483871,1.16774193548387,1.16774193548387,1.18064516129032,1.20645161290323,1.4258064516129,2.05161290322581,2.75806451612903,3.07741935483871,2.1,1.41935483870968,1.30967741935484,1.19032258064516,1.11290322580645,1.09354838709677,1.07096774193548,1.06451612903226,1.05161290322581,1.04516129032258,1.04516129032258,1.03548387096774,1.0258064516129,1.02903225806452,1.0258064516129,1.0258064516129,1.01612903225806,1.01612903225806,1.00967741935484,1.00322580645161,0.993548387096774,0.990322580645161,0.97741935483871,0.97741935483871,0.964516129032258,0.958064516129032,0.964516129032258,0.958064516129032,0.980645161290323,0.987096774193548,1.0258064516129,1.06774193548387,1.10967741935484,1.14838709677419,1.1741935483871,1.19354838709677,1.20322580645161,1.20645161290323,1.2,1.19032258064516,1.20967741935484,1.19677419354839,1.19032258064516,1.17741935483871,1.19032258064516,1.18387096774194,1.18064516129032,1.18064516129032,1.18387096774194,1.18709677419355,1.18709677419355,1.18387096774194,1.19032258064516,1.19354838709677,1.19354838709677,1.19354838709677,1.18709677419355,1.19354838709677,1.19677419354839,1.19032258064516,1.2,1.18387096774194,1.19677419354839,1.19032258064516,1.18387096774194,1.18387096774194,1.18709677419355,1.18709677419355,1.18709677419355,1.18709677419355,1.19354838709677,1.18709677419355,1.18709677419355,1.21290322580645,1.20645161290323,1.21612903225806,1.22903225806452,1.2258064516129,1.23225806451613,1.24193548387097,1.26451612903226,1.2741935483871,1.2741935483871,1.27096774193548,1.24193548387097,1.20967741935484,1.18709677419355,1.18064516129032,1.16774193548387,1.17096774193548,1.16451612903226,1.1741935483871,1.16129032258065,1.16129032258065,1.17096774193548,1.18387096774194,1.35483870967742,1.90967741935484,2.61935483870968,3.11290322580645,2.25483870967742,1.45483870967742,1.30645161290323,1.21290322580645,1.11612903225806,1.08387096774194,1.07096774193548,1.04838709677419,1.03870967741935,1.03870967741935,1.03548387096774,1.02903225806452,1.02903225806452,1.01612903225806,1.02258064516129,1.00967741935484,1.03225806451613,1.01290322580645,1.00322580645161,1,0.993548387096774,0.980645161290323,0.974193548387097,0.961290322580645,0.961290322580645,0.954838709677419,0.941935483870968,0.948387096774194,0.951612903225806,0.97741935483871,1.00322580645161,1.03870967741935,1.11612903225806,1.13225806451613,1.16129032258065,1.19032258064516,1.19354838709677,1.2,1.19354838709677,1.19354838709677,1.19354838709677,1.18709677419355,1.1741935483871,1.17741935483871,1.17741935483871,1.17741935483871,1.16451612903226,1.17096774193548,1.1741935483871,1.18064516129032,1.1741935483871,1.18064516129032,1.18387096774194,1.1741935483871,1.18709677419355,1.17741935483871,1.18064516129032,1.17741935483871,1.18709677419355,1.18064516129032,1.18709677419355,1.19032258064516,1.18709677419355,1.18387096774194,1.17741935483871,1.17741935483871,1.1741935483871,1.18064516129032,1.17741935483871,1.17741935483871,1.1741935483871,1.18064516129032,1.18709677419355,1.2,1.20322580645161,1.21290322580645,1.22903225806452,1.21935483870968,1.22903225806452,1.24838709677419,1.26129032258065,1.28387096774194,1.25806451612903,1.25806451612903,1.21612903225806,1.18709677419355,1.17741935483871,1.15483870967742,1.16129032258065,1.15806451612903,1.15483870967742,1.16774193548387,1.16129032258065,1.16774193548387,1.15483870967742,1.2741935483871,1.70645161290323,2.43225806451613,3.09032258064516,2.73548387096774,1.63548387096774,1.3258064516129,1.24193548387097,1.12903225806452,1.1,1.0741935483871,1.06451612903226,1.05161290322581,1.05483870967742,1.05161290322581,1.03870967741935,1.03548387096774,1.03225806451613,1.01935483870968,1.02903225806452,1.0258064516129,1.0258064516129,1.01290322580645,1.01612903225806,1.01290322580645,0.993548387096774,0.990322580645161,0.990322580645161,0.983870967741935,0.980645161290323,0.964516129032258,0.983870967741935,0.964516129032258,1,1.01290322580645,1.06451612903226,1.11290322580645,1.16129032258065,1.19354838709677,1.20967741935484,1.23548387096774,1.2258064516129,1.22903225806452,1.22903225806452,1.22903225806452,1.21612903225806,1.21290322580645,1.23225806451613,1.21612903225806,1.2258064516129,1.21935483870968,1.22258064516129,1.23225806451613,1.23548387096774,1.23225806451613,1.2258064516129,1.23870967741935,1.24193548387097,1.23870967741935,1.25161290322581,1.23548387096774,1.24838709677419,1.25483870967742,1.26129032258065,1.26129032258065,1.25161290322581,1.24838709677419
1.08387096774194,1.07096774193548,1.06774193548387,1.04516129032258,1.04838709677419,1.03225806451613,1.0258064516129,1.01935483870968,1.01290322580645,1.00645161290323,0.990322580645161,1.01290322580645,1.02903225806452,1.05161290322581,1.10322580645161,1.13870967741935,1.18387096774194,1.22258064516129,1.23548387096774,1.23548387096774,1.24516129032258,1.2258064516129,1.23870967741935,1.2258064516129,1.21290322580645,1.21935483870968,1.21612903225806,1.20645161290323,1.21290322580645,1.21290322580645,1.20967741935484,1.21612903225806,1.21290322580645,1.23225806451613,1.21935483870968,1.22258064516129,1.22258064516129,1.2258064516129,1.21612903225806,1.21290322580645,1.21612903225806,1.22258064516129,1.23225806451613,1.20645161290323,1.23870967741935,1.20967741935484,1.21612903225806,1.20322580645161,1.2,1.2,1.21290322580645,1.21290322580645,1.20645161290323,1.21290322580645,1.21935483870968,1.23225806451613,1.23870967741935,1.24516129032258,1.25161290322581,1.24516129032258,1.26129032258065,1.2741935483871,1.29354838709677,1.28064516129032,1.26774193548387,1.23225806451613,1.19032258064516,1.19354838709677,1.17741935483871,1.17096774193548,1.1741935483871,1.1741935483871,1.18709677419355,1.18709677419355,1.16774193548387,1.18064516129032,1.32258064516129,1.83870967741935,2.53225806451613,3.10322580645161,2.43548387096774,1.55806451612903,1.33870967741935,1.23548387096774,1.13870967741935,1.1,1.07741935483871,1.07096774193548,1.05806451612903,1.04838709677419,1.04838709677419,1.04516129032258,1.04193548387097,1.04838709677419,1.03870967741935,1.0258064516129,1.0258064516129,1.01290322580645,1.01612903225806,1.00967741935484,1,0.993548387096774,0.987096774193548,0.967741935483871,0.967741935483871,0.961290322580645,0.941935483870968,0.954838709677419,0.948387096774194,0.970967741935484,1,1.03870967741935,1.08709677419355,1.13225806451613,1.15483870967742,1.17096774193548,1.17741935483871,1.19677419354839,1.19354838709677,1.1741935483871,1.1741935483871,1.17096774193548,1.1741935483871,1.17096774193548,1.16774193548387,1.16774193548387,1.16129032258065,1.16129032258065,1.16451612903226,1.18387096774194,1.17096774193548,1.17096774193548,1.1741935483871,1.1741935483871,1.18064516129032,1.17741935483871,1.18064516129032,1.17096774193548,1.17741935483871,1.16451612903226,1.18387096774194,1.17741935483871,1.17741935483871,1.17096774193548,1.18387096774194,1.17096774193548,1.16774193548387,1.17096774193548,1.16774193548387,1.1741935483871,1.1741935483871,1.18709677419355,1.17741935483871,1.2,1.2,1.20967741935484,1.22258064516129,1.21935483870968,1.23548387096774,1.24516129032258,1.26451612903226,1.25483870967742,1.24193548387097,1.23225806451613,1.18387096774194,1.19032258064516,1.16451612903226,1.16129032258065,1.15483870967742,1.15806451612903,1.16451612903226,1.15806451612903,1.16129032258065,1.16129032258065,1.19677419354839,1.45806451612903,2.12258064516129,2.83548387096774,3.01290322580645,1.99677419354839,1.38709677419355,1.28709677419355,1.1741935483871,1.10645161290323,1.09032258064516,1.07096774193548,1.05806451612903,1.05161290322581,1.04516129032258,1.04516129032258,1.03870967741935,1.0258064516129,1.03870967741935,1.03225806451613,1.0258064516129,1.0258064516129,1.01935483870968,1.00967741935484,1.00645161290323,1,0.987096774193548,0.97741935483871,0.97741935483871,0.964516129032258,0.961290322580645,0.954838709677419,0.958064516129032,0.967741935483871,0.996774193548387,1.02258064516129,1.06451612903226,1.12258064516129,1.15806451612903,1.1741935483871,1.19677419354839,1.20322580645161,1.20322580645161,1.19354838709677,1.2,1.19677419354839,1.19032258064516,1.18387096774194,1.18709677419355,1.1741935483871,1.17741935483871,1.18064516129032,1.17741935483871,1.18064516129032,1.18387096774194,1.18709677419355,1.17741935483871,1.18709677419355,1.19032258064516,1.18709677419355,1.2,1.18387096774194,1.18709677419355,1.20645161290323,1.19354838709677,1.19032258064516,1.19032258064516,1.18387096774194,1.18709677419355,1.18387096774194,1.18064516129032,1.18709677419355,1.18709677419355,1.17096774193548,1.20645161290323,1.20322580645161,1.20322580645161,1.20645161290323,1.22258064516129,1.24516129032258,1.23870967741935,1.24516129032258,1.25806451612903,1.27741935483871,1.27096774193548,1.2741935483871,1.24193548387097,1.20322580645161,1.20322580645161,1.18064516129032,1.17741935483871,1.17096774193548,1.1741935483871,1.17741935483871,1.1741935483871,1.16774193548387,1.17096774193548,1.19677419354839,1.3741935483871,1.94193548387097,2.66774193548387,3.11612903225806,2.21935483870968,1.43870967741935,1.3,1.21290322580645,1.12258064516129,1.10322580645161,1.07741935483871,1.06129032258065,1.06129032258065,1.05161290322581,1.04838709677419,1.03870967741935,1.03225806451613,1.04516129032258,1.03225806451613,1.01935483870968,1.02258064516129,1.02258064516129,1.01290322580645,1.00645161290323,1,0.987096774193548,0.987096774193548,0.97741935483871,0.961290322580645,0.958064516129032,0.948387096774194,0.948387096774194,0.970967741935484,0.97741935483871,1.0258064516129,1.05806451612903,1.09677419354839,1.14516129032258,1.17741935483871,1.19032258064516,1.2,1.20322580645161,1.19677419354839,1.19677419354839,1.18064516129032,1.20645161290323,1.18387096774194,1.18064516129032,1.1741935483871,1.17741935483871,1.18064516129032,1.16774193548387,1.18709677419355,1.17096774193548,1.17096774193548,1.19032258064516,1.18064516129032,1.19677419354839,1.18709677419355,1.18387096774194,1.19354838709677,1.19032258064516,1.19032258064516,1.18709677419355,1.18709677419355,1.19032258064516,1.1741935483871,1.18387096774194,1.18387096774194,1.17741935483871,1.18387096774194,1.18064516129032,1.1741935483871,1.17741935483871,1.19354838709677,1.19032258064516,1.20967741935484,1.20645161290323,1.21290322580645,1.2258064516129,1.2258064516129,1.23548387096774,1.24516129032258,1.27096774193548,1.26451612903226,1.26129032258065,1.24838709677419,1.19032258064516,1.18387096774194,1.16129032258065,1.16774193548387,1.16451612903226,1.16129032258065,1.15806451612903,1.16774193548387,1.16774193548387,1.17096774193548,1.20645161290323,1.40967741935484,2.03870967741935,2.81612903225806,3.11290322580645,2.11290322580645,1.40967741935484,1.3,1.1741935483871,1.10322580645161,1.08387096774194,1.06451612903226,1.05806451612903,1.04193548387097,1.04838709677419,1.02903225806452,1.0258064516129,1.03870967741935,1.02258064516129,1.00967741935484,1.03225806451613,1.01935483870968,1.01290322580645,0.993548387096774,0.990322580645161,1,0.990322580645161,0.970967741935484,0.974193548387097,0.945161290322581,0.948387096774194,0.945161290322581,0.945161290322581,0.935483870967742,0.983870967741935,1.0258064516129,1.06774193548387,1.11935483870968,1.15161290322581,1.18709677419355,1.2,1.18709677419355,1.2258064516129,1.20967741935484,1.20645161290323,1.18387096774194,1.19032258064516,1.17741935483871,1.19677419354839,1.18387096774194,1.1741935483871,1.16451612903226,1.19032258064516,1.18709677419355,1.18387096774194,1.18709677419355,1.19354838709677,1.18387096774194,1.19677419354839,1.18709677419355,1.18387096774194,1.19677419354839,1.18387096774194,1.19032258064516,1.18387096774194,1.19354838709677,1.19354838709677,1.19677419354839,1.18387096774194,1.19677419354839,1.2,1.18387096774194,1.17741935483871,1.2,1.19032258064516,1.18709677419355,1.2,1.20645161290323,1.20967741935484,1.23225806451613,1.21612903225806,1.22903225806452,1.23225806451613,1.25161290322581,1.26451612903226,1.28387096774194,1.26129032258065,1.25161290322581,1.2258064516129,1.19032258064516,1.1741935483871,1.18064516129032,1.17741935483871,1.14838709677419,1.18064516129032,1.17096774193548,1.1741935483871,1.18064516129032,1.18709677419355,1.27096774193548,1.74838709677419,2.51935483870968,3.12258064516129,2.60645161290323,1.57741935483871,1.31935483870968,1.25161290322581,1.1258064516129,1.1,1.05806451612903,1.05483870967742,1.05483870967742,1.03548387096774,1.04516129032258,1.04516129032258,1.03548387096774,1.02903225806452,1.02903225806452,1.02258064516129,1.01935483870968,1.01935483870968,1.00322580645161,1.00645161290323,0.993548387096774,0.993548387096774,0.980645161290323,0.983870967741935,0.97741935483871,0.958064516129032,0.954838709677419,0.958064516129032,0.954838709677419,0.980645161290323,1.01290322580645,1.03548387096774,1.09677419354839,1.12258064516129,1.16774193548387,1.18709677419355,1.18387096774194,1.20322580645161,1.18709677419355,1.19032258064516,1.19677419354839,1.1741935483871,1.18064516129032,1.18064516129032,1.16129032258065,1.18387096774194,1.1741935483871,1.17741935483871,1.18387096774194,1.18064516129032,1.19032258064516,1.19032258064516,1.17096774193548,1.20967741935484,1.2,1.18709677419355,1.20322580645161,1.18387096774194,1.17741935483871,1.2,1.18387096774194,1.18064516129032,1.18709677419355,1.19032258064516,1.16774193548387,1.18709677419355,1.18387096774194,1.18709677419355,1.17741935483871,1.2,1.1741935483871,1.18709677419355,1.19354838709677,1.21290322580645,1.21290322580645,1.21935483870968,1.23548387096774,1.23548387096774,1.23225806451613,1.25483870967742,1.26129032258065,1.25806451612903,1.26451612903226,1.23548387096774,1.19677419354839,1.18709677419355,1.17096774193548,1.17096774193548,1.17096774193548,1.15483870967742,1.16451612903226,1.18387096774194,1.16451612903226,1.15806451612903,1.19354838709677,1.41612903225806,2.04193548387097,2.75806451612903,3.00645161290323,2.03870967741935,1.39354838709677,1.29354838709677,1.20322580645161,1.10645161290323,1.08709677419355,1.07096774193548,1.05806451612903,1.06774193548387,1.05806451612903,1.04516129032258,1.03225806451613,1.04516129032258,1.03225806451613,1.01935483870968,1.01935483870968,1.03225806451613,1.03225806451613,1.00645161290323,1.00322580645161,1.01290322580645,0.990322580645161,0.980645161290323,0.970967741935484,0.967741935483871,0.958064516129032,0.938709677419355,0.954838709677419,0.954838709677419,0.980645161290323,1.02258064516129,1.05806451612903,1.11612903225806,1.14193548387097,1.17741935483871,1.19032258064516,1.19677419354839,1.19354838709677,1.18064516129032,1.18387096774194,1.18387096774194,1.16774193548387,1.17741935483871,1.1741935483871,1.16774193548387,1.17096774193548,1.16774193548387,1.18387096774194,1.18709677419355,1.18064516129032,1.18387096774194,1.18064516129032,1.19032258064516,1.19032258064516,1.17741935483871,1.18709677419355,1.2,1.19354838709677,1.19677419354839,1.19032258064516,1.18387096774194,1.18387096774194,1.18709677419355,1.18064516129032,1.17096774193548,1.18709677419355,1.18387096774194,1.19354838709677,1.17741935483871,1.19677419354839,1.20967741935484,1.20645161290323,1.21290322580645,1.21612903225806,1.2258064516129,1.23548387096774,1.23225806451613,1.26451612903226,1.25806451612903,1.26774193548387,1.26451612903226,1.23870967741935,1.21290322580645,1.19032258064516,1.18709677419355,1.16774193548387,1.18064516129032,1.17096774193548,1.18709677419355,1.18709677419355,1.1741935483871,1.15806451612903,1.2,1.37741935483871,1.96774193548387,2.68064516129032,3.06129032258065,2.18387096774194,1.43548387096774,1.31612903225806,1.2258064516129,1.13225806451613,1.1,1.09032258064516,1.07096774193548,1.06129032258065,1.06129032258065,1.05806451612903,1.05806451612903,1.03870967741935,1.03548387096774,1.03548387096774,1.04193548387097,1.03548387096774,1.02258064516129,1.01935483870968,1.01612903225806,1.00322580645161,0.993548387096774,0.987096774193548,0.980645161290323,0.967741935483871,0.948387096774194,0.993548387096774,0.970967741935484,0.983870967741935,0.987096774193548,1.01935483870968,1.06451612903226,1.10322580645161,1.14838709677419,1.17741935483871,1.19032258064516,1.20645161290323,1.19677419354839,1.19354838709677,1.18064516129032,1.19677419354839,1.18387096774194,1.18064516129032,1.17096774193548,1.17741935483871,1.17741935483871,1.1741935483871,1.18387096774194,1.16451612903226,1.17741935483871,1.18709677419355,1.16774193548387,1.17096774193548,1.19677419354839,1.19354838709677,1.19354838709677,1.18709677419355,1.19032258064516,1.19032258064516,1.19032258064516,1.18387096774194,1.19032258064516,1.18387096774194,1.18709677419355,1.17741935483871,1.19032258064516,1.18387096774194,1.18387096774194,1.18387096774194,1.19032258064516,1.19032258064516,1.2,1.20645161290323,1.2258064516129,1.21935483870968,1.22903225806452,1.23548387096774,1.25161290322581,1.24193548387097,1.26451612903226,1.23870967741935,1.23225806451613,1.20322580645161,1.1741935483871,1.16129032258065,1.16129032258065,1.15806451612903,1.15806451612903,1.16129032258065,1.15806451612903,1.15483870967742,1.1741935483871,1.23225806451613,1.58387096774194,2.25483870967742,2.96451612903226,2.91935483870968,1.83548387096774,1.35806451612903,1.26774193548387,1.15161290322581,1.1,1.07741935483871,1.07741935483871,1.05483870967742,1.05161290322581,1.04516129032258,1.04193548387097,1.04193548387097,1.02903225806452,1.0258064516129,1.01935483870968,1.01612903225806,1.00645161290323,1.00322580645161,1.00645161290323,0.983870967741935,1.01290322580645,0.97741935483871,0.964516129032258,0.961290322580645,0.958064516129032,0.958064516129032,0.958064516129032,0.961290322580645,0.980645161290323,0.993548387096774,1.03548387096774,1.08387096774194,1.11612903225806,1.15483870967742,1.19354838709677,1.19677419354839,1.2,1.19354838709677,1.2,1.18064516129032,1.18064516129032,1.19354838709677,1.1741935483871,1.19032258064516,1.18709677419355,1.16129032258065,1.17096774193548,1.1741935483871,1.1741935483871,1.1741935483871,1.18064516129032,1.18709677419355,1.17741935483871,1.18064516129032,1.19032258064516,1.19032258064516,1.19354838709677,1.19354838709677,1.17741935483871,1.2,1.19032258064516,1.18709677419355,1.19354838709677,1.18064516129032,1.18387096774194,1.18064516129032,1.1741935483871,1.18064516129032,1.17741935483871,1.19032258064516,1.2,1.19032258064516,1.2,1.20645161290323,1.21290322580645,1.22903225806452,1.22903225806452,1.24838709677419,1.25161290322581,1.27096774193548,1.25161290322581,1.23870967741935,1.20645161290323,1.19354838709677,1.18064516129032,1.17096774193548,1.16451612903226,1.16774193548387,1.16451612903226,1.16774193548387,1.16451612903226,1.1741935483871,1.18064516129032,1.31612903225806,1.8258064516129,2.51290322580645,3.10322580645161,2.44193548387097,1.5258064516129,1.32903225806452,1.2258064516129,1.12903225806452,1.09677419354839,1.07741935483871,1.06129032258065,1.06129032258065,1.04838709677419,1.04516129032258,1.03870967741935,1.03548387096774,1.02258064516129,1.02258064516129,1.02258064516129,1.01935483870968,1.01935483870968,1.01290322580645,1.00322580645161,0.993548387096774,0.990322580645161,0.990322580645161,0.980645161290323,0.961290322580645,0.961290322580645,0.954838709677419,0.954838709677419,0.967741935483871,0.970967741935484,1,1.05161290322581,1.10322580645161,1.13870967741935,1.16774193548387,1.19354838709677,1.19354838709677,1.20322580645161,1.2,1.19677419354839,1.19032258064516,1.1741935483871,1.2,1.18709677419355,1.19354838709677,1.18064516129032,1.18064516129032,1.18387096774194,1.17741935483871,1.1741935483871,1.18387096774194,1.18064516129032,1.18387096774194,1.19032258064516,1.19677419354839,1.19677419354839,1.18709677419355,1.19354838709677,1.20967741935484,1.19032258064516,1.2,1.19354838709677,1.2,1.18709677419355,1.18709677419355,1.19032258064516,1.18709677419355,1.19032258064516,1.18387096774194,1.18387096774194,1.19677419354839,1.19677419354839,1.20967741935484,1.21612903225806,1.2258064516129,1.23225806451613,1.24516129032258,1.23870967741935,1.26774193548387,1.26129032258065,1.28064516129032,1.26129032258065,1.23870967741935,1.19354838709677,1.19032258064516,1.17096774193548,1.17096774193548,1.16451612903226,1.15483870967742,1.16451612903226,1.16129032258065,1.1741935483871,1.16451612903226,1.22258064516129,1.46129032258065,2.15483870967742,2.87741935483871,3.04838709677419,2.00645161290323,1.39677419354839,1.28709677419355,1.16774193548387,1.11612903225806,1.0741935483871,1.0741935483871,1.06451612903226,1.04838709677419,1.04193548387097,1.03225806451613,1.03548387096774,1.03225806451613,1.0258064516129,1.02258064516129,1.01935483870968,1.01935483870968,1.00645161290323,1.01290322580645,1,0.967741935483871,1.00967741935484,0.983870967741935,0.974193548387097,0.958064516129032,0.951612903225806,0.948387096774194,0.967741935483871,0.970967741935484,0.987096774193548,1.03870967741935,1.09032258064516,1.11612903225806,1.17096774193548,1.18709677419355,1.19677419354839,1.20645161290323,1.20645161290323,1.20967741935484,1.19354838709677,1.19677419354839,1.19354838709677,1.19354838709677,1.1741935483871,1.19677419354839,1.17096774193548,1.1741935483871,1.18709677419355,1.18064516129032,1.16451612903226,1.18709677419355,1.18064516129032,1.18709677419355,1.19032258064516,1.17741935483871,1.20645161290323,1.20322580645161,1.18387096774194,1.2,1.19354838709677,1.18064516129032,1.19354838709677,1.20322580645161,1.20322580645161,1.17741935483871,1.20645161290323,1.18387096774194,1.19677419354839,1.18387096774194,1.18709677419355,1.19354838709677,1.2,1.21290322580645,1.21290322580645,1.20967741935484,1.24193548387097,1.23225806451613,1.24516129032258,1.25483870967742,1.25806451612903,1.26451612903226,1.24838709677419,1.21935483870968,1.18387096774194,1.16451612903226,1.18064516129032,1.15806451612903,1.17096774193548,1.17096774193548,1.15161290322581,1.15806451612903,1.16451612903226,1.15483870967742,1.23870967741935,1.63548387096774,2.37096774193548,3.08709677419355,2.8258064516129,1.70322580645161,1.32903225806452,1.23548387096774,1.12258064516129,1.08709677419355,1.08064516129032,1.04193548387097,1.04193548387097,1.04193548387097,1.03225806451613,1.02258064516129,1.02258064516129,1.01935483870968,1.01290322580645,1.02258064516129,1.0258064516129,1,1.00322580645161,1.01290322580645,1,0.987096774193548,0.970967741935484,0.961290322580645,0.945161290322581,0.938709677419355,0.938709677419355,0.941935483870968,0.932258064516129,0.958064516129032,0.980645161290323,1.01935483870968,1.08064516129032,1.12258064516129,1.13548387096774,1.1741935483871,1.16774193548387,1.20645161290323,1.1741935483871,1.16451612903226,1.17096774193548,1.17096774193548,1.17096774193548,1.16129032258065,1.15806451612903,1.16451612903226,1.16129032258065,1.18387096774194,1.16774193548387,1.16774193548387,1.16774193548387,1.18064516129032,1.18064516129032,1.17096774193548,1.18387096774194,1.20322580645161,1.19354838709677,1.18387096774194,1.2,1.1741935483871,1.18064516129032,1.17741935483871,1.1741935483871,1.17096774193548,1.18064516129032,1.17741935483871,1.18387096774194,1.17741935483871,1.16774193548387,1.20967741935484,1.16774193548387,1.18709677419355,1.20322580645161,1.20645161290323,1.21612903225806,1.21612903225806,1.22258064516129,1.21612903225806,1.22258064516129,1.25483870967742,1.26129032258065,1.2741935483871,1.26774193548387,1.24193548387097,1.2,1.18387096774194,1.17741935483871,1.17096774193548,1.17096774193548,1.18064516129032,1.17741935483871,1.17741935483871,1.18064516129032,1.18387096774194,1.20322580645161,1.4741935483871,2.11612903225806,2.84516129032258,2.97096774193548,2.00967741935484,1.40967741935484,1.30322580645161,1.19354838709677,1.13870967741935,1.09677419354839,1.08709677419355,1.08064516129032,1.08064516129032,1.0741935483871,1.05806451612903,1.07096774193548,1.06129032258065,1.05806451612903,1.03870967741935,1.04838709677419,1.05161290322581,1.05483870967742,1.02903225806452,1.02903225806452,1.01290322580645,1.03548387096774,1.02258064516129,0.996774193548387,0.990322580645161,0.987096774193548,0.993548387096774,0.980645161290323,1.00322580645161,1.00645161290323,1.05161290322581,1.09032258064516,1.13870967741935,1.18387096774194,1.20322580645161,1.2258064516129,1.23225806451613,1.22903225806452,1.20322580645161,1.21935483870968,1.21290322580645,1.20645161290323,1.19677419354839,1.23225806451613,1.20967741935484,1.20645161290323,1.20645161290323,1.20322580645161,1.20967741935484,1.20645161290323,1.21612903225806,1.21290322580645,1.19354838709677,1.21935483870968,1.21935483870968,1.22258064516129,1.21612903225806,1.21935483870968,1.20967741935484,1.21290322580645,1.21290322580645,1.21290322580645,1.20645161290323,1.21290322580645,1.20967741935484,1.20967741935484,1.19354838709677,1.19032258064516,1.18709677419355,1.2,1.20645161290323,1.21612903225806,1.22258064516129,1.21935483870968,1.22258064516129,1.21935483870968,1.25483870967742,1.25161290322581,1.26129032258065,1.24516129032258,1.24193548387097,1.21935483870968,1.18064516129032,1.14838709677419,1.14838709677419,1.15483870967742,1.12903225806452,1.14193548387097,1.11935483870968,1.12258064516129,1.12258064516129,1.11290322580645,1.21290322580645,1.65161290322581
