1.39354838709677,1.38387096774194,1.39354838709677,1.40645161290323,1.4,1.4,1.40967741935484,1.41935483870968,1.43870967741935,1.43870967741935,1.44516129032258,1.42258064516129,1.42903225806452,1.40645161290323,1.3741935483871,1.36774193548387,1.36774193548387,1.36774193548387,1.37741935483871,1.35806451612903,1.36451612903226,1.36774193548387,1.37096774193548,1.37096774193548,1.37741935483871,1.37096774193548,1.36129032258065,1.34838709677419,1.46774193548387,1.84516129032258,2.12258064516129,2.24516129032258,1.87741935483871,1.41612903225806,1.33870967741935,1.32258064516129,1.35806451612903,1.3741935483871,1.37096774193548,1.36774193548387,1.35483870967742,1.36774193548387,1.35806451612903,1.35483870967742,1.35483870967742,1.36451612903226,1.36451612903226,1.35806451612903,1.36451612903226,1.3741935483871,1.37096774193548,1.36129032258065,1.3741935483871,1.3741935483871,1.38387096774194,1.38064516129032,1.39032258064516,1.38709677419355,1.4,1.41290322580645,1.42903225806452,1.43870967741935,1.45806451612903,1.46451612903226,1.48709677419355,1.50645161290323,1.51612903225806,1.53548387096774,1.53870967741935,1.55806451612903,1.56129032258065,1.54838709677419,1.5258064516129,1.50645161290323,1.47741935483871,1.44516129032258,1.4258064516129,1.41612903225806,1.39677419354839,1.38064516129032,1.3741935483871,1.37096774193548,1.37096774193548,1.37096774193548,1.37741935483871,1.37096774193548,1.37096774193548,1.36774193548387,1.37741935483871,1.38064516129032,1.36451612903226,1.36129032258065,1.36774193548387,1.36451612903226,1.36451612903226,1.35806451612903,1.36129032258065,1.36129032258065,1.36774193548387,1.37741935483871,1.36774193548387,1.36451612903226,1.36129032258065,1.35161290322581,1.35806451612903,1.36451612903226,1.35806451612903,1.36129032258065,1.35161290322581,1.35483870967742,1.36129032258065,1.35161290322581,1.34193548387097,1.35806451612903,1.35806451612903,1.34838709677419,1.35806451612903,1.34516129032258,1.35483870967742,1.35483870967742,1.35806451612903,1.35161290322581,1.35806451612903,1.35161290322581,1.35483870967742,1.35806451612903,1.35483870967742,1.35806451612903,1.34838709677419,1.35806451612903,1.35483870967742,1.35483870967742,1.34516129032258,1.35161290322581,1.35161290322581,1.35806451612903,1.34516129032258,1.34193548387097,1.35483870967742,1.36129032258065,1.35161290322581,1.35161290322581,1.34838709677419,1.35806451612903,1.35483870967742,1.36451612903226,1.3741935483871,1.37096774193548,1.3741935483871,1.38387096774194,1.40322580645161,1.41290322580645,1.40645161290323,1.39677419354839,1.39032258064516,1.37741935483871,1.33870967741935,1.33870967741935,1.34193548387097,1.34516129032258,1.34516129032258,1.34193548387097,1.33548387096774,1.32903225806452,1.34193548387097,1.33548387096774,1.33870967741935,1.33548387096774,1.33870967741935,1.32903225806452,1.39677419354839,1.78064516129032,2.10645161290323,2.24516129032258,1.90322580645161,1.3741935483871,1.27096774193548,1.2741935483871,1.3,1.36129032258065,1.34193548387097,1.34838709677419,1.34193548387097,1.34838709677419,1.34838709677419,1.34838709677419,1.35483870967742,1.34838709677419,1.35483870967742,1.36129032258065,1.36774193548387,1.36451612903226,1.36451612903226,1.35806451612903,1.38064516129032,1.38387096774194,1.38387096774194,1.39032258064516,1.39677419354839,1.40967741935484,1.41612903225806,1.42258064516129,1.43548387096774,1.45806451612903,1.46774193548387,1.48709677419355,1.51290322580645,1.52258064516129,1.53870967741935,1.55483870967742,1.5741935483871,1.57096774193548,1.5741935483871,1.5741935483871,1.55483870967742,1.52903225806452,1.50322580645161,1.47096774193548,1.44838709677419,1.4258064516129,1.40322580645161,1.41612903225806,1.4,1.38064516129032,1.38387096774194,1.38709677419355,1.37741935483871,1.38709677419355,1.39032258064516,1.39354838709677,1.38709677419355,1.38709677419355,1.38064516129032,1.38709677419355,1.39354838709677,1.39354838709677,1.39032258064516,1.38387096774194,1.38387096774194,1.38709677419355,1.38709677419355,1.3741935483871,1.38387096774194,1.38064516129032,1.37741935483871,1.3741935483871,1.38064516129032,1.36774193548387,1.3741935483871,1.38387096774194,1.36451612903226,1.37096774193548,1.3741935483871,1.36774193548387,1.36774193548387,1.36774193548387,1.36451612903226,1.36774193548387,1.37096774193548,1.37096774193548,1.36451612903226,1.35806451612903,1.36451612903226,1.35806451612903,1.3741935483871,1.36451612903226,1.35483870967742,1.36451612903226,1.35483870967742,1.35161290322581,1.35483870967742,1.35806451612903,1.36451612903226,1.35806451612903,1.36451612903226,1.36451612903226,1.35483870967742,1.36129032258065,1.35483870967742,1.35806451612903,1.35806451612903,1.35806451612903,1.35806451612903,1.35806451612903,1.36774193548387,1.36129032258065,1.36451612903226,1.37096774193548,1.37096774193548,1.3741935483871,1.39032258064516,1.38709677419355,1.41935483870968,1.40645161290323,1.41935483870968,1.39677419354839,1.38709677419355,1.36129032258065,1.34193548387097,1.34838709677419,1.34516129032258,1.34516129032258,1.34838709677419,1.33225806451613,1.33870967741935,1.34516129032258,1.33870967741935,1.34193548387097,1.34193548387097,1.34838709677419,1.33225806451613,1.36451612903226,1.60645161290323,1.98064516129032,2.18064516129032,2.0741935483871,1.50967741935484,1.32903225806452,1.26451612903226,1.30322580645161,1.37096774193548,1.34193548387097,1.35161290322581,1.34516129032258,1.35161290322581,1.33870967741935,1.34838709677419,1.35161290322581,1.35161290322581,1.35161290322581,1.36129032258065,1.35161290322581,1.36129032258065,1.35161290322581,1.36774193548387,1.36129032258065,1.37096774193548,1.37741935483871,1.3741935483871,1.38064516129032,1.39354838709677,1.39677419354839,1.40645161290323,1.41290322580645,1.4258064516129,1.44193548387097,1.46451612903226,1.48709677419355,1.49032258064516,1.51935483870968,1.52903225806452,1.55483870967742,1.55806451612903,1.55483870967742,1.55483870967742,1.54516129032258,1.51935483870968,1.5,1.46129032258065,1.43225806451613,1.41612903225806,1.4,1.39354838709677,1.39032258064516,1.38387096774194,1.3741935483871,1.37741935483871,1.37096774193548,1.36129032258065,1.3741935483871,1.3741935483871,1.3741935483871,1.38064516129032,1.3741935483871,1.37741935483871,1.36774193548387,1.38064516129032,1.37741935483871,1.37741935483871,1.38064516129032,1.38064516129032,1.3741935483871,1.37096774193548,1.37096774193548,1.37096774193548,1.37096774193548,1.37096774193548,1.36774193548387,1.37096774193548,1.3741935483871,1.37096774193548,1.37096774193548,1.3741935483871,1.36451612903226,1.36774193548387,1.36451612903226,1.36451612903226,1.36129032258065,1.35806451612903,1.36451612903226,1.36774193548387,1.35161290322581,1.36129032258065,1.36129032258065,1.36129032258065,1.36451612903226,1.36451612903226,1.3741935483871,1.36774193548387,1.36774193548387,1.36451612903226,1.37741935483871,1.36774193548387,1.36774193548387,1.35806451612903,1.36451612903226,1.35806451612903,1.36129032258065,1.36129032258065,1.36129032258065,1.36129032258065,1.36129032258065,1.36774193548387,1.36129032258065,1.36774193548387,1.35806451612903,1.36451612903226,1.36129032258065,1.36129032258065,1.37096774193548,1.3741935483871,1.38064516129032,1.38387096774194,1.38387096774194,1.40322580645161,1.41935483870968,1.41935483870968,1.41935483870968,1.39677419354839,1.39677419354839,1.36129032258065,1.35483870967742,1.35483870967742,1.35161290322581,1.33870967741935,1.34838709677419,1.33870967741935,1.35161290322581,1.33870967741935,1.34193548387097,1.34838709677419,1.34838709677419,1.35806451612903,1.33225806451613,1.37096774193548,1.58709677419355,1.9741935483871,2.19354838709677,2.11612903225806,1.59354838709677,1.35161290322581,1.29354838709677,1.3258064516129,1.3741935483871,1.35161290322581,1.36774193548387,1.36129032258065,1.36129032258065,1.35483870967742,1.34516129032258,1.35483870967742,1.36451612903226,1.36774193548387,1.35161290322581,1.36451612903226,1.36129032258065,1.36774193548387,1.36774193548387,1.36451612903226,1.3741935483871,1.38064516129032,1.39032258064516,1.38387096774194,1.39032258064516,1.40322580645161,1.40645161290323,1.41290322580645,1.42258064516129,1.44193548387097,1.46129032258065,1.48387096774194,1.50645161290323,1.52903225806452,1.52903225806452,1.54193548387097,1.56129032258065,1.56774193548387,1.56451612903226,1.54516129032258,1.52258064516129,1.50322580645161,1.47096774193548,1.45483870967742,1.41612903225806,1.41290322580645,1.39354838709677,1.39354838709677,1.38709677419355,1.37741935483871,1.38387096774194,1.37741935483871,1.37096774193548,1.38387096774194,1.38064516129032,1.3741935483871,1.3741935483871,1.38064516129032,1.38387096774194,1.3741935483871,1.38064516129032,1.37096774193548,1.3741935483871,1.37741935483871,1.3741935483871,1.37096774193548,1.37741935483871,1.36129032258065,1.38064516129032,1.37096774193548,1.35806451612903,1.36129032258065,1.36774193548387,1.37096774193548,1.36451612903226,1.37096774193548,1.36129032258065,1.35483870967742,1.36451612903226,1.36129032258065,1.36451612903226,1.36774193548387,1.36451612903226,1.35806451612903,1.35806451612903,1.36129032258065,1.35161290322581,1.35161290322581,1.36451612903226,1.35161290322581,1.34516129032258,1.36451612903226,1.35161290322581,1.36451612903226,1.35483870967742,1.36451612903226,1.34838709677419,1.36129032258065,1.36451612903226,1.35806451612903,1.35806451612903,1.35161290322581,1.35806451612903,1.36451612903226,1.36129032258065,1.36451612903226,1.36774193548387,1.35483870967742,1.36774193548387,1.35483870967742,1.35806451612903,1.35483870967742,1.35161290322581,1.37741935483871,1.36451612903226,1.36451612903226,1.36451612903226,1.36774193548387,1.38709677419355,1.41935483870968,1.40645161290323,1.41935483870968,1.40322580645161,1.39677419354839,1.3741935483871,1.35483870967742,1.34516129032258,1.35483870967742,1.35806451612903,1.35806451612903,1.34838709677419,1.35483870967742,1.34516129032258,1.34838709677419,1.34838709677419,1.34838709677419,1.35483870967742,1.34516129032258,1.35161290322581,1.52903225806452,1.94193548387097,2.18064516129032,2.17096774193548,1.6258064516129,1.31935483870968,1.25483870967742,1.28064516129032,1.34516129032258,1.34516129032258,1.34838709677419,1.35806451612903,1.35483870967742,1.34838709677419,1.35806451612903,1.35161290322581,1.36451612903226,1.36451612903226,1.36129032258065,1.36129032258065,1.35806451612903,1.37096774193548,1.36129032258065,1.37741935483871,1.37096774193548,1.38064516129032,1.38387096774194,1.39677419354839,1.38387096774194,1.4,1.40967741935484,1.42258064516129,1.44838709677419,1.44516129032258,1.46774193548387,1.49032258064516,1.50645161290323,1.52903225806452,1.54193548387097,1.55806451612903,1.56774193548387,1.5741935483871,1.57741935483871,1.55483870967742,1.53870967741935,1.5,1.47096774193548,1.44838709677419,1.4258064516129,1.41935483870968,1.39354838709677,1.38387096774194,1.38387096774194,1.36129032258065,1.37741935483871,1.36774193548387,1.37741935483871,1.37741935483871,1.37741935483871,1.37741935483871,1.38064516129032,1.37096774193548,1.38387096774194,1.38064516129032,1.38064516129032,1.38387096774194,1.38064516129032,1.37741935483871,1.38709677419355,1.37741935483871,1.37096774193548,1.3741935483871,1.36129032258065,1.36774193548387,1.37096774193548,1.36774193548387,1.36451612903226,1.37096774193548,1.36774193548387,1.37096774193548,1.36451612903226,1.37096774193548,1.36129032258065,1.36451612903226,1.37741935483871,1.36451612903226,1.36129032258065,1.36774193548387,1.35483870967742,1.36774193548387,1.36129032258065,1.35806451612903,1.35806451612903,1.36451612903226,1.36129032258065,1.36774193548387,1.36451612903226,1.36451612903226,1.35483870967742,1.35161290322581,1.35483870967742,1.36129032258065,1.35806451612903,1.35483870967742,1.35806451612903,1.35806451612903,1.35806451612903,1.35806451612903,1.37096774193548,1.36451612903226,1.35483870967742,1.35483870967742,1.35483870967742,1.35161290322581,1.35806451612903,1.37096774193548,1.36774193548387,1.36129032258065,1.36451612903226,1.3741935483871,1.39032258064516,1.41935483870968,1.4,1.41290322580645,1.4,1.4,1.35161290322581,1.34838709677419,1.34193548387097,1.34838709677419,1.34516129032258,1.34193548387097,1.35161290322581,1.33225806451613,1.34516129032258,1.34193548387097,1.34516129032258,1.34838709677419,1.34838709677419,1.33870967741935,1.34193548387097,1.51290322580645,1.89032258064516,2.12258064516129,2.14516129032258,1.69032258064516,1.34193548387097,1.28709677419355,1.30967741935484,1.34516129032258,1.35806451612903,1.35483870967742,1.34838709677419,1.35161290322581,1.36129032258065,1.35806451612903,1.35161290322581,1.35806451612903,1.36774193548387,1.36129032258065,1.36129032258065,1.37096774193548,1.36451612903226,1.36774193548387,1.36774193548387,1.38064516129032,1.37741935483871,1.37741935483871,1.38709677419355,1.39354838709677,1.40322580645161,1.40967741935484,1.42258064516129,1.4258064516129,1.44516129032258,1.46774193548387,1.47741935483871,1.49677419354839,1.51612903225806,1.53870967741935,1.54516129032258,1.56451612903226,1.56451612903226,1.55806451612903,1.54516129032258,1.52258064516129,1.49032258064516,1.46774193548387,1.43548387096774,1.41935483870968,1.4,1.39354838709677,1.37741935483871,1.38387096774194,1.38064516129032,1.36451612903226,1.38387096774194,1.3741935483871,1.37096774193548,1.38387096774194,1.38709677419355,1.3741935483871,1.39032258064516,1.3741935483871,1.38064516129032,1.38387096774194,1.38064516129032,1.38387096774194,1.38064516129032,1.38064516129032,1.37741935483871,1.38064516129032,1.37741935483871,1.37096774193548,1.36774193548387,1.37741935483871,1.3741935483871,1.37741935483871,1.37096774193548,1.36774193548387,1.36774193548387,1.36451612903226,1.37096774193548,1.36451612903226,1.37096774193548,1.36774193548387,1.35483870967742,1.3741935483871,1.36451612903226,1.36129032258065,1.36774193548387,1.37096774193548,1.37096774193548,1.37096774193548,1.3741935483871,1.3741935483871,1.36129032258065,1.37096774193548,1.36129032258065,1.37096774193548,1.38064516129032,1.3741935483871,1.3741935483871,1.36774193548387,1.36774193548387,1.37096774193548,1.37096774193548,1.3741935483871,1.36451612903226,1.36774193548387,1.36129032258065,1.36129032258065,1.37741935483871,1.35161290322581,1.35483870967742,1.35483870967742,1.35483870967742,1.36451612903226,1.34838709677419,1.36451612903226,1.37741935483871,1.38064516129032,1.38387096774194,1.38064516129032,1.38709677419355,1.41935483870968,1.40645161290323,1.41612903225806,1.4,1.39354838709677,1.35806451612903,1.34516129032258,1.35806451612903,1.35483870967742,1.34516129032258,1.35161290322581,1.34838709677419,1.35806451612903,1.34516129032258,1.35483870967742,1.35161290322581,1.35161290322581,1.35806451612903,1.33548387096774,1.35161290322581,1.54516129032258,1.93870967741935,2.16774193548387,2.16129032258065,1.68064516129032,1.37096774193548,1.29354838709677,1.32258064516129,1.35806451612903,1.34838709677419,1.35161290322581,1.34838709677419,1.35483870967742,1.35806451612903,1.35161290322581,1.34838709677419,1.34516129032258,1.35806451612903,1.34516129032258,1.35161290322581,1.35483870967742,1.37096774193548,1.35806451612903,1.36129032258065,1.35806451612903,1.37096774193548,1.38064516129032,1.38709677419355,1.38387096774194,1.39032258064516,1.39677419354839,1.41612903225806,1.42258064516129,1.43870967741935,1.45483870967742,1.4741935483871,1.48709677419355,1.51612903225806,1.5258064516129,1.54516129032258,1.55161290322581,1.56774193548387,1.56451612903226,1.54193548387097,1.52903225806452,1.5,1.4741935483871,1.45161290322581,1.41935483870968,1.40967741935484,1.39677419354839,1.39032258064516,1.38709677419355,1.38387096774194,1.38387096774194,1.38064516129032,1.38064516129032,1.37741935483871,1.38064516129032,1.3741935483871,1.38064516129032,1.3741935483871,1.38064516129032,1.38064516129032,1.37741935483871,1.3741935483871,1.3741935483871,1.38064516129032,1.37741935483871,1.38064516129032,1.36774193548387,1.37096774193548,1.38064516129032,1.36451612903226,1.37096774193548,1.35806451612903,1.36451612903226,1.37096774193548,1.38064516129032,1.36129032258065,1.35806451612903,1.36129032258065,1.36129032258065,1.35161290322581,1.36129032258065,1.35806451612903,1.35806451612903,1.35806451612903,1.35161290322581,1.36451612903226,1.35483870967742,1.34516129032258,1.35483870967742,1.35806451612903,1.36129032258065,1.34838709677419,1.35483870967742,1.36129032258065,1.35483870967742,1.35483870967742,1.35483870967742,1.35161290322581,1.34838709677419,1.36129032258065,1.36129032258065,1.34838709677419,1.35161290322581,1.36129032258065,1.35161290322581,1.34193548387097,1.35161290322581,1.35161290322581,1.36129032258065,1.35483870967742,1.35806451612903,1.35161290322581,1.35483870967742,1.37096774193548,1.36451612903226,1.37096774193548,1.36774193548387,1.39032258064516,1.4,1.39677419354839,1.41612903225806,1.39354838709677,1.39032258064516,1.38064516129032,1.36129032258065,1.34516129032258,1.34516129032258,1.33870967741935,1.34516129032258,1.32903225806452,1.33548387096774,1.33870967741935,1.32903225806452,1.33870967741935,1.33870967741935,1.34193548387097,1.3258064516129,1.32258064516129,1.42903225806452,1.80322580645161,2.11935483870968,2.22903225806452,1.84516129032258,1.34516129032258,1.28387096774194,1.28709677419355,1.32258064516129,1.35161290322581,1.36129032258065,1.34838709677419,1.35483870967742,1.34838709677419,1.35806451612903,1.35806451612903,1.35806451612903,1.36129032258065,1.36774193548387,1.36451612903226,1.37741935483871,1.38387096774194,1.35806451612903,1.36774193548387,1.37096774193548,1.38709677419355,1.39354838709677,1.39354838709677,1.40967741935484,1.39677419354839,1.42258064516129,1.41935483870968,1.44193548387097,1.44838709677419,1.45161290322581,1.49354838709677,1.5,1.5258064516129,1.55483870967742,1.56129032258065,1.58387096774194,1.59032258064516,1.58709677419355,1.58709677419355,1.54516129032258,1.51612903225806,1.48387096774194,1.46129032258065,1.43548387096774,1.41612903225806,1.4,1.39677419354839,1.39677419354839,1.38064516129032,1.38709677419355,1.39677419354839,1.38387096774194,1.38387096774194,1.38387096774194,1.38387096774194,1.39354838709677,1.38709677419355,1.39032258064516,1.39354838709677,1.38709677419355,1.4,1.39032258064516,1.39032258064516,1.39354838709677,1.38387096774194,1.38387096774194,1.38064516129032,1.38387096774194,1.3741935483871,1.37096774193548,1.38064516129032,1.38387096774194,1.37096774193548,1.37741935483871,1.38387096774194,1.37741935483871,1.38064516129032,1.37741935483871,1.3741935483871,1.36129032258065,1.36774193548387,1.37096774193548,1.3741935483871,1.3741935483871,1.3741935483871,1.38709677419355,1.3741935483871,1.36774193548387,1.36774193548387,1.36774193548387,1.3741935483871,1.36774193548387,1.36451612903226,1.36774193548387,1.36129032258065,1.37741935483871,1.37096774193548,1.36774193548387,1.36774193548387,1.36774193548387,1.36774193548387,1.36451612903226,1.3741935483871,1.3741935483871,1.36129032258065,1.36129032258065,1.35806451612903,1.36451612903226,1.36451612903226,1.35806451612903,1.36451612903226,1.36774193548387,1.36774193548387,1.3741935483871,1.36774193548387,1.38064516129032,1.39032258064516,1.40967741935484,1.40967741935484,1.39677419354839,1.38709677419355,1.36774193548387,1.34516129032258,1.33870967741935,1.3258064516129,1.33870967741935,1.33870967741935,1.33548387096774,1.33548387096774,1.32903225806452,1.33225806451613,1.32258064516129,1.33548387096774,1.33870967741935,1.32903225806452,1.32258064516129,1.34838709677419,1.64516129032258,2.00322580645161,2.1741935483871,2.00645161290323,1.45806451612903,1.31612903225806,1.27096774193548,1.28709677419355,1.35483870967742,1.32258064516129,1.33225806451613,1.33548387096774,1.32903225806452,1.33225806451613,1.33548387096774,1.33548387096774,1.34193548387097,1.33225806451613,1.33548387096774,1.34838709677419,1.33870967741935,1.35483870967742,1.34838709677419,1.35161290322581,1.34838709677419,1.35161290322581,1.36451612903226,1.36451612903226,1.37096774193548,1.38064516129032,1.39677419354839,1.41290322580645,1.40645161290323,1.42903225806452,1.45161290322581,1.47741935483871,1.48709677419355,1.50645161290323,1.52258064516129,1.53225806451613,1.54516129032258,1.55483870967742,1.52903225806452,1.5258064516129,1.5,1.46451612903226,1.44193548387097,1.41290322580645,1.40645161290323,1.39032258064516,1.37741935483871,1.3741935483871,1.36129032258065,1.3741935483871,1.36129032258065,1.36451612903226,1.36774193548387,1.37096774193548,1.37096774193548,1.3741935483871,1.3741935483871,1.3741935483871,1.38064516129032,1.37096774193548,1.37096774193548,1.37741935483871,1.39354838709677,1.38064516129032,1.3741935483871,1.38387096774194,1.39032258064516,1.38387096774194,1.38709677419355,1.38064516129032,1.39354838709677,1.39677419354839,1.39677419354839,1.39354838709677,1.4,1.40645161290323,1.40645161290323,1.41612903225806,1.40967741935484
1.28387096774194,1.28387096774194,1.2741935483871,1.27096774193548,1.44193548387097,1.85161290322581,2.10645161290323,2.15483870967742,1.7,1.30322580645161,1.23225806451613,1.25161290322581,1.28387096774194,1.29354838709677,1.3,1.29032258064516,1.29354838709677,1.30322580645161,1.29354838709677,1.30967741935484,1.30967741935484,1.30645161290323,1.30967741935484,1.30967741935484,1.3258064516129,1.31290322580645,1.31612903225806,1.32903225806452,1.3258064516129,1.33870967741935,1.33548387096774,1.34516129032258,1.34516129032258,1.36451612903226,1.37096774193548,1.38064516129032,1.38387096774194,1.40322580645161,1.4258064516129,1.45161290322581,1.47096774193548,1.49032258064516,1.51612903225806,1.51935483870968,1.54193548387097,1.54516129032258,1.55483870967742,1.53548387096774,1.51290322580645,1.49032258064516,1.45483870967742,1.4258064516129,1.40967741935484,1.4,1.38387096774194,1.3741935483871,1.3741935483871,1.36129032258065,1.36451612903226,1.37096774193548,1.35483870967742,1.36129032258065,1.36451612903226,1.36129032258065,1.36774193548387,1.36774193548387,1.37096774193548,1.36774193548387,1.36774193548387,1.36774193548387,1.36774193548387,1.36774193548387,1.37096774193548,1.35806451612903,1.36774193548387,1.36774193548387,1.35806451612903,1.36451612903226,1.36129032258065,1.3741935483871,1.37741935483871,1.37096774193548,1.37096774193548,1.37096774193548,1.37096774193548,1.36451612903226,1.3741935483871,1.36774193548387,1.36451612903226,1.37741935483871,1.36774193548387,1.36774193548387,1.37096774193548,1.36451612903226,1.37741935483871,1.37096774193548,1.3741935483871,1.37096774193548,1.36774193548387,1.36774193548387,1.36129032258065,1.3741935483871,1.38064516129032,1.37096774193548,1.36451612903226,1.37741935483871,1.37741935483871,1.38387096774194,1.37096774193548,1.37741935483871,1.37096774193548,1.38064516129032,1.38064516129032,1.37741935483871,1.37741935483871,1.3741935483871,1.37741935483871,1.37741935483871,1.3741935483871,1.38387096774194,1.3741935483871,1.37741935483871,1.37096774193548,1.36774193548387,1.3741935483871,1.37741935483871,1.38064516129032,1.39032258064516,1.38064516129032,1.39677419354839,1.40322580645161,1.42903225806452,1.41612903225806,1.41290322580645,1.40645161290323,1.40645161290323,1.3741935483871,1.36774193548387,1.35806451612903,1.36129032258065,1.35806451612903,1.35806451612903,1.35806451612903,1.35483870967742,1.35483870967742,1.36129032258065,1.36774193548387,1.36129032258065,1.35806451612903,1.34838709677419,1.36774193548387,1.53225806451613,1.91935483870968,2.14838709677419,2.15806451612903,1.68064516129032,1.35161290322581,1.28387096774194,1.30967741935484,1.35806451612903,1.36774193548387,1.36774193548387,1.36451612903226,1.35806451612903,1.36129032258065,1.36129032258065,1.36451612903226,1.36451612903226,1.36774193548387,1.36451612903226,1.37096774193548,1.3741935483871,1.36774193548387,1.36774193548387,1.37741935483871,1.3741935483871,1.38387096774194,1.38709677419355,1.38387096774194,1.39677419354839,1.40645161290323,1.41612903225806,1.4258064516129,1.43548387096774,1.45161290322581,1.46774193548387,1.48064516129032,1.50322580645161,1.51935483870968,1.54193548387097,1.55161290322581,1.5741935483871,1.5741935483871,1.56774193548387,1.55483870967742,1.53225806451613,1.50322580645161,1.48064516129032,1.44516129032258,1.4258064516129,1.41290322580645,1.4,1.39032258064516,1.37741935483871,1.38064516129032,1.3741935483871,1.37096774193548,1.3741935483871,1.37096774193548,1.3741935483871,1.37741935483871,1.3741935483871,1.37741935483871,1.3741935483871,1.3741935483871,1.3741935483871,1.3741935483871,1.3741935483871,1.36774193548387,1.36774193548387,1.36774193548387,1.36451612903226,1.36774193548387,1.36129032258065,1.36451612903226,1.35806451612903,1.36129032258065,1.36129032258065,1.35806451612903,1.35806451612903,1.36129032258065,1.35483870967742,1.36129032258065,1.35483870967742,1.35806451612903,1.35483870967742,1.35483870967742,1.35483870967742,1.35161290322581,1.35483870967742,1.35483870967742,1.36129032258065,1.36451612903226,1.35161290322581,1.35806451612903,1.35483870967742,1.35806451612903,1.35806451612903,1.34838709677419,1.34838709677419,1.35806451612903,1.36129032258065,1.35161290322581,1.34516129032258,1.35483870967742,1.35806451612903,1.35483870967742,1.36451612903226,1.35161290322581,1.35806451612903,1.35161290322581,1.35483870967742,1.36451612903226,1.35483870967742,1.35806451612903,1.36129032258065,1.35483870967742,1.36129032258065,1.35806451612903,1.35483870967742,1.36774193548387,1.37741935483871,1.37741935483871,1.38064516129032,1.39032258064516,1.40322580645161,1.41290322580645,1.41612903225806,1.40967741935484,1.4,1.39354838709677,1.35483870967742,1.34838709677419,1.34193548387097,1.34838709677419,1.34193548387097,1.34193548387097,1.35161290322581,1.33870967741935,1.34516129032258,1.34516129032258,1.34516129032258,1.35483870967742,1.34838709677419,1.33548387096774,1.36774193548387,1.5741935483871,1.96451612903226,2.1741935483871,2.14193548387097,1.6258064516129,1.37096774193548,1.3,1.31290322580645,1.36774193548387,1.35161290322581,1.35806451612903,1.36129032258065,1.35161290322581,1.34838709677419,1.34838709677419,1.35161290322581,1.35806451612903,1.35483870967742,1.35806451612903,1.36129032258065,1.35483870967742,1.37096774193548,1.35806451612903,1.36774193548387,1.37096774193548,1.37741935483871,1.38709677419355,1.38709677419355,1.39032258064516,1.4,1.40967741935484,1.42903225806452,1.43225806451613,1.45483870967742,1.46774193548387,1.4741935483871,1.50645161290323,1.52258064516129,1.53870967741935,1.55483870967742,1.56774193548387,1.57096774193548,1.56774193548387,1.55161290322581,1.5258064516129,1.50967741935484,1.48064516129032,1.45161290322581,1.42258064516129,1.41935483870968,1.40645161290323,1.4,1.39354838709677,1.38709677419355,1.39032258064516,1.38709677419355,1.39032258064516,1.38064516129032,1.38064516129032,1.38387096774194,1.38064516129032,1.39032258064516,1.38064516129032,1.37741935483871,1.38064516129032,1.3741935483871,1.37741935483871,1.38387096774194,1.3741935483871,1.3741935483871,1.37096774193548,1.3741935483871,1.3741935483871,1.37741935483871,1.3741935483871,1.37096774193548,1.36774193548387,1.37096774193548,1.36774193548387,1.36451612903226,1.36129032258065,1.36774193548387,1.36451612903226,1.36129032258065,1.36774193548387,1.37096774193548,1.37096774193548,1.36451612903226,1.36451612903226,1.36451612903226,1.36129032258065,1.3741935483871,1.36129032258065,1.36774193548387,1.36451612903226,1.36451612903226,1.36774193548387,1.35806451612903,1.36451612903226,1.36451612903226,1.35806451612903,1.36451612903226,1.36451612903226,1.36451612903226,1.35806451612903,1.36774193548387,1.36129032258065,1.35806451612903,1.35483870967742,1.36129032258065,1.36129032258065,1.36129032258065,1.35161290322581,1.35161290322581,1.35483870967742,1.35483870967742,1.35483870967742,1.36129032258065,1.36451612903226,1.36774193548387,1.35483870967742,1.35483870967742,1.35483870967742,1.36451612903226,1.36774193548387,1.3741935483871,1.38387096774194,1.38064516129032,1.38709677419355,1.39032258064516,1.40967741935484,1.40967741935484,1.43548387096774,1.40645161290323,1.40645161290323,1.39032258064516,1.36129032258065,1.34838709677419,1.34516129032258,1.35483870967742,1.33870967741935,1.35161290322581,1.34516129032258,1.34838709677419,1.34838709677419,1.33225806451613,1.35161290322581,1.34193548387097,1.34838709677419,1.33225806451613,1.38064516129032,1.69677419354839,2.07096774193548,2.25161290322581,2.01935483870968,1.44516129032258,1.30645161290323,1.2741935483871,1.3,1.36451612903226,1.33548387096774,1.35806451612903,1.34838709677419,1.35161290322581,1.36129032258065,1.34516129032258,1.35806451612903,1.34838709677419,1.35161290322581,1.35483870967742,1.36451612903226,1.36451612903226,1.36774193548387,1.36774193548387,1.37741935483871,1.36451612903226,1.37741935483871,1.37741935483871,1.37741935483871,1.4,1.4,1.41290322580645,1.42258064516129,1.43225806451613,1.45806451612903,1.4741935483871,1.49032258064516,1.50322580645161,1.52903225806452,1.55161290322581,1.56129032258065,1.57741935483871,1.58064516129032,1.57741935483871,1.55806451612903,1.52903225806452,1.50322580645161,1.47096774193548,1.46451612903226,1.42903225806452,1.41935483870968,1.40645161290323,1.39032258064516,1.38387096774194,1.38064516129032,1.36774193548387,1.38709677419355,1.3741935483871,1.37741935483871,1.37096774193548,1.38387096774194,1.38387096774194,1.38064516129032,1.38064516129032,1.37741935483871,1.38064516129032,1.38387096774194,1.38064516129032,1.39032258064516,1.37096774193548,1.38064516129032,1.37741935483871,1.38064516129032,1.37741935483871,1.38064516129032,1.37741935483871,1.3741935483871,1.3741935483871,1.36774193548387,1.37096774193548,1.36129032258065,1.3741935483871,1.37096774193548,1.36451612903226,1.3741935483871,1.35806451612903,1.37096774193548,1.36129032258065,1.36129032258065,1.35806451612903,1.36129032258065,1.35806451612903,1.36451612903226,1.36774193548387,1.36451612903226,1.36129032258065,1.36774193548387,1.36774193548387,1.36129032258065,1.36451612903226,1.36129032258065,1.36451612903226,1.36774193548387,1.36129032258065,1.35483870967742,1.35806451612903,1.37096774193548,1.37096774193548,1.36129032258065,1.36129032258065,1.35161290322581,1.36129032258065,1.36451612903226,1.36129032258065,1.35806451612903,1.35806451612903,1.36129032258065,1.35806451612903,1.35806451612903,1.36451612903226,1.36774193548387,1.37741935483871,1.38064516129032,1.38387096774194,1.39032258064516,1.40322580645161,1.40967741935484,1.41290322580645,1.40645161290323,1.39354838709677,1.37741935483871,1.35483870967742,1.34516129032258,1.34516129032258,1.34193548387097,1.33870967741935,1.34516129032258,1.34193548387097,1.34193548387097,1.34193548387097,1.33548387096774,1.34838709677419,1.34193548387097,1.34193548387097,1.33548387096774,1.3741935483871,1.6741935483871,2.02903225806452,2.20967741935484,2.00645161290323,1.45806451612903,1.31935483870968,1.27741935483871,1.31290322580645,1.36774193548387,1.34193548387097,1.34193548387097,1.34838709677419,1.34838709677419,1.34838709677419,1.34516129032258,1.35161290322581,1.35161290322581,1.35806451612903,1.36129032258065,1.35806451612903,1.36129032258065,1.36451612903226,1.36129032258065,1.3741935483871,1.36774193548387,1.38064516129032,1.38064516129032,1.37741935483871,1.39354838709677,1.38709677419355,1.41290322580645,1.41290322580645,1.42903225806452,1.45161290322581,1.45161290322581,1.48709677419355,1.49354838709677,1.51612903225806,1.53548387096774,1.54516129032258,1.56129032258065,1.56451612903226,1.55483870967742,1.54516129032258,1.51612903225806,1.49354838709677,1.45806451612903,1.43548387096774,1.4258064516129,1.40645161290323,1.4,1.38709677419355,1.39032258064516,1.38064516129032,1.37741935483871,1.37741935483871,1.38064516129032,1.38064516129032,1.37741935483871,1.37741935483871,1.37741935483871,1.38064516129032,1.37096774193548,1.37741935483871,1.3741935483871,1.38387096774194,1.38064516129032,1.37741935483871,1.38387096774194,1.3741935483871,1.37741935483871,1.37741935483871,1.37741935483871,1.3741935483871,1.3741935483871,1.38064516129032,1.36774193548387,1.36774193548387,1.37096774193548,1.36774193548387,1.36129032258065,1.36774193548387,1.36451612903226,1.36451612903226,1.36451612903226,1.36774193548387,1.36774193548387,1.36774193548387,1.36774193548387,1.36129032258065,1.36129032258065,1.36451612903226,1.37096774193548,1.37096774193548,1.36451612903226,1.36129032258065,1.36774193548387,1.37096774193548,1.36774193548387,1.36774193548387,1.36451612903226,1.36129032258065,1.36774193548387,1.36451612903226,1.35806451612903,1.36129032258065,1.36774193548387,1.36774193548387,1.3741935483871,1.36774193548387,1.3741935483871,1.37096774193548,1.36774193548387,1.3741935483871,1.35806451612903,1.37096774193548,1.36774193548387,1.36774193548387,1.37096774193548,1.36774193548387,1.37741935483871,1.38387096774194,1.38387096774194,1.39032258064516,1.39677419354839,1.4258064516129,1.41612903225806,1.42903225806452,1.41612903225806,1.4,1.37741935483871,1.35806451612903,1.35806451612903,1.35483870967742,1.34838709677419,1.34838709677419,1.35161290322581,1.34838709677419,1.34516129032258,1.33870967741935,1.34838709677419,1.34516129032258,1.35483870967742,1.34838709677419,1.3258064516129,1.43548387096774,1.81612903225806,2.10645161290323,2.24838709677419,1.90322580645161,1.42903225806452,1.33225806451613,1.30645161290323,1.33548387096774,1.37096774193548,1.34838709677419,1.35161290322581,1.34838709677419,1.35161290322581,1.34516129032258,1.35161290322581,1.35483870967742,1.35806451612903,1.36129032258065,1.35483870967742,1.35806451612903,1.36129032258065,1.36451612903226,1.36774193548387,1.36129032258065,1.36451612903226,1.37096774193548,1.3741935483871,1.37741935483871,1.38709677419355,1.39677419354839,1.40322580645161,1.41612903225806,1.43225806451613,1.44838709677419,1.46451612903226,1.48387096774194,1.49354838709677,1.52258064516129,1.53225806451613,1.54838709677419,1.55161290322581,1.56451612903226,1.55806451612903,1.52903225806452,1.51290322580645,1.48709677419355,1.46451612903226,1.43225806451613,1.41935483870968,1.40645161290323,1.39354838709677,1.39032258064516,1.38709677419355,1.38387096774194,1.37741935483871,1.3741935483871,1.3741935483871,1.37096774193548,1.3741935483871,1.3741935483871,1.37741935483871,1.37741935483871,1.37741935483871,1.36774193548387,1.36774193548387,1.3741935483871,1.37741935483871,1.37741935483871,1.36451612903226,1.38064516129032,1.37096774193548,1.36451612903226,1.3741935483871,1.36451612903226,1.36129032258065,1.37096774193548,1.36774193548387,1.36451612903226,1.37096774193548,1.36451612903226,1.36129032258065,1.36451612903226,1.36774193548387,1.36129032258065,1.35161290322581,1.35161290322581,1.36129032258065,1.36774193548387,1.36129032258065,1.35483870967742,1.36451612903226,1.36129032258065,1.35483870967742,1.35161290322581,1.36129032258065,1.36129032258065,1.36129032258065,1.36451612903226,1.36129032258065,1.35806451612903,1.35483870967742,1.35161290322581,1.36129032258065,1.35161290322581,1.35483870967742,1.35161290322581,1.35806451612903,1.35806451612903,1.34838709677419,1.35483870967742,1.36129032258065,1.36451612903226,1.36129032258065,1.35483870967742,1.35483870967742,1.35483870967742,1.36774193548387,1.36451612903226,1.36774193548387,1.36774193548387,1.37096774193548,1.37096774193548,1.38709677419355,1.38709677419355,1.41935483870968,1.41290322580645,1.41935483870968,1.40967741935484,1.39354838709677,1.36451612903226,1.34193548387097,1.34516129032258,1.33870967741935,1.33225806451613,1.34516129032258,1.34838709677419,1.34838709677419,1.34193548387097,1.34193548387097,1.33548387096774,1.34516129032258,1.35161290322581,1.34516129032258,1.31290322580645,1.45806451612903,1.84193548387097,2.15161290322581,2.22903225806452,1.80645161290323,1.34838709677419,1.28064516129032,1.29354838709677,1.33548387096774,1.34516129032258,1.34516129032258,1.35161290322581,1.35483870967742,1.35161290322581,1.34838709677419,1.36774193548387,1.36129032258065,1.36451612903226,1.35161290322581,1.36451612903226,1.37741935483871,1.36774193548387,1.38387096774194,1.38709677419355,1.38709677419355,1.38709677419355,1.38387096774194,1.39032258064516,1.4,1.4,1.41935483870968,1.42258064516129,1.44193548387097,1.46129032258065,1.46451612903226,1.49032258064516,1.51290322580645,1.5258064516129,1.53870967741935,1.56129032258065,1.57096774193548,1.5741935483871,1.58709677419355,1.58064516129032,1.54838709677419,1.52903225806452,1.49032258064516,1.47096774193548,1.43870967741935,1.42258064516129,1.40967741935484,1.39354838709677,1.38387096774194,1.38709677419355,1.37741935483871,1.38709677419355,1.37741935483871,1.38387096774194,1.39032258064516,1.3741935483871,1.38709677419355,1.38387096774194,1.38387096774194,1.38709677419355,1.38709677419355,1.38064516129032,1.38064516129032,1.38387096774194,1.38387096774194,1.3741935483871,1.38064516129032,1.38064516129032,1.38387096774194,1.38064516129032,1.3741935483871,1.37741935483871,1.3741935483871,1.36774193548387,1.37741935483871,1.36129032258065,1.37096774193548,1.36774193548387,1.3741935483871,1.3741935483871,1.36451612903226,1.36451612903226,1.37096774193548,1.36129032258065,1.36774193548387,1.35483870967742,1.36129032258065,1.35806451612903,1.36129032258065,1.36451612903226,1.35161290322581,1.36129032258065,1.35806451612903,1.35483870967742,1.36129032258065,1.35806451612903,1.35806451612903,1.35483870967742,1.35806451612903,1.36129032258065,1.34838709677419,1.35161290322581,1.35483870967742,1.35483870967742,1.36129032258065,1.35161290322581,1.35161290322581,1.35161290322581,1.34838709677419,1.35161290322581,1.35483870967742,1.35483870967742,1.34516129032258,1.34838709677419,1.36129032258065,1.35483870967742,1.36129032258065,1.35806451612903,1.35806451612903,1.3741935483871,1.38064516129032,1.40322580645161,1.4,1.39677419354839,1.39354838709677,1.37096774193548,1.33870967741935,1.32903225806452,1.33225806451613,1.33548387096774,1.32903225806452,1.33225806451613,1.32903225806452,1.32903225806452,1.33548387096774,1.32903225806452,1.33870967741935,1.3258064516129,1.34193548387097,1.32903225806452,1.35806451612903,1.58709677419355,1.95161290322581,2.15806451612903,2.08709677419355,1.53870967741935,1.33225806451613,1.27096774193548,1.3,1.36451612903226,1.33225806451613,1.33870967741935,1.33548387096774,1.34516129032258,1.35161290322581,1.35483870967742,1.34838709677419,1.34838709677419,1.35161290322581,1.35483870967742,1.35806451612903,1.35806451612903,1.36129032258065,1.36129032258065,1.37096774193548,1.3741935483871,1.37741935483871,1.38064516129032,1.38709677419355,1.39032258064516,1.39677419354839,1.40967741935484,1.42258064516129,1.43548387096774,1.45161290322581,1.47096774193548,1.48387096774194,1.50645161290323,1.51935483870968,1.54193548387097,1.55806451612903,1.56774193548387,1.56774193548387,1.56774193548387,1.56451612903226,1.53548387096774,1.51290322580645,1.48709677419355,1.46451612903226,1.43870967741935,1.41935483870968,1.41612903225806,1.40645161290323,1.4,1.4,1.38387096774194,1.39677419354839,1.38709677419355,1.39032258064516,1.4,1.39677419354839,1.39354838709677,1.4,1.39677419354839,1.4,1.39354838709677,1.39677419354839,1.39032258064516,1.39354838709677,1.39677419354839,1.39032258064516,1.39354838709677,1.39032258064516,1.38387096774194,1.39354838709677,1.39354838709677,1.38709677419355,1.38709677419355,1.38709677419355,1.38709677419355,1.38064516129032,1.37741935483871,1.3741935483871,1.37741935483871,1.38064516129032,1.38064516129032,1.37741935483871,1.38064516129032,1.37741935483871,1.38387096774194,1.38064516129032,1.38064516129032,1.38064516129032,1.38064516129032,1.37741935483871,1.38387096774194,1.37741935483871,1.37741935483871,1.37741935483871,1.38387096774194,1.37741935483871,1.37741935483871,1.3741935483871,1.37096774193548,1.37741935483871,1.3741935483871,1.3741935483871,1.3741935483871,1.37096774193548,1.3741935483871,1.37096774193548,1.37741935483871,1.36451612903226,1.36774193548387,1.36774193548387,1.36774193548387,1.37096774193548,1.35806451612903,1.36774193548387,1.36774193548387,1.36774193548387,1.36774193548387,1.36451612903226,1.36774193548387,1.38064516129032,1.36774193548387,1.38387096774194,1.39032258064516,1.41290322580645,1.40967741935484,1.41612903225806,1.39677419354839,1.39032258064516,1.35483870967742,1.34516129032258,1.34193548387097,1.34193548387097,1.34193548387097,1.33548387096774,1.33870967741935,1.33225806451613,1.33225806451613,1.32903225806452,1.33870967741935,1.33870967741935,1.33870967741935,1.32258064516129,1.32258064516129,1.48387096774194,1.88709677419355,2.13225806451613,2.1741935483871,1.73548387096774,1.36129032258065,1.28387096774194,1.3,1.32903225806452,1.33870967741935,1.32258064516129,1.33225806451613,1.32903225806452,1.32258064516129,1.32903225806452,1.30967741935484,1.33225806451613,1.3258064516129,1.32903225806452,1.33548387096774,1.3258064516129,1.34516129032258,1.33870967741935,1.33548387096774,1.34193548387097,1.34516129032258,1.35161290322581,1.35483870967742,1.37096774193548,1.36129032258065,1.37741935483871,1.39354838709677,1.39677419354839,1.41290322580645,1.4258064516129,1.44193548387097,1.46451612903226,1.48064516129032,1.5,1.51290322580645,1.52258064516129,1.53870967741935,1.53548387096774,1.52903225806452,1.50967741935484,1.48064516129032,1.46129032258065,1.44193548387097,1.41290322580645,1.4,1.38709677419355,1.3741935483871,1.37096774193548,1.3741935483871,1.36774193548387,1.37096774193548,1.36774193548387,1.37096774193548,1.37096774193548,1.37096774193548,1.36774193548387,1.37096774193548,1.38064516129032,1.37096774193548,1.38064516129032,1.3741935483871,1.38064516129032,1.38387096774194,1.39032258064516,1.39032258064516,1.38709677419355,1.4,1.39354838709677,1.39354838709677,1.40322580645161,1.40322580645161
1.32258064516129,1.3258064516129,1.3258064516129,1.31935483870968,1.34193548387097,1.33548387096774,1.34193548387097,1.35161290322581,1.37741935483871,1.3741935483871,1.38709677419355,1.3741935483871,1.36129032258065,1.34193548387097,1.31935483870968,1.31290322580645,1.31935483870968,1.3258064516129,1.32258064516129,1.31935483870968,1.31612903225806,1.32258064516129,1.32258064516129,1.32258064516129,1.3258064516129,1.31612903225806,1.3258064516129,1.30645161290323,1.39354838709677,1.78709677419355,2.09354838709677,2.23870967741935,1.84193548387097,1.35483870967742,1.26774193548387,1.2741935483871,1.3,1.33225806451613,1.3258064516129,1.33225806451613,1.33548387096774,1.32903225806452,1.33548387096774,1.3258064516129,1.33548387096774,1.33225806451613,1.34516129032258,1.34838709677419,1.35806451612903,1.34838709677419,1.35806451612903,1.36451612903226,1.35806451612903,1.36774193548387,1.37096774193548,1.38064516129032,1.39677419354839,1.38709677419355,1.39032258064516,1.40645161290323,1.43225806451613,1.43870967741935,1.44516129032258,1.47096774193548,1.50322580645161,1.52258064516129,1.54193548387097,1.54838709677419,1.56451612903226,1.57741935483871,1.5741935483871,1.56129032258065,1.53548387096774,1.50645161290323,1.4741935483871,1.44838709677419,1.42903225806452,1.40322580645161,1.39677419354839,1.39032258064516,1.39032258064516,1.38387096774194,1.37096774193548,1.3741935483871,1.3741935483871,1.38064516129032,1.38064516129032,1.3741935483871,1.37741935483871,1.38064516129032,1.37741935483871,1.38387096774194,1.38064516129032,1.38387096774194,1.38387096774194,1.38709677419355,1.38709677419355,1.3741935483871,1.38064516129032,1.37741935483871,1.3741935483871,1.3741935483871,1.36774193548387,1.36774193548387,1.3741935483871,1.37096774193548,1.36774193548387,1.36451612903226,1.37096774193548,1.36451612903226,1.37096774193548,1.36774193548387,1.36774193548387,1.37096774193548,1.36774193548387,1.35806451612903,1.36451612903226,1.36129032258065,1.35806451612903,1.36451612903226,1.36129032258065,1.36451612903226,1.35483870967742,1.36129032258065,1.36129032258065,1.36129032258065,1.35806451612903,1.36774193548387,1.36129032258065,1.36129032258065,1.36451612903226,1.36774193548387,1.35161290322581,1.36129032258065,1.36451612903226,1.36451612903226,1.37096774193548,1.36451612903226,1.35161290322581,1.36451612903226,1.35806451612903,1.36129032258065,1.35483870967742,1.35806451612903,1.36451612903226,1.3741935483871,1.3741935483871,1.36451612903226,1.38064516129032,1.38387096774194,1.4,1.41612903225806,1.41290322580645,1.40322580645161,1.40322580645161,1.38709677419355,1.35806451612903,1.34193548387097,1.35161290322581,1.35161290322581,1.34516129032258,1.35161290322581,1.34516129032258,1.34193548387097,1.34838709677419,1.35161290322581,1.35161290322581,1.35483870967742,1.35161290322581,1.33548387096774,1.39354838709677,1.71290322580645,2.04193548387097,2.20322580645161,1.96451612903226,1.44193548387097,1.32258064516129,1.29032258064516,1.31290322580645,1.3741935483871,1.35806451612903,1.35806451612903,1.35161290322581,1.35806451612903,1.35483870967742,1.34838709677419,1.36129032258065,1.35161290322581,1.35483870967742,1.35806451612903,1.35806451612903,1.35806451612903,1.36451612903226,1.35806451612903,1.37741935483871,1.37741935483871,1.38064516129032,1.38387096774194,1.39677419354839,1.39677419354839,1.40967741935484,1.41935483870968,1.41290322580645,1.43870967741935,1.45483870967742,1.47096774193548,1.49354838709677,1.51290322580645,1.53225806451613,1.54838709677419,1.56451612903226,1.57741935483871,1.5741935483871,1.5741935483871,1.54838709677419,1.5258064516129,1.49677419354839,1.46451612903226,1.44193548387097,1.42258064516129,1.40967741935484,1.40967741935484,1.39032258064516,1.39354838709677,1.39032258064516,1.38709677419355,1.39354838709677,1.38387096774194,1.38387096774194,1.38387096774194,1.38064516129032,1.38709677419355,1.37741935483871,1.38064516129032,1.37096774193548,1.37741935483871,1.37741935483871,1.37096774193548,1.38064516129032,1.3741935483871,1.3741935483871,1.3741935483871,1.36774193548387,1.3741935483871,1.3741935483871,1.3741935483871,1.3741935483871,1.35806451612903,1.36451612903226,1.36451612903226,1.36451612903226,1.36774193548387,1.36129032258065,1.35806451612903,1.36129032258065,1.36129032258065,1.36774193548387,1.35806451612903,1.36451612903226,1.35806451612903,1.36129032258065,1.35806451612903,1.35161290322581,1.35483870967742,1.36129032258065,1.35806451612903,1.35806451612903,1.34838709677419,1.36129032258065,1.35483870967742,1.35483870967742,1.36451612903226,1.35161290322581,1.35806451612903,1.35483870967742,1.35483870967742,1.36451612903226,1.35483870967742,1.35806451612903,1.36129032258065,1.35806451612903,1.36129032258065,1.36774193548387,1.35806451612903,1.35806451612903,1.34838709677419,1.35483870967742,1.36129032258065,1.35161290322581,1.36774193548387,1.3741935483871,1.38064516129032,1.37741935483871,1.38387096774194,1.39032258064516,1.40967741935484,1.40967741935484,1.41612903225806,1.40322580645161,1.39677419354839,1.38064516129032,1.35483870967742,1.34193548387097,1.34193548387097,1.35161290322581,1.34838709677419,1.34516129032258,1.33870967741935,1.34193548387097,1.34516129032258,1.34193548387097,1.34838709677419,1.34516129032258,1.34516129032258,1.3258064516129,1.42258064516129,1.80967741935484,2.1,2.24838709677419,1.90322580645161,1.41612903225806,1.3258064516129,1.30967741935484,1.32903225806452,1.3741935483871,1.34838709677419,1.35161290322581,1.35161290322581,1.35161290322581,1.35806451612903,1.34516129032258,1.35161290322581,1.35806451612903,1.35483870967742,1.35161290322581,1.36129032258065,1.36129032258065,1.36451612903226,1.36451612903226,1.36774193548387,1.38064516129032,1.38064516129032,1.3741935483871,1.3741935483871,1.38709677419355,1.39677419354839,1.41290322580645,1.42258064516129,1.43548387096774,1.44838709677419,1.47096774193548,1.49354838709677,1.51612903225806,1.53548387096774,1.53870967741935,1.55483870967742,1.56451612903226,1.56774193548387,1.55161290322581,1.53548387096774,1.50967741935484,1.49354838709677,1.4741935483871,1.42903225806452,1.41935483870968,1.40645161290323,1.40322580645161,1.38387096774194,1.38387096774194,1.37741935483871,1.37741935483871,1.38709677419355,1.3741935483871,1.38387096774194,1.37741935483871,1.38064516129032,1.38064516129032,1.38064516129032,1.3741935483871,1.3741935483871,1.36774193548387,1.3741935483871,1.36774193548387,1.37741935483871,1.36129032258065,1.37096774193548,1.3741935483871,1.36774193548387,1.37096774193548,1.36451612903226,1.36774193548387,1.36774193548387,1.3741935483871,1.3741935483871,1.36451612903226,1.36774193548387,1.37096774193548,1.36129032258065,1.36774193548387,1.36451612903226,1.36129032258065,1.36451612903226,1.35483870967742,1.35483870967742,1.35483870967742,1.35161290322581,1.36129032258065,1.36129032258065,1.35806451612903,1.35806451612903,1.36129032258065,1.36129032258065,1.36129032258065,1.35483870967742,1.35483870967742,1.34838709677419,1.36129032258065,1.35806451612903,1.35483870967742,1.35161290322581,1.35483870967742,1.35806451612903,1.35806451612903,1.35806451612903,1.36129032258065,1.35161290322581,1.36129032258065,1.35806451612903,1.34838709677419,1.35806451612903,1.35483870967742,1.36774193548387,1.36451612903226,1.37096774193548,1.38064516129032,1.37741935483871,1.38709677419355,1.38709677419355,1.40645161290323,1.41935483870968,1.41612903225806,1.40645161290323,1.39354838709677,1.38709677419355,1.35161290322581,1.34838709677419,1.35161290322581,1.35161290322581,1.34516129032258,1.35161290322581,1.34193548387097,1.35483870967742,1.34516129032258,1.34838709677419,1.35161290322581,1.35161290322581,1.34516129032258,1.32903225806452,1.40645161290323,1.73225806451613,2.07096774193548,2.2258064516129,1.91612903225806,1.4,1.28709677419355,1.28387096774194,1.30645161290323,1.36129032258065,1.35161290322581,1.35483870967742,1.35483870967742,1.36129032258065,1.36129032258065,1.35806451612903,1.36129032258065,1.36129032258065,1.3741935483871,1.3741935483871,1.36774193548387,1.3741935483871,1.36774193548387,1.38709677419355,1.38387096774194,1.38387096774194,1.39032258064516,1.38709677419355,1.40322580645161,1.40322580645161,1.41290322580645,1.41290322580645,1.42903225806452,1.44838709677419,1.46451612903226,1.48064516129032,1.5,1.51935483870968,1.55161290322581,1.55161290322581,1.58064516129032,1.58387096774194,1.58387096774194,1.57096774193548,1.54838709677419,1.51935483870968,1.49032258064516,1.45806451612903,1.43548387096774,1.40967741935484,1.4,1.39032258064516,1.38064516129032,1.38064516129032,1.37096774193548,1.36774193548387,1.3741935483871,1.3741935483871,1.38387096774194,1.37096774193548,1.3741935483871,1.3741935483871,1.38387096774194,1.37096774193548,1.3741935483871,1.37741935483871,1.3741935483871,1.3741935483871,1.39032258064516,1.37741935483871,1.3741935483871,1.36774193548387,1.36774193548387,1.37096774193548,1.36451612903226,1.36774193548387,1.36774193548387,1.36774193548387,1.36774193548387,1.36129032258065,1.36129032258065,1.35806451612903,1.35483870967742,1.35806451612903,1.36129032258065,1.36129032258065,1.36129032258065,1.36451612903226,1.36129032258065,1.35806451612903,1.36129032258065,1.35806451612903,1.35806451612903,1.35161290322581,1.36129032258065,1.36129032258065,1.36129032258065,1.36129032258065,1.36451612903226,1.35806451612903,1.36129032258065,1.35483870967742,1.35806451612903,1.36129032258065,1.36129032258065,1.36451612903226,1.36774193548387,1.36129032258065,1.37096774193548,1.36774193548387,1.36129032258065,1.36451612903226,1.36451612903226,1.36129032258065,1.36129032258065,1.35806451612903,1.35483870967742,1.35483870967742,1.36129032258065,1.36129032258065,1.37096774193548,1.36774193548387,1.37096774193548,1.38387096774194,1.39032258064516,1.41612903225806,1.40322580645161,1.41935483870968,1.40645161290323,1.40322580645161,1.38064516129032,1.34838709677419,1.34516129032258,1.35483870967742,1.35161290322581,1.34838709677419,1.34193548387097,1.33870967741935,1.34516129032258,1.34193548387097,1.33870967741935,1.33548387096774,1.34838709677419,1.35483870967742,1.33548387096774,1.41935483870968,1.79032258064516,2.08064516129032,2.22258064516129,1.9,1.41612903225806,1.32258064516129,1.3,1.33225806451613,1.3741935483871,1.34516129032258,1.35161290322581,1.34193548387097,1.35483870967742,1.34838709677419,1.35161290322581,1.34516129032258,1.35161290322581,1.34838709677419,1.35483870967742,1.35806451612903,1.36129032258065,1.36129032258065,1.36451612903226,1.3741935483871,1.3741935483871,1.37741935483871,1.37096774193548,1.39677419354839,1.4,1.40322580645161,1.41612903225806,1.4258064516129,1.44193548387097,1.45806451612903,1.47741935483871,1.49032258064516,1.49677419354839,1.53548387096774,1.54838709677419,1.55483870967742,1.56129032258065,1.55806451612903,1.55806451612903,1.54193548387097,1.51612903225806,1.48387096774194,1.45483870967742,1.43225806451613,1.4258064516129,1.4,1.40967741935484,1.38709677419355,1.39354838709677,1.38387096774194,1.39032258064516,1.38064516129032,1.37096774193548,1.38387096774194,1.38709677419355,1.38387096774194,1.38387096774194,1.37741935483871,1.39032258064516,1.38709677419355,1.3741935483871,1.38387096774194,1.38064516129032,1.38387096774194,1.38064516129032,1.3741935483871,1.3741935483871,1.37096774193548,1.37096774193548,1.37096774193548,1.37096774193548,1.37096774193548,1.3741935483871,1.3741935483871,1.36774193548387,1.36774193548387,1.36774193548387,1.3741935483871,1.36451612903226,1.36774193548387,1.36451612903226,1.36774193548387,1.36451612903226,1.36451612903226,1.37096774193548,1.36129032258065,1.36129032258065,1.35806451612903,1.36774193548387,1.36774193548387,1.36774193548387,1.36451612903226,1.36451612903226,1.36774193548387,1.35161290322581,1.36129032258065,1.35806451612903,1.36129032258065,1.35806451612903,1.36129032258065,1.36451612903226,1.35806451612903,1.35806451612903,1.36451612903226,1.37096774193548,1.36129032258065,1.36129032258065,1.35483870967742,1.36129032258065,1.36129032258065,1.36129032258065,1.35806451612903,1.34516129032258,1.35806451612903,1.36129032258065,1.36774193548387,1.37096774193548,1.36774193548387,1.38709677419355,1.39677419354839,1.42258064516129,1.40645161290323,1.40967741935484,1.4,1.39354838709677,1.36451612903226,1.35161290322581,1.34193548387097,1.35483870967742,1.34838709677419,1.34193548387097,1.34193548387097,1.34193548387097,1.33870967741935,1.33870967741935,1.34193548387097,1.35161290322581,1.34838709677419,1.35161290322581,1.33225806451613,1.46774193548387,1.88064516129032,2.16129032258065,2.22258064516129,1.78064516129032,1.35161290322581,1.28064516129032,1.3,1.32903225806452,1.35161290322581,1.35161290322581,1.33548387096774,1.35161290322581,1.34516129032258,1.34838709677419,1.34193548387097,1.34838709677419,1.33548387096774,1.35806451612903,1.34838709677419,1.34838709677419,1.35161290322581,1.36129032258065,1.35806451612903,1.36774193548387,1.3741935483871,1.37096774193548,1.37096774193548,1.38387096774194,1.39354838709677,1.40322580645161,1.41290322580645,1.42258064516129,1.44838709677419,1.45806451612903,1.46774193548387,1.48387096774194,1.51290322580645,1.53548387096774,1.53870967741935,1.55806451612903,1.55483870967742,1.55806451612903,1.55483870967742,1.53548387096774,1.50645161290323,1.48064516129032,1.45483870967742,1.43870967741935,1.4,1.4,1.39677419354839,1.38709677419355,1.39354838709677,1.39354838709677,1.38064516129032,1.38709677419355,1.38709677419355,1.39032258064516,1.38709677419355,1.39032258064516,1.39677419354839,1.37741935483871,1.38387096774194,1.38064516129032,1.38387096774194,1.37741935483871,1.3741935483871,1.37741935483871,1.37741935483871,1.37741935483871,1.3741935483871,1.37096774193548,1.37741935483871,1.37096774193548,1.36774193548387,1.35161290322581,1.37096774193548,1.3741935483871,1.37741935483871,1.37741935483871,1.37096774193548,1.36451612903226,1.3741935483871,1.37096774193548,1.3741935483871,1.36774193548387,1.35806451612903,1.36451612903226,1.37096774193548,1.36774193548387,1.3741935483871,1.3741935483871,1.3741935483871,1.36451612903226,1.36774193548387,1.36774193548387,1.36129032258065,1.37096774193548,1.36774193548387,1.3741935483871,1.36774193548387,1.36129032258065,1.3741935483871,1.36451612903226,1.37096774193548,1.36774193548387,1.36774193548387,1.36451612903226,1.3741935483871,1.36451612903226,1.35806451612903,1.36129032258065,1.36129032258065,1.36451612903226,1.36774193548387,1.36451612903226,1.36129032258065,1.36451612903226,1.36774193548387,1.35806451612903,1.37096774193548,1.37741935483871,1.39032258064516,1.41935483870968,1.40322580645161,1.41290322580645,1.4,1.4,1.36774193548387,1.35483870967742,1.35161290322581,1.34516129032258,1.35161290322581,1.35161290322581,1.35806451612903,1.34838709677419,1.34516129032258,1.35161290322581,1.35161290322581,1.34516129032258,1.35483870967742,1.34516129032258,1.33548387096774,1.46774193548387,1.85483870967742,2.1258064516129,2.16774193548387,1.73870967741935,1.3258064516129,1.26451612903226,1.28064516129032,1.32258064516129,1.35806451612903,1.35806451612903,1.35806451612903,1.35161290322581,1.35483870967742,1.35483870967742,1.36129032258065,1.36129032258065,1.36451612903226,1.36451612903226,1.37096774193548,1.3741935483871,1.3741935483871,1.36774193548387,1.3741935483871,1.37741935483871,1.38064516129032,1.38387096774194,1.39354838709677,1.39354838709677,1.41290322580645,1.41290322580645,1.42258064516129,1.43870967741935,1.44838709677419,1.47096774193548,1.48064516129032,1.50645161290323,1.51935483870968,1.52903225806452,1.55161290322581,1.56129032258065,1.57096774193548,1.56774193548387,1.55161290322581,1.53870967741935,1.51290322580645,1.48387096774194,1.45161290322581,1.42903225806452,1.41612903225806,1.4,1.38709677419355,1.38387096774194,1.37741935483871,1.38387096774194,1.38064516129032,1.38387096774194,1.37741935483871,1.3741935483871,1.38387096774194,1.38064516129032,1.37741935483871,1.37741935483871,1.3741935483871,1.38064516129032,1.37741935483871,1.3741935483871,1.37741935483871,1.37741935483871,1.37741935483871,1.36774193548387,1.36774193548387,1.36774193548387,1.36451612903226,1.37096774193548,1.36129032258065,1.36774193548387,1.36129032258065,1.36129032258065,1.36129032258065,1.35806451612903,1.36451612903226,1.36129032258065,1.35161290322581,1.36774193548387,1.36129032258065,1.35806451612903,1.36129032258065,1.35161290322581,1.36129032258065,1.36129032258065,1.35161290322581,1.35161290322581,1.35161290322581,1.35483870967742,1.35161290322581,1.35161290322581,1.35806451612903,1.34516129032258,1.35806451612903,1.35161290322581,1.35806451612903,1.35161290322581,1.35161290322581,1.36129032258065,1.35806451612903,1.35806451612903,1.35806451612903,1.34838709677419,1.35483870967742,1.35806451612903,1.35806451612903,1.35161290322581,1.35483870967742,1.35483870967742,1.35806451612903,1.35483870967742,1.35483870967742,1.35161290322581,1.35806451612903,1.36774193548387,1.37096774193548,1.3741935483871,1.37741935483871,1.38709677419355,1.38709677419355,1.40967741935484,1.41290322580645,1.41935483870968,1.41290322580645,1.39354838709677,1.38387096774194,1.34838709677419,1.34516129032258,1.34838709677419,1.34838709677419,1.33870967741935,1.34838709677419,1.33870967741935,1.34516129032258,1.34838709677419,1.34838709677419,1.34193548387097,1.33870967741935,1.34516129032258,1.33225806451613,1.37741935483871,1.68709677419355,2.03870967741935,2.21612903225806,2,1.46774193548387,1.33548387096774,1.29354838709677,1.3258064516129,1.38709677419355,1.34516129032258,1.35161290322581,1.34516129032258,1.34838709677419,1.35483870967742,1.34838709677419,1.34838709677419,1.35161290322581,1.35806451612903,1.35483870967742,1.35806451612903,1.36129032258065,1.36451612903226,1.3741935483871,1.37741935483871,1.37741935483871,1.37096774193548,1.38387096774194,1.39354838709677,1.39354838709677,1.40967741935484,1.40967741935484,1.42258064516129,1.44516129032258,1.45161290322581,1.4741935483871,1.49677419354839,1.50967741935484,1.53225806451613,1.54516129032258,1.56451612903226,1.56451612903226,1.57096774193548,1.56774193548387,1.55161290322581,1.5258064516129,1.50322580645161,1.47096774193548,1.45483870967742,1.43870967741935,1.41612903225806,1.40967741935484,1.40322580645161,1.4,1.39677419354839,1.39677419354839,1.39032258064516,1.39032258064516,1.39354838709677,1.39032258064516,1.39677419354839,1.38709677419355,1.39032258064516,1.39032258064516,1.39677419354839,1.39032258064516,1.38709677419355,1.38709677419355,1.39032258064516,1.3741935483871,1.37741935483871,1.38387096774194,1.37741935483871,1.38709677419355,1.38064516129032,1.37741935483871,1.3741935483871,1.3741935483871,1.38387096774194,1.37741935483871,1.38064516129032,1.37741935483871,1.37096774193548,1.3741935483871,1.38064516129032,1.37741935483871,1.38064516129032,1.37741935483871,1.37741935483871,1.3741935483871,1.37096774193548,1.3741935483871,1.3741935483871,1.3741935483871,1.3741935483871,1.3741935483871,1.37096774193548,1.37096774193548,1.36774193548387,1.36129032258065,1.37096774193548,1.36451612903226,1.37096774193548,1.37741935483871,1.36774193548387,1.38064516129032,1.37741935483871,1.37096774193548,1.37741935483871,1.36451612903226,1.36774193548387,1.37096774193548,1.36451612903226,1.37096774193548,1.36774193548387,1.37096774193548,1.37096774193548,1.35806451612903,1.3741935483871,1.35483870967742,1.35806451612903,1.35806451612903,1.36129032258065,1.37741935483871,1.3741935483871,1.38064516129032,1.38709677419355,1.38064516129032,1.40322580645161,1.41290322580645,1.42258064516129,1.41612903225806,1.39677419354839,1.38064516129032,1.35806451612903,1.34193548387097,1.33870967741935,1.33548387096774,1.33870967741935,1.34193548387097,1.34193548387097,1.34516129032258,1.32903225806452,1.34193548387097,1.33548387096774,1.33870967741935,1.33870967741935,1.3258064516129,1.34838709677419,1.57096774193548,1.98064516129032,2.20645161290323,2.1258064516129,1.56129032258065,1.30645161290323,1.25161290322581,1.29032258064516,1.33870967741935,1.33870967741935,1.32903225806452,1.33870967741935,1.34193548387097,1.33548387096774,1.33548387096774,1.34838709677419,1.33548387096774,1.33870967741935,1.34193548387097,1.34838709677419,1.34193548387097,1.34193548387097,1.35161290322581,1.34516129032258,1.34838709677419,1.35161290322581,1.36129032258065,1.36451612903226,1.37096774193548,1.37741935483871,1.38064516129032,1.39032258064516,1.40645161290323,1.41935483870968,1.43548387096774,1.46451612903226,1.48064516129032,1.5,1.51612903225806,1.53548387096774,1.5258064516129,1.53548387096774,1.54193548387097,1.51935483870968,1.50645161290323,1.4741935483871,1.44193548387097,1.41612903225806,1.39354838709677,1.38709677419355,1.36774193548387,1.35806451612903,1.35161290322581,1.34516129032258,1.35806451612903,1.34838709677419,1.33870967741935,1.35806451612903,1.35161290322581,1.35161290322581,1.34193548387097,1.33870967741935,1.35161290322581
1.3741935483871,1.38064516129032,1.3741935483871,1.36774193548387,1.3741935483871,1.36774193548387,1.3741935483871,1.37096774193548,1.3741935483871,1.37741935483871,1.37741935483871,1.38064516129032,1.3741935483871,1.38064516129032,1.38709677419355,1.38064516129032,1.38709677419355,1.37741935483871,1.38064516129032,1.38064516129032,1.3741935483871,1.36774193548387,1.37096774193548,1.3741935483871,1.3741935483871,1.36774193548387,1.37096774193548,1.3741935483871,1.3741935483871,1.37741935483871,1.37096774193548,1.3741935483871,1.37096774193548,1.37096774193548,1.3741935483871,1.36774193548387,1.36451612903226,1.35806451612903,1.36129032258065,1.36451612903226,1.36451612903226,1.35483870967742,1.36129032258065,1.36129032258065,1.36774193548387,1.36451612903226,1.36774193548387,1.36774193548387,1.36451612903226,1.36451612903226,1.35806451612903,1.36451612903226,1.36451612903226,1.36451612903226,1.36129032258065,1.35483870967742,1.36451612903226,1.36129032258065,1.35806451612903,1.36451612903226,1.35806451612903,1.36129032258065,1.36129032258065,1.36774193548387,1.36774193548387,1.36129032258065,1.36451612903226,1.36129032258065,1.36774193548387,1.36129032258065,1.36774193548387,1.37096774193548,1.3741935483871,1.37741935483871,1.37741935483871,1.38387096774194,1.4,1.4258064516129,1.40967741935484,1.41612903225806,1.40967741935484,1.4,1.36774193548387,1.35483870967742,1.35483870967742,1.36129032258065,1.35483870967742,1.34516129032258,1.34516129032258,1.34516129032258,1.34516129032258,1.35806451612903,1.34838709677419,1.35161290322581,1.35806451612903,1.34193548387097,1.35806451612903,1.54193548387097,1.92903225806452,2.15483870967742,2.14838709677419,1.65806451612903,1.35483870967742,1.29354838709677,1.31612903225806,1.35806451612903,1.36451612903226,1.35161290322581,1.35806451612903,1.36451612903226,1.35806451612903,1.35483870967742,1.36129032258065,1.36774193548387,1.36451612903226,1.36129032258065,1.37096774193548,1.36451612903226,1.37096774193548,1.3741935483871,1.37741935483871,1.37741935483871,1.37741935483871,1.39032258064516,1.39677419354839,1.4,1.40967741935484,1.41290322580645,1.42258064516129,1.44516129032258,1.44838709677419,1.47096774193548,1.48709677419355,1.50322580645161,1.52903225806452,1.54516129032258,1.56451612903226,1.56774193548387,1.57741935483871,1.58064516129032,1.55806451612903,1.54516129032258,1.51290322580645,1.48064516129032,1.45483870967742,1.42903225806452,1.41290322580645,1.41290322580645,1.39354838709677,1.39032258064516,1.39032258064516,1.37741935483871,1.3741935483871,1.37741935483871,1.37741935483871,1.3741935483871,1.38064516129032,1.37741935483871,1.3741935483871,1.37741935483871,1.3741935483871,1.37741935483871,1.37096774193548,1.36774193548387,1.37096774193548,1.3741935483871,1.37741935483871,1.36774193548387,1.3741935483871,1.37741935483871,1.3741935483871,1.36451612903226,1.36774193548387,1.36774193548387,1.36451612903226,1.36129032258065,1.36774193548387,1.36129032258065,1.36451612903226,1.36451612903226,1.36774193548387,1.36129032258065,1.36129032258065,1.36774193548387,1.36451612903226,1.36129032258065,1.36129032258065,1.35483870967742,1.36451612903226,1.36451612903226,1.36129032258065,1.36129032258065,1.35161290322581,1.35483870967742,1.36129032258065,1.35483870967742,1.35806451612903,1.35806451612903,1.35161290322581,1.35483870967742,1.35806451612903,1.35806451612903,1.35483870967742,1.35806451612903,1.36129032258065,1.36129032258065,1.36451612903226,1.36451612903226,1.36451612903226,1.36451612903226,1.36129032258065,1.36774193548387,1.36129032258065,1.35806451612903,1.36774193548387,1.36129032258065,1.36451612903226,1.36129032258065,1.36451612903226,1.37096774193548,1.3741935483871,1.38064516129032,1.3741935483871,1.38709677419355,1.39677419354839,1.40967741935484,1.41935483870968,1.42903225806452,1.41290322580645,1.40645161290323,1.38387096774194,1.35806451612903,1.34193548387097,1.34193548387097,1.34516129032258,1.34193548387097,1.34838709677419,1.34193548387097,1.34193548387097,1.34516129032258,1.34838709677419,1.34838709677419,1.34516129032258,1.34516129032258,1.3258064516129,1.39354838709677,1.73548387096774,2.08064516129032,2.24193548387097,1.97741935483871,1.45161290322581,1.32903225806452,1.28709677419355,1.31935483870968,1.37741935483871,1.34838709677419,1.35161290322581,1.34516129032258,1.33870967741935,1.34838709677419,1.34838709677419,1.35483870967742,1.35483870967742,1.35161290322581,1.35806451612903,1.35483870967742,1.36129032258065,1.35806451612903,1.36451612903226,1.3741935483871,1.36451612903226,1.37741935483871,1.37741935483871,1.38387096774194,1.39032258064516,1.4,1.41612903225806,1.42258064516129,1.43548387096774,1.45806451612903,1.47096774193548,1.48709677419355,1.50645161290323,1.51935483870968,1.54193548387097,1.55806451612903,1.56451612903226,1.56774193548387,1.56451612903226,1.54838709677419,1.52258064516129,1.49354838709677,1.46129032258065,1.44516129032258,1.42903225806452,1.40967741935484,1.40322580645161,1.39032258064516,1.38709677419355,1.37741935483871,1.38387096774194,1.38064516129032,1.3741935483871,1.3741935483871,1.38387096774194,1.38387096774194,1.38064516129032,1.38064516129032,1.38064516129032,1.38387096774194,1.38387096774194,1.38064516129032,1.37741935483871,1.36774193548387,1.3741935483871,1.37741935483871,1.37741935483871,1.36774193548387,1.36451612903226,1.36774193548387,1.37096774193548,1.36774193548387,1.36451612903226,1.36774193548387,1.36129032258065,1.36451612903226,1.36451612903226,1.36451612903226,1.35806451612903,1.36451612903226,1.37096774193548,1.36451612903226,1.35483870967742,1.36774193548387,1.36129032258065,1.36451612903226,1.35483870967742,1.36451612903226,1.35806451612903,1.35483870967742,1.36129032258065,1.36774193548387,1.35806451612903,1.35483870967742,1.36451612903226,1.35483870967742,1.35483870967742,1.36129032258065,1.36451612903226,1.36129032258065,1.36129032258065,1.35483870967742,1.35806451612903,1.35483870967742,1.36129032258065,1.35806451612903,1.36774193548387,1.36451612903226,1.36451612903226,1.36129032258065,1.36129032258065,1.36774193548387,1.35483870967742,1.35483870967742,1.36774193548387,1.36451612903226,1.35806451612903,1.36451612903226,1.3741935483871,1.37741935483871,1.3741935483871,1.38387096774194,1.39677419354839,1.41612903225806,1.41612903225806,1.4258064516129,1.40645161290323,1.39677419354839,1.36129032258065,1.34838709677419,1.35483870967742,1.35483870967742,1.34516129032258,1.34838709677419,1.35161290322581,1.34838709677419,1.34838709677419,1.34838709677419,1.34838709677419,1.35483870967742,1.36129032258065,1.34193548387097,1.34838709677419,1.53225806451613,1.93870967741935,2.17096774193548,2.16451612903226,1.63548387096774,1.33225806451613,1.26451612903226,1.3,1.34838709677419,1.35483870967742,1.35483870967742,1.35806451612903,1.35483870967742,1.35483870967742,1.35483870967742,1.35483870967742,1.35806451612903,1.36451612903226,1.36129032258065,1.36774193548387,1.36129032258065,1.3741935483871,1.3741935483871,1.37096774193548,1.38064516129032,1.38387096774194,1.39032258064516,1.39677419354839,1.4,1.40645161290323,1.40967741935484,1.42903225806452,1.44193548387097,1.45483870967742,1.47096774193548,1.49032258064516,1.51612903225806,1.53225806451613,1.55483870967742,1.56774193548387,1.56774193548387,1.59032258064516,1.58064516129032,1.56774193548387,1.53870967741935,1.50967741935484,1.48709677419355,1.44838709677419,1.43548387096774,1.41290322580645,1.40322580645161,1.39032258064516,1.38387096774194,1.38064516129032,1.37096774193548,1.3741935483871,1.3741935483871,1.38064516129032,1.38387096774194,1.37741935483871,1.3741935483871,1.37741935483871,1.38064516129032,1.38709677419355,1.38064516129032,1.38064516129032,1.38064516129032,1.37741935483871,1.38064516129032,1.37096774193548,1.37096774193548,1.37741935483871,1.3741935483871,1.37096774193548,1.36774193548387,1.37096774193548,1.37096774193548,1.36774193548387,1.36774193548387,1.36451612903226,1.36451612903226,1.36774193548387,1.36451612903226,1.35806451612903,1.35806451612903,1.36129032258065,1.36129032258065,1.36129032258065,1.36774193548387,1.35806451612903,1.36129032258065,1.36129032258065,1.35806451612903,1.35806451612903,1.35806451612903,1.35483870967742,1.36129032258065,1.35806451612903,1.35806451612903,1.35806451612903,1.36129032258065,1.36129032258065,1.36129032258065,1.36451612903226,1.35161290322581,1.35806451612903,1.35161290322581,1.35483870967742,1.36129032258065,1.35161290322581,1.35806451612903,1.35483870967742,1.35483870967742,1.36129032258065,1.35483870967742,1.35483870967742,1.35161290322581,1.35806451612903,1.36451612903226,1.35161290322581,1.36129032258065,1.35806451612903,1.36451612903226,1.37096774193548,1.36451612903226,1.3741935483871,1.38709677419355,1.39032258064516,1.41290322580645,1.41290322580645,1.42258064516129,1.40645161290323,1.4,1.37741935483871,1.33870967741935,1.33870967741935,1.34193548387097,1.34838709677419,1.34838709677419,1.34193548387097,1.33870967741935,1.34516129032258,1.34193548387097,1.34838709677419,1.34193548387097,1.35161290322581,1.34516129032258,1.3258064516129,1.43870967741935,1.81612903225806,2.09677419354839,2.23548387096774,1.8741935483871,1.40967741935484,1.32258064516129,1.30645161290323,1.32903225806452,1.37096774193548,1.35483870967742,1.35483870967742,1.35161290322581,1.34838709677419,1.35161290322581,1.35483870967742,1.35483870967742,1.35161290322581,1.35806451612903,1.36129032258065,1.36129032258065,1.36129032258065,1.36774193548387,1.3741935483871,1.37096774193548,1.38064516129032,1.38387096774194,1.38709677419355,1.39032258064516,1.39677419354839,1.41290322580645,1.40967741935484,1.41935483870968,1.44193548387097,1.45161290322581,1.47741935483871,1.48709677419355,1.51290322580645,1.53225806451613,1.55483870967742,1.56129032258065,1.56451612903226,1.57096774193548,1.56451612903226,1.54838709677419,1.51935483870968,1.49032258064516,1.45483870967742,1.44193548387097,1.42258064516129,1.41290322580645,1.40967741935484,1.39677419354839,1.39354838709677,1.39354838709677,1.39354838709677,1.38064516129032,1.37741935483871,1.38387096774194,1.37741935483871,1.38387096774194,1.37741935483871,1.37741935483871,1.38709677419355,1.38387096774194,1.38387096774194,1.38387096774194,1.3741935483871,1.38387096774194,1.37741935483871,1.3741935483871,1.37096774193548,1.36774193548387,1.37096774193548,1.37741935483871,1.37096774193548,1.36774193548387,1.36451612903226,1.36774193548387,1.36451612903226,1.36774193548387,1.37741935483871,1.36129032258065,1.36774193548387,1.36451612903226,1.37096774193548,1.35806451612903,1.36774193548387,1.36451612903226,1.36451612903226,1.36774193548387,1.36774193548387,1.36129032258065,1.36129032258065,1.35806451612903,1.35483870967742,1.35806451612903,1.36129032258065,1.37096774193548,1.36451612903226,1.36774193548387,1.36129032258065,1.35806451612903,1.36451612903226,1.36129032258065,1.35806451612903,1.36129032258065,1.35806451612903,1.36451612903226,1.36451612903226,1.36129032258065,1.35806451612903,1.35806451612903,1.36774193548387,1.36451612903226,1.36129032258065,1.36129032258065,1.35806451612903,1.35806451612903,1.36451612903226,1.36129032258065,1.36129032258065,1.35806451612903,1.35806451612903,1.38064516129032,1.37741935483871,1.37741935483871,1.38064516129032,1.38709677419355,1.4,1.41612903225806,1.41935483870968,1.41290322580645,1.4,1.38709677419355,1.34516129032258,1.34838709677419,1.34838709677419,1.34193548387097,1.34193548387097,1.34516129032258,1.33225806451613,1.34193548387097,1.33870967741935,1.34193548387097,1.34516129032258,1.34193548387097,1.34516129032258,1.33548387096774,1.39032258064516,1.7258064516129,2.09354838709677,2.25483870967742,1.98064516129032,1.44193548387097,1.30967741935484,1.27096774193548,1.31290322580645,1.36774193548387,1.34193548387097,1.35161290322581,1.34838709677419,1.34193548387097,1.35161290322581,1.34516129032258,1.34838709677419,1.35806451612903,1.35483870967742,1.36451612903226,1.35483870967742,1.36451612903226,1.36129032258065,1.36451612903226,1.37096774193548,1.36774193548387,1.37741935483871,1.38064516129032,1.38064516129032,1.39032258064516,1.40645161290323,1.41612903225806,1.41290322580645,1.42903225806452,1.45161290322581,1.4741935483871,1.50645161290323,1.50967741935484,1.53870967741935,1.55483870967742,1.56774193548387,1.58064516129032,1.58387096774194,1.56451612903226,1.56451612903226,1.51935483870968,1.50322580645161,1.47096774193548,1.44838709677419,1.4258064516129,1.41290322580645,1.40322580645161,1.38709677419355,1.38709677419355,1.38387096774194,1.38387096774194,1.38064516129032,1.37741935483871,1.38064516129032,1.38709677419355,1.38387096774194,1.38709677419355,1.38064516129032,1.38709677419355,1.39032258064516,1.37741935483871,1.38387096774194,1.37096774193548,1.38387096774194,1.39032258064516,1.37741935483871,1.38064516129032,1.37096774193548,1.36451612903226,1.3741935483871,1.37096774193548,1.36774193548387,1.36451612903226,1.36129032258065,1.36451612903226,1.37096774193548,1.36129032258065,1.36129032258065,1.35161290322581,1.35806451612903,1.36129032258065,1.36451612903226,1.36129032258065,1.35161290322581,1.36129032258065,1.35806451612903,1.36774193548387,1.36129032258065,1.36129032258065,1.36451612903226,1.36451612903226,1.36129032258065,1.35161290322581,1.35806451612903,1.37096774193548,1.36451612903226,1.36129032258065,1.36774193548387,1.35483870967742,1.36129032258065,1.35806451612903,1.36129032258065,1.36129032258065,1.35806451612903,1.36451612903226,1.36129032258065,1.36451612903226,1.36129032258065,1.36129032258065,1.36129032258065,1.36451612903226,1.36129032258065,1.36129032258065,1.36451612903226,1.35806451612903,1.35806451612903,1.36451612903226,1.37096774193548,1.36774193548387,1.37096774193548,1.37741935483871,1.38387096774194,1.41290322580645,1.4,1.41612903225806,1.4,1.39354838709677,1.36774193548387,1.35161290322581,1.34838709677419,1.35161290322581,1.34838709677419,1.34838709677419,1.34516129032258,1.35483870967742,1.35161290322581,1.35806451612903,1.35806451612903,1.35483870967742,1.35483870967742,1.34838709677419,1.36129032258065,1.53870967741935,1.93548387096774,2.16129032258065,2.12903225806452,1.60967741935484,1.31935483870968,1.26129032258065,1.3,1.35161290322581,1.35483870967742,1.35161290322581,1.35161290322581,1.35806451612903,1.35806451612903,1.35806451612903,1.36129032258065,1.36451612903226,1.36129032258065,1.36774193548387,1.36451612903226,1.37096774193548,1.36774193548387,1.3741935483871,1.37096774193548,1.38387096774194,1.38064516129032,1.37741935483871,1.39354838709677,1.39677419354839,1.40322580645161,1.40967741935484,1.41612903225806,1.43548387096774,1.44838709677419,1.47096774193548,1.49032258064516,1.50645161290323,1.52903225806452,1.54516129032258,1.56451612903226,1.57096774193548,1.57741935483871,1.58064516129032,1.55483870967742,1.53225806451613,1.49677419354839,1.47096774193548,1.44516129032258,1.42903225806452,1.40967741935484,1.4,1.39354838709677,1.39032258064516,1.38387096774194,1.37741935483871,1.37741935483871,1.37741935483871,1.37741935483871,1.3741935483871,1.38387096774194,1.3741935483871,1.3741935483871,1.38709677419355,1.38387096774194,1.38709677419355,1.38064516129032,1.38064516129032,1.38064516129032,1.3741935483871,1.38709677419355,1.38064516129032,1.3741935483871,1.38064516129032,1.36774193548387,1.3741935483871,1.36451612903226,1.36129032258065,1.36774193548387,1.36129032258065,1.37096774193548,1.36451612903226,1.36451612903226,1.36774193548387,1.36129032258065,1.35483870967742,1.36451612903226,1.35806451612903,1.36774193548387,1.36451612903226,1.36774193548387,1.34193548387097,1.36129032258065,1.37096774193548,1.36129032258065,1.35806451612903,1.36129032258065,1.35806451612903,1.35806451612903,1.35483870967742,1.35483870967742,1.35161290322581,1.35483870967742,1.36129032258065,1.35483870967742,1.36129032258065,1.35483870967742,1.35483870967742,1.35806451612903,1.35806451612903,1.36451612903226,1.35806451612903,1.35806451612903,1.36451612903226,1.35483870967742,1.36451612903226,1.37096774193548,1.36129032258065,1.3741935483871,1.36774193548387,1.36451612903226,1.36451612903226,1.36129032258065,1.36451612903226,1.36129032258065,1.38387096774194,1.38064516129032,1.3741935483871,1.38387096774194,1.39354838709677,1.41290322580645,1.4258064516129,1.40967741935484,1.40967741935484,1.40645161290323,1.39354838709677,1.35483870967742,1.34838709677419,1.34838709677419,1.34838709677419,1.35161290322581,1.33870967741935,1.34193548387097,1.34838709677419,1.34838709677419,1.34516129032258,1.34516129032258,1.34516129032258,1.35483870967742,1.33225806451613,1.38064516129032,1.66451612903226,2.03870967741935,2.22258064516129,2.03548387096774,1.49032258064516,1.34193548387097,1.28064516129032,1.31935483870968,1.37741935483871,1.34193548387097,1.35483870967742,1.34193548387097,1.34193548387097,1.33870967741935,1.34516129032258,1.34838709677419,1.35161290322581,1.35806451612903,1.35483870967742,1.35806451612903,1.35806451612903,1.35806451612903,1.36129032258065,1.36774193548387,1.36774193548387,1.3741935483871,1.38064516129032,1.39354838709677,1.39354838709677,1.40645161290323,1.41290322580645,1.41612903225806,1.43548387096774,1.45161290322581,1.4741935483871,1.49354838709677,1.50322580645161,1.52903225806452,1.54516129032258,1.56451612903226,1.56451612903226,1.57096774193548,1.56774193548387,1.55483870967742,1.53548387096774,1.5,1.46774193548387,1.44516129032258,1.4258064516129,1.41612903225806,1.40322580645161,1.40322580645161,1.39677419354839,1.39677419354839,1.39354838709677,1.39032258064516,1.39032258064516,1.38709677419355,1.38387096774194,1.38709677419355,1.37741935483871,1.38064516129032,1.38064516129032,1.38387096774194,1.38709677419355,1.39677419354839,1.38387096774194,1.38387096774194,1.38387096774194,1.38064516129032,1.38064516129032,1.3741935483871,1.38387096774194,1.3741935483871,1.37741935483871,1.3741935483871,1.36774193548387,1.37741935483871,1.37741935483871,1.37741935483871,1.37096774193548,1.37741935483871,1.37096774193548,1.36451612903226,1.36774193548387,1.36129032258065,1.36774193548387,1.36774193548387,1.36774193548387,1.36129032258065,1.36774193548387,1.36774193548387,1.36774193548387,1.36774193548387,1.35806451612903,1.36129032258065,1.36774193548387,1.36451612903226,1.36774193548387,1.36451612903226,1.36774193548387,1.36451612903226,1.36774193548387,1.36774193548387,1.37096774193548,1.3741935483871,1.3741935483871,1.37096774193548,1.3741935483871,1.36774193548387,1.3741935483871,1.37096774193548,1.3741935483871,1.35806451612903,1.36774193548387,1.36451612903226,1.36129032258065,1.35806451612903,1.36451612903226,1.36451612903226,1.36451612903226,1.35806451612903,1.35806451612903,1.35806451612903,1.3741935483871,1.36774193548387,1.36774193548387,1.38064516129032,1.39677419354839,1.40645161290323,1.41612903225806,1.41612903225806,1.40322580645161,1.39677419354839,1.39032258064516,1.34838709677419,1.34193548387097,1.34193548387097,1.34193548387097,1.34838709677419,1.33870967741935,1.33870967741935,1.33870967741935,1.33870967741935,1.34516129032258,1.34516129032258,1.33870967741935,1.33870967741935,1.32258064516129,1.40322580645161,1.75161290322581,2.09354838709677,2.26129032258065,1.94193548387097,1.40967741935484,1.29032258064516,1.26451612903226,1.3,1.34838709677419,1.34193548387097,1.33548387096774,1.33225806451613,1.33870967741935,1.33870967741935,1.34516129032258,1.34516129032258,1.34193548387097,1.34516129032258,1.34838709677419,1.34838709677419,1.34838709677419,1.34193548387097,1.35161290322581,1.35806451612903,1.36129032258065,1.36451612903226,1.36774193548387,1.38064516129032,1.39354838709677,1.39677419354839,1.40322580645161,1.41290322580645,1.42258064516129,1.44193548387097,1.46129032258065,1.49032258064516,1.50645161290323,1.51935483870968,1.53870967741935,1.55483870967742,1.56129032258065,1.56129032258065,1.55806451612903,1.53548387096774,1.50645161290323,1.48387096774194,1.44516129032258,1.4258064516129,1.40645161290323,1.39677419354839,1.37741935483871,1.36451612903226,1.3741935483871,1.36129032258065,1.36129032258065,1.36774193548387,1.35806451612903,1.35806451612903,1.37096774193548,1.35806451612903,1.36774193548387,1.36129032258065,1.37096774193548,1.36774193548387,1.3741935483871,1.37096774193548,1.36774193548387,1.37741935483871,1.37096774193548,1.37741935483871,1.37741935483871,1.37741935483871,1.3741935483871,1.36451612903226,1.37741935483871,1.3741935483871,1.36774193548387,1.36774193548387,1.37096774193548,1.3741935483871,1.3741935483871,1.36774193548387,1.38064516129032,1.37741935483871,1.37741935483871,1.37096774193548,1.37096774193548,1.37741935483871,1.38064516129032,1.38387096774194,1.38387096774194,1.38709677419355,1.38387096774194,1.39032258064516,1.39354838709677,1.39677419354839,1.4,1.4,1.39677419354839,1.40645161290323,1.40645161290323,1.40322580645161,1.41290322580645,1.41935483870968,1.41290322580645,1.41935483870968,1.42258064516129,1.42903225806452,1.42903225806452,1.43548387096774,1.43225806451613,1.43870967741935,1.43870967741935
1.36774193548387,1.32258064516129,1.35483870967742,1.40645161290323,1.38064516129032,1.3741935483871,1.38387096774194,1.38709677419355,1.38064516129032,1.37741935483871,1.38387096774194,1.38387096774194,1.39032258064516,1.38709677419355,1.39354838709677,1.38387096774194,1.39354838709677,1.39677419354839,1.39032258064516,1.39677419354839,1.39354838709677,1.40645161290323,1.40967741935484,1.41290322580645,1.42258064516129,1.43548387096774,1.45161290322581,1.46451612903226,1.4741935483871,1.49677419354839,1.50322580645161,1.53870967741935,1.55483870967742,1.56129032258065,1.57741935483871,1.59032258064516,1.59354838709677,1.58709677419355,1.56451612903226,1.54838709677419,1.51612903225806,1.49354838709677,1.46451612903226,1.44193548387097,1.4258064516129,1.41612903225806,1.41612903225806,1.39354838709677,1.39032258064516,1.39677419354839,1.39677419354839,1.39354838709677,1.39032258064516,1.38709677419355,1.39032258064516,1.39032258064516,1.38709677419355,1.39032258064516,1.38709677419355,1.38709677419355,1.38064516129032,1.38709677419355,1.38387096774194,1.38387096774194,1.38387096774194,1.38064516129032,1.38064516129032,1.37096774193548,1.3741935483871,1.3741935483871,1.37741935483871,1.36774193548387,1.37741935483871,1.3741935483871,1.3741935483871,1.3741935483871,1.3741935483871,1.3741935483871,1.36129032258065,1.36451612903226,1.37096774193548,1.37096774193548,1.37096774193548,1.36129032258065,1.36774193548387,1.36451612903226,1.3741935483871,1.36451612903226,1.36129032258065,1.36451612903226,1.35806451612903,1.36451612903226,1.36774193548387,1.36129032258065,1.35806451612903,1.36451612903226,1.36774193548387,1.36451612903226,1.35806451612903,1.36774193548387,1.35483870967742,1.36129032258065,1.36129032258065,1.35483870967742,1.35483870967742,1.35483870967742,1.36451612903226,1.3741935483871,1.36451612903226,1.35806451612903,1.36451612903226,1.35806451612903,1.36451612903226,1.35806451612903,1.36129032258065,1.36774193548387,1.37096774193548,1.38064516129032,1.37096774193548,1.38387096774194,1.38709677419355,1.41290322580645,1.39677419354839,1.40322580645161,1.40322580645161,1.38709677419355,1.36774193548387,1.34193548387097,1.33548387096774,1.34193548387097,1.33870967741935,1.34193548387097,1.33870967741935,1.34193548387097,1.33870967741935,1.33548387096774,1.34193548387097,1.34193548387097,1.35483870967742,1.33870967741935,1.36451612903226,1.61935483870968,2.00967741935484,2.21935483870968,2.07741935483871,1.50322580645161,1.31612903225806,1.25806451612903,1.29677419354839,1.35483870967742,1.33870967741935,1.35806451612903,1.34838709677419,1.33870967741935,1.34516129032258,1.34516129032258,1.35161290322581,1.35161290322581,1.35161290322581,1.35483870967742,1.35806451612903,1.36451612903226,1.35806451612903,1.36451612903226,1.3741935483871,1.3741935483871,1.38387096774194,1.38064516129032,1.38709677419355,1.39354838709677,1.40645161290323,1.40645161290323,1.41935483870968,1.43548387096774,1.44516129032258,1.47096774193548,1.49354838709677,1.50967741935484,1.51935483870968,1.54516129032258,1.55806451612903,1.57741935483871,1.58064516129032,1.57741935483871,1.55806451612903,1.52903225806452,1.50322580645161,1.47741935483871,1.44516129032258,1.42903225806452,1.40645161290323,1.39032258064516,1.39354838709677,1.38064516129032,1.38064516129032,1.3741935483871,1.3741935483871,1.38064516129032,1.37096774193548,1.38387096774194,1.37741935483871,1.38064516129032,1.38064516129032,1.38064516129032,1.37741935483871,1.38064516129032,1.38064516129032,1.38064516129032,1.3741935483871,1.37741935483871,1.3741935483871,1.38064516129032,1.37096774193548,1.36774193548387,1.37096774193548,1.36774193548387,1.37096774193548,1.37096774193548,1.36129032258065,1.36774193548387,1.36451612903226,1.36774193548387,1.37096774193548,1.36129032258065,1.36129032258065,1.36451612903226,1.36129032258065,1.36129032258065,1.36451612903226,1.36129032258065,1.36774193548387,1.37096774193548,1.36451612903226,1.36129032258065,1.36774193548387,1.36451612903226,1.36774193548387,1.36129032258065,1.35806451612903,1.36451612903226,1.35483870967742,1.35806451612903,1.36451612903226,1.36451612903226,1.35806451612903,1.35483870967742,1.36451612903226,1.36451612903226,1.35806451612903,1.36129032258065,1.36774193548387,1.37096774193548,1.35806451612903,1.35806451612903,1.36451612903226,1.36129032258065,1.36129032258065,1.35483870967742,1.35806451612903,1.36451612903226,1.36129032258065,1.3741935483871,1.37741935483871,1.3741935483871,1.38709677419355,1.39354838709677,1.4258064516129,1.41290322580645,1.41290322580645,1.40322580645161,1.39032258064516,1.36129032258065,1.34838709677419,1.34516129032258,1.34838709677419,1.34193548387097,1.35161290322581,1.34516129032258,1.34193548387097,1.33870967741935,1.34516129032258,1.35483870967742,1.35161290322581,1.35161290322581,1.32903225806452,1.38709677419355,1.69354838709677,2.04838709677419,2.20967741935484,1.99677419354839,1.46451612903226,1.3258064516129,1.29032258064516,1.31935483870968,1.37096774193548,1.34193548387097,1.35161290322581,1.35161290322581,1.35161290322581,1.34516129032258,1.34516129032258,1.35806451612903,1.35161290322581,1.35161290322581,1.35806451612903,1.35806451612903,1.36774193548387,1.36451612903226,1.36451612903226,1.3741935483871,1.37741935483871,1.38387096774194,1.38387096774194,1.38709677419355,1.4,1.40322580645161,1.41935483870968,1.4258064516129,1.43870967741935,1.45161290322581,1.46774193548387,1.49032258064516,1.51612903225806,1.52258064516129,1.54838709677419,1.55483870967742,1.57096774193548,1.57096774193548,1.56774193548387,1.55806451612903,1.5258064516129,1.49677419354839,1.46774193548387,1.43870967741935,1.42258064516129,1.40645161290323,1.4,1.38709677419355,1.39032258064516,1.38709677419355,1.38064516129032,1.38709677419355,1.38709677419355,1.38709677419355,1.38709677419355,1.38387096774194,1.38387096774194,1.38064516129032,1.38387096774194,1.38387096774194,1.37741935483871,1.38064516129032,1.37741935483871,1.38064516129032,1.3741935483871,1.37096774193548,1.37096774193548,1.3741935483871,1.36451612903226,1.36129032258065,1.36774193548387,1.36774193548387,1.36451612903226,1.36129032258065,1.36129032258065,1.36129032258065,1.36451612903226,1.36129032258065,1.35806451612903,1.35806451612903,1.35806451612903,1.36774193548387,1.35806451612903,1.35161290322581,1.35483870967742,1.35806451612903,1.35806451612903,1.35483870967742,1.34838709677419,1.36129032258065,1.35806451612903,1.35483870967742,1.36129032258065,1.35161290322581,1.35483870967742,1.36129032258065,1.36129032258065,1.36129032258065,1.35483870967742,1.35161290322581,1.34838709677419,1.35483870967742,1.35483870967742,1.36129032258065,1.35806451612903,1.34838709677419,1.35806451612903,1.36451612903226,1.35483870967742,1.36129032258065,1.35483870967742,1.36129032258065,1.35483870967742,1.35483870967742,1.35483870967742,1.35161290322581,1.35806451612903,1.36774193548387,1.37096774193548,1.3741935483871,1.38709677419355,1.39032258064516,1.40322580645161,1.40967741935484,1.41935483870968,1.4,1.39677419354839,1.39354838709677,1.35483870967742,1.35161290322581,1.34838709677419,1.34838709677419,1.34516129032258,1.35161290322581,1.35161290322581,1.34516129032258,1.35483870967742,1.34516129032258,1.34838709677419,1.35161290322581,1.34193548387097,1.33225806451613,1.43225806451613,1.8258064516129,2.1258064516129,2.26451612903226,1.88387096774194,1.40322580645161,1.31290322580645,1.30322580645161,1.3258064516129,1.37741935483871,1.34838709677419,1.34838709677419,1.35161290322581,1.35161290322581,1.35806451612903,1.35806451612903,1.34193548387097,1.35161290322581,1.35483870967742,1.35806451612903,1.36774193548387,1.36451612903226,1.36774193548387,1.36774193548387,1.3741935483871,1.37096774193548,1.3741935483871,1.38709677419355,1.39032258064516,1.4,1.40967741935484,1.41290322580645,1.43548387096774,1.44516129032258,1.46129032258065,1.49032258064516,1.50645161290323,1.52258064516129,1.54193548387097,1.56451612903226,1.57096774193548,1.57096774193548,1.57741935483871,1.5741935483871,1.54838709677419,1.52258064516129,1.49354838709677,1.46774193548387,1.43870967741935,1.42903225806452,1.40967741935484,1.4,1.39032258064516,1.39677419354839,1.39354838709677,1.3741935483871,1.38387096774194,1.39354838709677,1.38709677419355,1.37741935483871,1.3741935483871,1.38064516129032,1.37741935483871,1.38064516129032,1.37741935483871,1.37741935483871,1.36774193548387,1.37741935483871,1.37741935483871,1.3741935483871,1.38064516129032,1.36451612903226,1.36774193548387,1.36451612903226,1.36774193548387,1.35806451612903,1.36129032258065,1.35483870967742,1.35483870967742,1.34838709677419,1.36129032258065,1.35806451612903,1.36129032258065,1.35483870967742,1.35806451612903,1.36129032258065,1.35161290322581,1.36451612903226,1.35806451612903,1.35806451612903,1.35806451612903,1.35483870967742,1.36129032258065,1.35483870967742,1.34838709677419,1.35806451612903,1.35483870967742,1.36129032258065,1.34838709677419,1.35806451612903,1.36129032258065,1.34516129032258,1.35806451612903,1.34838709677419,1.35161290322581,1.34516129032258,1.34516129032258,1.35806451612903,1.34838709677419,1.35806451612903,1.36451612903226,1.35483870967742,1.35161290322581,1.34838709677419,1.35483870967742,1.35483870967742,1.35161290322581,1.36451612903226,1.36774193548387,1.37096774193548,1.37741935483871,1.3741935483871,1.38387096774194,1.40645161290323,1.40967741935484,1.41290322580645,1.39677419354839,1.39354838709677,1.37096774193548,1.34193548387097,1.34838709677419,1.34838709677419,1.35161290322581,1.34516129032258,1.34516129032258,1.34516129032258,1.33870967741935,1.34838709677419,1.34838709677419,1.35483870967742,1.36129032258065,1.33870967741935,1.36774193548387,1.63225806451613,2,2.20967741935484,2.04516129032258,1.48387096774194,1.30645161290323,1.25806451612903,1.30322580645161,1.35161290322581,1.34193548387097,1.35161290322581,1.35161290322581,1.35806451612903,1.35161290322581,1.35806451612903,1.36129032258065,1.36129032258065,1.36451612903226,1.36451612903226,1.36129032258065,1.36774193548387,1.36451612903226,1.3741935483871,1.37096774193548,1.36774193548387,1.37741935483871,1.38387096774194,1.39032258064516,1.39354838709677,1.40645161290323,1.41612903225806,1.43225806451613,1.44516129032258,1.46129032258065,1.48064516129032,1.5,1.5258064516129,1.54193548387097,1.55806451612903,1.57741935483871,1.5741935483871,1.59032258064516,1.58064516129032,1.55806451612903,1.52903225806452,1.50322580645161,1.46774193548387,1.44838709677419,1.41612903225806,1.40322580645161,1.39032258064516,1.39032258064516,1.38064516129032,1.38064516129032,1.37741935483871,1.37741935483871,1.38064516129032,1.38064516129032,1.36774193548387,1.3741935483871,1.3741935483871,1.38064516129032,1.38709677419355,1.38064516129032,1.37741935483871,1.38387096774194,1.38709677419355,1.38064516129032,1.37741935483871,1.38064516129032,1.3741935483871,1.37741935483871,1.37741935483871,1.36774193548387,1.37096774193548,1.36774193548387,1.37096774193548,1.3741935483871,1.36451612903226,1.36451612903226,1.35806451612903,1.36451612903226,1.37096774193548,1.36129032258065,1.36451612903226,1.36129032258065,1.35806451612903,1.36451612903226,1.35806451612903,1.36129032258065,1.36451612903226,1.36774193548387,1.36774193548387,1.35806451612903,1.35161290322581,1.35806451612903,1.35806451612903,1.35483870967742,1.35483870967742,1.35483870967742,1.34838709677419,1.35806451612903,1.35161290322581,1.35161290322581,1.35483870967742,1.35161290322581,1.35806451612903,1.35483870967742,1.35161290322581,1.35806451612903,1.35161290322581,1.35483870967742,1.35483870967742,1.35161290322581,1.35161290322581,1.34838709677419,1.35806451612903,1.36774193548387,1.36774193548387,1.37096774193548,1.36451612903226,1.38064516129032,1.39354838709677,1.40967741935484,1.40322580645161,1.40967741935484,1.40322580645161,1.4,1.37096774193548,1.34516129032258,1.34516129032258,1.34516129032258,1.34193548387097,1.34193548387097,1.34193548387097,1.33870967741935,1.34838709677419,1.34838709677419,1.34193548387097,1.34838709677419,1.34838709677419,1.33225806451613,1.36451612903226,1.59354838709677,1.97741935483871,2.18387096774194,2.10967741935484,1.58387096774194,1.34838709677419,1.29354838709677,1.31935483870968,1.3741935483871,1.35483870967742,1.34516129032258,1.35161290322581,1.35161290322581,1.35483870967742,1.35161290322581,1.35483870967742,1.35161290322581,1.34838709677419,1.35806451612903,1.35806451612903,1.35806451612903,1.36451612903226,1.35806451612903,1.37096774193548,1.36774193548387,1.36774193548387,1.3741935483871,1.38064516129032,1.39677419354839,1.4,1.40967741935484,1.41612903225806,1.43548387096774,1.45161290322581,1.46774193548387,1.48064516129032,1.50645161290323,1.5258064516129,1.54193548387097,1.56451612903226,1.56774193548387,1.58387096774194,1.5741935483871,1.55806451612903,1.53870967741935,1.50645161290323,1.4741935483871,1.44193548387097,1.42903225806452,1.41935483870968,1.4,1.39677419354839,1.38709677419355,1.39032258064516,1.39032258064516,1.38387096774194,1.38387096774194,1.39032258064516,1.38387096774194,1.38709677419355,1.37741935483871,1.38387096774194,1.38709677419355,1.3741935483871,1.38387096774194,1.37096774193548,1.3741935483871,1.36774193548387,1.3741935483871,1.36451612903226,1.37096774193548,1.3741935483871,1.36451612903226,1.36774193548387,1.36451612903226,1.36129032258065,1.36774193548387,1.36451612903226,1.36451612903226,1.36774193548387,1.36451612903226,1.36129032258065,1.36774193548387,1.35806451612903,1.36451612903226,1.35483870967742,1.35161290322581,1.35806451612903,1.35806451612903,1.36129032258065,1.35806451612903,1.35806451612903,1.35806451612903,1.36129032258065,1.36129032258065,1.36129032258065,1.35161290322581,1.35806451612903,1.35806451612903,1.35806451612903,1.35483870967742,1.35806451612903,1.35483870967742,1.36451612903226,1.36451612903226,1.36129032258065,1.35806451612903,1.35483870967742,1.36451612903226,1.36451612903226,1.35806451612903,1.35483870967742,1.36129032258065,1.36774193548387,1.3741935483871,1.36451612903226,1.36774193548387,1.38064516129032,1.38709677419355,1.41935483870968,1.40322580645161,1.42258064516129,1.4,1.40322580645161,1.36774193548387,1.35161290322581,1.34838709677419,1.34838709677419,1.34516129032258,1.34193548387097,1.33548387096774,1.33548387096774,1.33870967741935,1.33870967741935,1.33870967741935,1.33870967741935,1.33870967741935,1.3258064516129,1.38064516129032,1.66774193548387,2.04838709677419,2.24838709677419,2.05161290322581,1.49032258064516,1.33548387096774,1.27741935483871,1.31290322580645,1.37096774193548,1.34516129032258,1.35161290322581,1.33870967741935,1.34193548387097,1.34193548387097,1.33870967741935,1.34516129032258,1.33870967741935,1.34838709677419,1.34516129032258,1.35161290322581,1.35483870967742,1.35483870967742,1.35806451612903,1.35483870967742,1.36129032258065,1.35806451612903,1.36451612903226,1.38064516129032,1.3741935483871,1.39354838709677,1.40645161290323,1.41290322580645,1.4258064516129,1.44838709677419,1.46774193548387,1.49032258064516,1.5,1.53225806451613,1.54516129032258,1.56451612903226,1.57741935483871,1.57096774193548,1.56451612903226,1.55161290322581,1.5258064516129,1.49677419354839,1.46129032258065,1.43548387096774,1.41290322580645,1.4,1.39354838709677,1.39032258064516,1.38387096774194,1.3741935483871,1.3741935483871,1.38064516129032,1.38064516129032,1.37741935483871,1.37741935483871,1.38064516129032,1.3741935483871,1.36774193548387,1.3741935483871,1.3741935483871,1.37096774193548,1.37741935483871,1.36451612903226,1.37096774193548,1.36774193548387,1.36451612903226,1.36774193548387,1.36451612903226,1.36774193548387,1.35806451612903,1.36774193548387,1.36774193548387,1.36129032258065,1.36129032258065,1.35806451612903,1.36774193548387,1.36774193548387,1.35483870967742,1.36129032258065,1.36451612903226,1.36774193548387,1.36129032258065,1.35483870967742,1.36451612903226,1.35806451612903,1.36129032258065,1.36451612903226,1.35483870967742,1.36129032258065,1.36774193548387,1.36774193548387,1.36129032258065,1.35806451612903,1.36451612903226,1.35483870967742,1.35806451612903,1.36451612903226,1.36129032258065,1.35161290322581,1.35806451612903,1.36129032258065,1.35806451612903,1.36129032258065,1.36129032258065,1.35806451612903,1.36129032258065,1.36451612903226,1.36129032258065,1.36774193548387,1.37096774193548,1.37096774193548,1.38064516129032,1.39354838709677,1.41290322580645,1.40645161290323,1.40967741935484,1.4,1.39032258064516,1.35806451612903,1.33870967741935,1.33870967741935,1.33870967741935,1.32903225806452,1.32903225806452,1.32903225806452,1.33548387096774,1.33225806451613,1.33548387096774,1.33225806451613,1.34193548387097,1.33548387096774,1.31935483870968,1.38709677419355,1.77096774193548,2.10645161290323,2.26129032258065,1.94838709677419,1.42258064516129,1.31290322580645,1.28709677419355,1.32903225806452,1.37096774193548,1.33548387096774,1.34516129032258,1.34193548387097,1.34193548387097,1.35161290322581,1.34516129032258,1.35161290322581,1.34838709677419,1.35161290322581,1.35806451612903,1.35483870967742,1.35806451612903,1.36774193548387,1.36129032258065,1.38064516129032,1.3741935483871,1.38387096774194,1.38387096774194,1.39677419354839,1.39677419354839,1.40645161290323,1.40967741935484,1.41935483870968,1.44838709677419,1.46451612903226,1.47741935483871,1.50322580645161,1.5258064516129,1.54516129032258,1.56774193548387,1.5741935483871,1.59354838709677,1.6,1.58709677419355,1.57096774193548,1.52258064516129,1.48709677419355,1.45806451612903,1.44838709677419,1.42258064516129,1.41290322580645,1.39354838709677,1.39354838709677,1.39032258064516,1.39677419354839,1.39032258064516,1.39032258064516,1.39032258064516,1.38709677419355,1.39032258064516,1.38064516129032,1.38064516129032,1.38387096774194,1.38387096774194,1.38387096774194,1.37741935483871,1.37096774193548,1.37096774193548,1.37741935483871,1.38387096774194,1.37741935483871,1.38064516129032,1.36774193548387,1.37741935483871,1.36451612903226,1.36774193548387,1.36129032258065,1.36451612903226,1.36774193548387,1.37741935483871,1.35806451612903,1.35806451612903,1.36451612903226,1.35806451612903,1.36451612903226,1.36129032258065,1.35161290322581,1.35806451612903,1.35806451612903,1.35483870967742,1.36129032258065,1.36129032258065,1.35161290322581,1.36129032258065,1.36451612903226,1.35483870967742,1.36129032258065,1.34838709677419,1.36451612903226,1.35806451612903,1.34838709677419,1.35806451612903,1.35483870967742,1.35483870967742,1.36451612903226,1.34838709677419,1.35483870967742,1.35483870967742,1.36451612903226,1.35806451612903,1.35483870967742,1.36774193548387,1.36451612903226,1.36774193548387,1.38064516129032,1.3741935483871,1.38387096774194,1.39032258064516,1.39677419354839,1.40645161290323,1.38387096774194,1.38387096774194,1.36129032258065,1.34193548387097,1.3258064516129,1.3258064516129,1.3258064516129,1.32258064516129,1.31935483870968,1.32903225806452,1.33548387096774,1.3258064516129,1.3258064516129,1.33225806451613,1.33870967741935,1.32258064516129,1.33870967741935,1.55806451612903,1.94838709677419,2.16774193548387,2.10645161290323,1.55483870967742,1.29677419354839,1.22903225806452,1.27741935483871,1.3258064516129,1.33225806451613,1.33548387096774,1.33225806451613,1.33548387096774,1.33870967741935,1.34193548387097,1.34193548387097,1.33870967741935,1.35161290322581,1.34516129032258,1.34838709677419,1.35806451612903,1.35806451612903,1.36129032258065,1.36774193548387,1.37096774193548,1.3741935483871,1.38064516129032,1.38709677419355,1.38709677419355,1.39677419354839,1.40645161290323,1.41935483870968,1.44193548387097,1.44193548387097,1.46129032258065,1.48064516129032,1.50645161290323,1.53225806451613,1.55161290322581,1.57096774193548,1.58064516129032,1.58387096774194,1.58064516129032,1.55483870967742,1.52258064516129,1.49354838709677,1.46774193548387,1.43225806451613,1.41612903225806,1.40322580645161,1.38709677419355,1.38064516129032,1.3741935483871,1.37096774193548,1.37096774193548,1.36129032258065,1.37096774193548,1.37741935483871,1.37096774193548,1.38064516129032,1.3741935483871,1.3741935483871,1.38064516129032,1.37741935483871,1.38387096774194,1.38709677419355,1.39032258064516,1.38387096774194,1.38709677419355,1.38064516129032,1.38064516129032,1.38387096774194,1.37741935483871,1.38064516129032,1.3741935483871,1.3741935483871,1.38064516129032,1.37741935483871,1.37741935483871,1.37741935483871,1.38064516129032,1.38387096774194,1.38064516129032,1.37096774193548,1.37741935483871,1.37741935483871,1.3741935483871,1.38064516129032,1.37741935483871,1.37741935483871,1.3741935483871,1.3741935483871,1.38387096774194,1.3741935483871,1.38064516129032,1.37741935483871,1.3741935483871,1.38064516129032,1.37741935483871,1.39032258064516,1.37741935483871,1.38064516129032,1.39032258064516,1.39032258064516,1.38709677419355,1.38709677419355,1.39032258064516,1.39354838709677,1.39032258064516,1.39677419354839,1.39677419354839,1.40322580645161,1.41290322580645,1.41290322580645,1.42258064516129,1.43225806451613,1.46451612903226,1.45806451612903,1.46774193548387,1.45806451612903
