1.21935483870968,1.44516129032258,0.951612903225806,1.35806451612903,1.25161290322581,1.03548387096774,1.3741935483871,0.887096774193548,1.12903225806452,1.1741935483871,1.00967741935484,1.38387096774194,0.970967741935484,1.3258064516129,1.23548387096774,1.05483870967742,1.31290322580645,0.932258064516129,1.21935483870968,1.26451612903226,0.961290322580645,1.52903225806452,0.961290322580645,1.33225806451613,1.34516129032258,1.05161290322581,1.39677419354839,0.970967741935484,1.3741935483871,1.38709677419355,1.2258064516129,1.55806451612903,1.07741935483871,1.41935483870968,1.38387096774194,1.29677419354839,1.54193548387097,1.14193548387097,1.56451612903226,1.4258064516129,1.23870967741935,1.67741935483871,1.20967741935484,1.51612903225806,1.51290322580645,1.44193548387097,1.63870967741935,1.30967741935484,1.58387096774194,1.60967741935484,1.50322580645161,1.75161290322581,1.4,1.62258064516129,1.51612903225806,1.19677419354839,1.5258064516129,1.33870967741935,1.35161290322581,1.38709677419355,1.23225806451613,1.76774193548387,1.85161290322581,2.79354838709677,3.07741935483871,2.27741935483871,1.09677419354839,0.903225806451613,1.35483870967742,1.50322580645161,1.19677419354839,1.40645161290323,1.14516129032258,1.46774193548387,1.59032258064516,1.13870967741935,1.49032258064516,1.07741935483871,1.45483870967742,1.55483870967742,1.23225806451613,1.56451612903226,1.25483870967742,1.6741935483871,1.61935483870968,1.38064516129032,1.73225806451613,1.28064516129032,1.73870967741935,1.73225806451613,1.60645161290323,1.99354838709677,1.54516129032258,1.9,1.73548387096774,1.54838709677419,1.8741935483871,1.46774193548387,1.8,1.60322580645161,1.47741935483871,1.62903225806452,1.21935483870968,1.46774193548387,1.24516129032258,1.26129032258065,1.45806451612903,0.890322580645161,1.44193548387097,1.23548387096774,1.10645161290323,1.4258064516129,0.896774193548387,1.34193548387097,1.18064516129032,1.16451612903226,1.42903225806452,0.812903225806452,1.31935483870968,1.15161290322581,0.861290322580645,1.41935483870968,0.851612903225806,1.33548387096774,1.22903225806452,0.974193548387097,1.41290322580645,0.896774193548387,1.23225806451613,1.08064516129032,0.712903225806452,1.33870967741935,1.2,1.4,1.26774193548387,1.02258064516129,1.3258064516129,1.25161290322581,1.22258064516129,1.22903225806452,1.03225806451613,1.35806451612903,1.22258064516129,1.36451612903226,1.27096774193548,1.28064516129032,1.5741935483871,1.19354838709677,1.50322580645161,1.51612903225806,1.53548387096774,1.55483870967742,1.59032258064516,1.43870967741935,1.45161290322581,1.25806451612903,1.34516129032258,1.41612903225806,1.30645161290323,0.983870967741935,1.17096774193548,1.51935483870968,2.02258064516129,2.52903225806452,2.88709677419355,1.96451612903226,0.961290322580645,1.15161290322581,1.18064516129032,1.20967741935484,1.26129032258065,1.21612903225806,1.28387096774194,1.37741935483871,1.15806451612903,1.25161290322581,1.19032258064516,1.49677419354839,1.41935483870968,1.32903225806452,1.36774193548387,1.26774193548387,1.64193548387097,1.43870967741935,1.20967741935484,1.46129032258065,1.49354838709677,1.79032258064516,1.78064516129032,1.59032258064516,1.66451612903226,1.68064516129032,1.99354838709677,1.90645161290323,1.79677419354839,1.76451612903226,1.64838709677419,1.86129032258065,1.8,1.66129032258065,1.52903225806452,1.37741935483871,1.65483870967742,1.47741935483871,1.35806451612903,1.36774193548387,1.28064516129032,1.58064516129032,1.34516129032258,1.35483870967742,1.26774193548387,1.23870967741935,1.6258064516129,1.35806451612903,1.43870967741935,1.43548387096774,1.26774193548387,1.60645161290323,1.16129032258065,1.34838709677419,1.19677419354839,1.01290322580645,1.28709677419355,1.29677419354839,1.32903225806452,1.11290322580645,1.11935483870968,1.50322580645161,1.28387096774194,1.08709677419355,1.16451612903226,0.958064516129032,1.37096774193548,1.2,0.974193548387097,1.30322580645161,1.03225806451613,1.43548387096774,1.3741935483871,1.17741935483871,1.27096774193548,1.26451612903226,1.33225806451613,1.39677419354839,1.15161290322581,1.23548387096774,1.38387096774194,0.987096774193548,1.38709677419355,1.09677419354839,1.20322580645161,1.38709677419355,1.32258064516129,1.52903225806452,1.40322580645161,1.3,1.65483870967742,1.30645161290323,1.55483870967742,1.47096774193548,1.06129032258065,1.46129032258065,1.13548387096774,1.4,1.39677419354839,1.10967741935484,1.51290322580645,1.20967741935484,1.91290322580645,2.46451612903226,2.71612903225806,2.70645161290323,0.661290322580645,1.02903225806452,1.12258064516129,1.14193548387097,1.4258064516129,0.87741935483871,1.5,1.10645161290323,1.1741935483871,1.67741935483871,0.990322580645161,1.47741935483871,1.33225806451613,1.31935483870968,1.58387096774194,1.0741935483871,1.64193548387097,1.4258064516129,1.3741935483871,1.75806451612903,1.30645161290323,1.60322580645161,1.55483870967742,1.54193548387097,1.8258064516129,1.31935483870968,1.94193548387097,1.76451612903226,1.61935483870968,1.92903225806452,1.50967741935484,1.78064516129032,1.61612903225806,1.50967741935484,1.73870967741935,1.15161290322581,1.48064516129032,1.50322580645161,1.3258064516129,1.42258064516129,0.903225806451613,1.30645161290323,1.28387096774194,1.20645161290323,1.45161290322581,1.09677419354839,1.4258064516129,1.30322580645161,1.24193548387097,1.38064516129032,1.00322580645161,1.39677419354839,1.29354838709677,1.24838709677419,1.48387096774194,1.03870967741935,1.34516129032258,1.21612903225806,1.23870967741935,1.48387096774194,1.21290322580645,1.36774193548387,1.3741935483871,1.41612903225806,1.23870967741935,1.41290322580645,1.34516129032258,1.24838709677419,1.30645161290323,1.27741935483871,1.36774193548387,1.19677419354839,1.27741935483871,1.39677419354839,1.30967741935484,1.45806451612903,1.26774193548387,1.29354838709677,1.39354838709677,1.11612903225806,1.40967741935484,1.42258064516129,1.32258064516129,1.41290322580645,1.21612903225806,1.39032258064516,1.35483870967742,1.35161290322581,1.30967741935484,1.17096774193548,1.44838709677419,1.41935483870968,1.46129032258065,1.5258064516129,1.50967741935484,1.5741935483871,1.58387096774194,1.5,1.5,1.28709677419355,1.32903225806452,1.39032258064516,1.20322580645161,1.21935483870968,1.33870967741935,1.22258064516129,1.69354838709677,2.29677419354839,2.93870967741935,2.95161290322581,1.45483870967742,0.961290322580645,1.26129032258065,1.37096774193548,1.34193548387097,1.28064516129032,1.40322580645161,1.20322580645161,1.37741935483871,1.3741935483871,1.23225806451613,1.53548387096774,1.33548387096774,1.43870967741935,1.48387096774194,1.30322580645161,1.61612903225806,1.3741935483871,1.49032258064516,1.63870967741935,1.54838709677419,1.70967741935484,1.69354838709677,1.77741935483871,1.8,1.80322580645161,1.78387096774194,1.77096774193548,1.92258064516129,1.96129032258065,1.85161290322581,1.82903225806452,1.80645161290323,1.75806451612903,1.65161290322581,1.44193548387097,1.38064516129032,1.48709677419355,1.34193548387097,1.41290322580645,1.18387096774194,1.3258064516129,1.38709677419355,1.24193548387097,1.29354838709677,1.14516129032258,1.23225806451613,1.23225806451613,1.17741935483871,1.26774193548387,1.03870967741935,1.43870967741935,1.26774193548387,1.22903225806452,1.4258064516129,0.870967741935484,1.28709677419355,1.32258064516129,1.09354838709677,1.32903225806452,0.845161290322581,1.3741935483871,1.16451612903226,0.980645161290323,1.41612903225806,0.825806451612903,1.2258064516129,1.08387096774194,1.01935483870968,1.3741935483871,1.00645161290323,1.43225806451613,1.14516129032258,1.14516129032258,1.3,1.13870967741935,1.20645161290323,1.11935483870968,1.2,1.25806451612903,1.28387096774194,1.18387096774194,1.24193548387097,1.26774193548387,1.08709677419355,1.30322580645161,1.22258064516129,1.28709677419355,1.3258064516129,1.10322580645161,1.56451612903226,1.2741935483871,1.3,1.46774193548387,1.24838709677419,1.65161290322581,1.06451612903226,1.23870967741935,1.16774193548387,0.780645161290323,1.56774193548387,1.10645161290323,1.1741935483871,1.25806451612903,1.11290322580645,2.43225806451613,2.33548387096774,2.62903225806452,1.51612903225806,0.403225806451613,1.4258064516129,1.00645161290323,1.24193548387097,1.43870967741935,0.729032258064516,1.58387096774194,1.04516129032258,1.2258064516129,1.45161290322581,0.874193548387097,1.70967741935484,1.07096774193548,1.37096774193548,1.5741935483871,1.04838709677419,1.79677419354839,1.17096774193548,1.52258064516129,1.70645161290323,1.08064516129032,1.98709677419355,1.32258064516129,1.79032258064516,1.84838709677419,1.40645161290323,2.20322580645161,1.49354838709677,1.90322580645161,1.93548387096774,1.46129032258065,2.17741935483871,1.28709677419355,1.69354838709677,1.71612903225806,1.35806451612903,1.87741935483871,1.09354838709677,1.55483870967742,1.5,1.16451612903226,1.75161290322581,1.04193548387097,1.50967741935484,1.46129032258065,1.00645161290323,1.74516129032258,1.06774193548387,1.48387096774194,1.55161290322581,1.09677419354839,1.7741935483871,1.09032258064516,1.4741935483871,1.57096774193548,1.09032258064516,1.78387096774194,1.00967741935484,1.36451612903226,1.61612903225806,1.05806451612903,1.77096774193548,1.08387096774194,1.41290322580645,1.65161290322581,1.16129032258065,1.74838709677419,1.05161290322581,1.45806451612903,1.55806451612903,0.767741935483871,1.77096774193548,0.964516129032258,1.4741935483871,1.55161290322581,1.01935483870968,1.81612903225806,0.941935483870968,1.48064516129032,1.51612903225806,1.06451612903226,1.86774193548387,1.09677419354839,1.49354838709677,1.64193548387097,1.22903225806452,1.95161290322581,1.08387096774194,1.62258064516129,1.66129032258065,1.14193548387097,1.77741935483871,0.97741935483871,1.44516129032258,1.49354838709677,1.1258064516129,1.63548387096774,1.16774193548387,1.84193548387097,2.26451612903226,2.65161290322581,2.86129032258065,1.14193548387097,1.08387096774194,1.20967741935484,1.14193548387097,1.73548387096774,0.92258064516129,1.15806451612903,1.36774193548387,1.03870967741935,1.65161290322581,1.04193548387097,1.41935483870968,1.40967741935484,1.08064516129032,1.73870967741935,1.19032258064516,1.48387096774194,1.47741935483871,0.819354838709677,1.78387096774194,1.1258064516129,1.56129032258065,1.73548387096774,1.38709677419355,2.04838709677419,1.35483870967742,1.79354838709677,1.82258064516129,1.30967741935484,2.1,1.27741935483871,1.65806451612903,1.83225806451613,1.30967741935484,1.87096774193548,1.13548387096774,1.44516129032258,1.43225806451613,0.945161290322581,1.65161290322581,0.783870967741935,1.34516129032258,1.25483870967742,1.00322580645161,1.58387096774194,0.841935483870968,1.34838709677419,1.21612903225806,0.903225806451613,1.62258064516129,0.97741935483871,1.35806451612903,1.25806451612903,1.09677419354839,1.55483870967742,1.17096774193548,1.30645161290323,1.29677419354839,1.05806451612903,1.57096774193548,0.954838709677419,1.24838709677419,1.24838709677419,0.964516129032258,1.59354838709677,1.12258064516129,1.2741935483871,1.24193548387097,0.861290322580645,1.54838709677419,0.958064516129032,1.31290322580645,1.29354838709677,1.03870967741935,1.5741935483871,1.01290322580645,1.28064516129032,1.33548387096774,1.06129032258065,1.63870967741935,1.07096774193548,1.18387096774194,1.33548387096774,1.13548387096774,1.70322580645161,1.25806451612903,1.42903225806452,1.59354838709677,1.29032258064516,1.70967741935484,1.46451612903226,1.5,1.4258064516129,1.3,1.29354838709677,1.35161290322581,1.30967741935484,1.16451612903226,1.30645161290323,1.64838709677419,1.95161290322581,2.69032258064516,2.87096774193548,2.16774193548387,1.08709677419355,1.04838709677419,1.1741935483871,1.37741935483871,1.33225806451613,1.35161290322581,1.31290322580645,1.14193548387097,1.15483870967742,1.19354838709677,1.22903225806452,1.43870967741935,1.21935483870968,1.28387096774194,1.21935483870968,1.2741935483871,1.57096774193548,1.36774193548387,1.46451612903226,1.39032258064516,1.55483870967742,1.62258064516129,1.55806451612903,1.69354838709677,1.66129032258065,1.81935483870968,1.88709677419355,1.65806451612903,1.7741935483871,1.74516129032258,1.83548387096774,1.77096774193548,1.65161290322581,1.55806451612903,1.45806451612903,1.38709677419355,1.50967741935484,1.39677419354839,1.24516129032258,1.3258064516129,1.19032258064516,1.32903225806452,1.34838709677419,1.24193548387097,1.42258064516129,1.29032258064516,1.52258064516129,1.29032258064516,1.34516129032258,1.38064516129032,1.26774193548387,1.44838709677419,1.20967741935484,1.16451612903226,1.44193548387097,1.28064516129032,1.56451612903226,1.20967741935484,1.41612903225806,1.36774193548387,1.16129032258065,1.48709677419355,1.28387096774194,1.38387096774194,1.24516129032258,0.896774193548387,1.46129032258065,1.24193548387097,1.28387096774194,1.37096774193548,1.22258064516129,1.45806451612903,1.30967741935484,1.25161290322581,1.39032258064516,1.18387096774194,1.44516129032258,1.2258064516129,1.21612903225806,1.42258064516129,1.15483870967742,1.45483870967742,1.3741935483871,1.26129032258065,1.40322580645161,1.20967741935484,1.57096774193548,1.4,1.34838709677419,1.52903225806452,1.19032258064516,1.63870967741935,1.45806451612903,1.36129032258065,1.4258064516129,1.09354838709677,1.4,1.24838709677419,1.25161290322581,1.40322580645161,1.04193548387097,1.48064516129032,1.60967741935484,1.94838709677419,2.91935483870968,2.7741935483871,1.60967741935484,0.874193548387097,1.06774193548387,1.48064516129032,1.07096774193548,1.34193548387097,1.3258064516129,1.27741935483871,1.30322580645161,1.00322580645161,1.40967741935484,1.19354838709677,1.31935483870968,1.36451612903226,1.03870967741935,1.53870967741935,1.13548387096774,1.34193548387097,1.59032258064516,1.27741935483871,1.61290322580645,1.27741935483871,1.48064516129032,1.63225806451613,1.41612903225806,1.82258064516129,1.55806451612903,1.62903225806452,1.89677419354839,1.49354838709677,1.93548387096774,1.72903225806452,1.66129032258065,1.75161290322581,1.27096774193548,1.65161290322581,1.31612903225806,1.16129032258065,1.47096774193548,1.0741935483871,1.37741935483871,1.0741935483871,1.19354838709677,1.32903225806452,1.03870967741935,1.44516129032258,1.12258064516129,1.23548387096774,1.38709677419355,1.01935483870968,1.44193548387097,1.06129032258065,1.2741935483871,1.42258064516129,1.12903225806452,1.48064516129032,1.1258064516129,1.16451612903226,1.38387096774194,0.945161290322581,1.32258064516129,0.987096774193548,1.23225806451613,1.5,1.12903225806452,1.48387096774194,1.16129032258065,1.26451612903226,1.42258064516129,0.983870967741935,1.39677419354839,1.18709677419355,1.29677419354839,1.49354838709677,1.07741935483871,1.49354838709677,1.19354838709677,1.25161290322581,1.47096774193548,1.18709677419355,1.50645161290323,1.24193548387097,1.40322580645161,1.4741935483871,1.13225806451613,1.44516129032258,1.23225806451613,1.4258064516129,1.52903225806452,1.19032258064516,1.53548387096774,1.45161290322581,1.40322580645161,1.61290322580645,1.30322580645161,1.67096774193548,1.51290322580645,1.49354838709677,1.65483870967742,1.29677419354839,1.50322580645161,1.21935483870968,1.38064516129032,1.50645161290323,1.22903225806452,1.45483870967742,1.41612903225806,1.68709677419355,2.35161290322581,2.79032258064516,2.99354838709677,1.90645161290323,0.961290322580645,1.29354838709677,1.29677419354839,1.51290322580645,1.20967741935484,1.3741935483871,1.46451612903226,1.23870967741935,1.53225806451613,1.21612903225806,1.43548387096774,1.60967741935484,1.25483870967742,1.5741935483871,1.36451612903226,1.46774193548387,1.7,1.36774193548387,1.63548387096774,1.44838709677419,1.60967741935484,1.79354838709677,1.5258064516129,1.86451612903226,1.65161290322581,1.81612903225806,1.96129032258065,1.70967741935484,2.00645161290323,1.60967741935484,1.8,1.90967741935484,1.53870967741935,1.91935483870968,1.39032258064516,1.5,1.5741935483871,1.13548387096774,1.50967741935484,1.2,1.31612903225806,1.42258064516129,1.08709677419355,1.45483870967742,1.14838709677419,1.25806451612903,1.39354838709677,0.932258064516129,1.45483870967742,1.09354838709677,1.26451612903226,1.45483870967742,0.996774193548387,1.45161290322581,1.21612903225806,1.05806451612903,1.31612903225806,0.883870967741936,1.33870967741935,1.13870967741935,1.14838709677419,1.37096774193548,0.912903225806452,1.37096774193548,1.22258064516129,0.974193548387097,1.35483870967742,1.2258064516129,1.37096774193548,1.33548387096774,1.1258064516129,1.19354838709677,1.30645161290323,1.19032258064516,1.21935483870968,1.23225806451613,1.20322580645161,1.32903225806452,1.29032258064516,1.31612903225806,1.18064516129032,1.18387096774194,1.34838709677419,1.20645161290323,1.35806451612903,1.23870967741935,0.983870967741935,1.2258064516129,1.30322580645161,1.4258064516129,1.39032258064516,1.2258064516129,1.63225806451613,1.08709677419355,1.30322580645161,1.18709677419355,0.967741935483871,1.54516129032258,0.932258064516129,1.16129032258065,1.31612903225806,1.21612903225806,2.31935483870968,2.54516129032258,2.7258064516129,1.32258064516129,0.583870967741935,1.26129032258065,1.06774193548387,1.29354838709677,1.25806451612903,0.993548387096774,1.45806451612903,1.15806451612903,1.31612903225806,1.28709677419355,0.929032258064516,1.54193548387097,1.19677419354839,1.4258064516129,1.3741935483871,1.18709677419355,1.70322580645161,1.16774193548387,1.42903225806452,1.57741935483871,1.24838709677419,1.89032258064516,1.40645161290323,1.79677419354839,1.71612903225806,1.36774193548387,2.1,1.45483870967742,1.90645161290323,1.84516129032258,1.31935483870968,2.05483870967742,1.30645161290323,1.75806451612903,1.65161290322581,1.13870967741935,1.81290322580645,0.987096774193548,1.49354838709677,1.47096774193548,1.15483870967742,1.69677419354839,1.10322580645161,1.48387096774194,1.45483870967742,1.1258064516129,1.70967741935484,1.09354838709677,1.55161290322581,1.47741935483871,1.2258064516129,1.72258064516129,1.16774193548387,1.50322580645161,1.51612903225806,0.996774193548387,1.65161290322581,1.03548387096774,1.48709677419355,1.49354838709677,1.1258064516129,1.69677419354839,1.1,1.51612903225806,1.53225806451613,1.03225806451613,1.65806451612903,1.04838709677419,1.28064516129032,1.5258064516129,1.14516129032258,1.64516129032258,1.05483870967742,1.48064516129032,1.45161290322581,0.970967741935484,1.68709677419355,1.01290322580645,1.41612903225806,1.46129032258065,0.874193548387097,1.64838709677419,1.08709677419355,1.47096774193548,1.54193548387097,0.97741935483871,1.76774193548387,1.09677419354839,1.6,1.60645161290323,1.17741935483871,1.82258064516129,1.1258064516129,1.40645161290323,1.4,1.00645161290323,1.71612903225806,1.03225806451613,1.38387096774194,1.55483870967742,1.48709677419355,2.68709677419355,2.71612903225806,2.65483870967742,1.28387096774194,0.551612903225806,1.41290322580645,1.07096774193548,1.40322580645161,1.36451612903226,1,1.56774193548387,1.06451612903226,1.40322580645161,1.34838709677419,0.987096774193548,1.62903225806452,1.23870967741935,1.30322580645161,1.33225806451613,1.18064516129032,1.64838709677419,1.35806451612903,1.46451612903226,1.50645161290323,1.28709677419355,1.73870967741935,1.64193548387097,1.69677419354839,1.75161290322581,1.50322580645161,1.83548387096774,1.73225806451613,1.74193548387097,1.80322580645161,1.54838709677419,1.88064516129032,1.65161290322581,1.58709677419355,1.63548387096774,1.14838709677419,1.52903225806452,1.40645161290323,1.31612903225806,1.2258064516129,1.24516129032258,1.39354838709677,1.20645161290323,1.29677419354839,1.24838709677419,1.17096774193548,1.35806451612903,1.26774193548387,1.27741935483871,1.24838709677419,1.1741935483871,1.17096774193548,1.27096774193548,1.21290322580645,1.2741935483871,1.12903225806452,1.28709677419355,1.3,1.18064516129032,1.15806451612903,1.20322580645161,1.31612903225806,1.23870967741935,1.17741935483871,1.2,1.16774193548387,1.35806451612903,1.30967741935484,1.28387096774194,1.27096774193548,1.28709677419355,1.50322580645161,1.34838709677419,1.22258064516129,1.4258064516129,1.2258064516129,1.38064516129032,1.35161290322581,1.19677419354839,1.3258064516129,1.16774193548387,1.44193548387097,1.39032258064516,1.3258064516129,1.32903225806452,1.27096774193548,1.6,1.60322580645161,1.37096774193548,1.44193548387097,1.49354838709677,1.61612903225806,1.64838709677419,1.49032258064516,1.38709677419355,1.36451612903226,1.2741935483871,1.42258064516129,1.34193548387097,1.34193548387097,1.32903225806452,1.01612903225806,1.71290322580645,1.88064516129032,2.70967741935484,2.91935483870968,2.22903225806452,1.08709677419355,0.987096774193548,1.32258064516129,1.45483870967742,1.04516129032258,1.36451612903226,1.19032258064516,1.20322580645161,1.39032258064516,1.13225806451613,1.46129032258065,1.23870967741935,1.26774193548387,1.40645161290323,1.10645161290323,1.46451612903226,1.28387096774194
1.30967741935484,1.28387096774194,1.25161290322581,1.22258064516129,1.20645161290323,1.2258064516129,1.21612903225806,1.20322580645161,1.22903225806452,1.23225806451613,1.24193548387097,1.25161290322581,1.27096774193548,1.28387096774194,1.30645161290323,1.31935483870968,1.31290322580645,1.31290322580645,1.33225806451613,1.31935483870968,1.30967741935484,1.30967741935484,1.32258064516129,1.31935483870968,1.30645161290323,1.31612903225806,1.32903225806452,1.31612903225806,1.31935483870968,1.31612903225806,1.31935483870968,1.34516129032258,1.31935483870968,1.32903225806452,1.33548387096774,1.33870967741935,1.34516129032258,1.35806451612903,1.34193548387097,1.34838709677419,1.41935483870968,1.43870967741935,1.4258064516129,1.43548387096774,1.51290322580645,1.54838709677419,1.5258064516129,1.49032258064516,1.45483870967742,1.36451612903226,1.35806451612903,1.35483870967742,1.33225806451613,1.33548387096774,1.3258064516129,1.30645161290323,1.51612903225806,1.8258064516129,2.43548387096774,2.83870967741935,2.32258064516129,1.09032258064516,1.00967741935484,1.29677419354839,1.39354838709677,1.34838709677419,1.33225806451613,1.34838709677419,1.37096774193548,1.35483870967742,1.36774193548387,1.39032258064516,1.38064516129032,1.40967741935484,1.4258064516129,1.42903225806452,1.43548387096774,1.44193548387097,1.48709677419355,1.4741935483871,1.51290322580645,1.54516129032258,1.56774193548387,1.60967741935484,1.63870967741935,1.67096774193548,1.68064516129032,1.71290322580645,1.74838709677419,1.73870967741935,1.70322580645161,1.70967741935484,1.68064516129032,1.64838709677419,1.58064516129032,1.48709677419355,1.43548387096774,1.36129032258065,1.29354838709677,1.26129032258065,1.23870967741935,1.20645161290323,1.18709677419355,1.19354838709677,1.20967741935484,1.20645161290323,1.19032258064516,1.21290322580645,1.2258064516129,1.21612903225806,1.21612903225806,1.22903225806452,1.2258064516129,1.24838709677419,1.24516129032258,1.22903225806452,1.21935483870968,1.23548387096774,1.24193548387097,1.21612903225806,1.22903225806452,1.22258064516129,1.20967741935484,1.21612903225806,1.21612903225806,1.22903225806452,1.21612903225806,1.22903225806452,1.23548387096774,1.22903225806452,1.23225806451613,1.23548387096774,1.23225806451613,1.23870967741935,1.21935483870968,1.22903225806452,1.23548387096774,1.25806451612903,1.27096774193548,1.26451612903226,1.30967741935484,1.35806451612903,1.36129032258065,1.35483870967742,1.40645161290323,1.44838709677419,1.45806451612903,1.41612903225806,1.39032258064516,1.32903225806452,1.28709677419355,1.26774193548387,1.26774193548387,1.28387096774194,1.25161290322581,1.2258064516129,1.36451612903226,1.62903225806452,2.22258064516129,2.79677419354839,2.69677419354839,1.30322580645161,0.861290322580645,1.19354838709677,1.35161290322581,1.31935483870968,1.29354838709677,1.29677419354839,1.30322580645161,1.30645161290323,1.33548387096774,1.34193548387097,1.35161290322581,1.36774193548387,1.38064516129032,1.39032258064516,1.41935483870968,1.44193548387097,1.47096774193548,1.48709677419355,1.51612903225806,1.55483870967742,1.5741935483871,1.62258064516129,1.66451612903226,1.71290322580645,1.74516129032258,1.77741935483871,1.81612903225806,1.80645161290323,1.81612903225806,1.8258064516129,1.80645161290323,1.77096774193548,1.68064516129032,1.61935483870968,1.55161290322581,1.47096774193548,1.41935483870968,1.37096774193548,1.32903225806452,1.32258064516129,1.30322580645161,1.30645161290323,1.32903225806452,1.30645161290323,1.3258064516129,1.3258064516129,1.32903225806452,1.35483870967742,1.3741935483871,1.37096774193548,1.3741935483871,1.39354838709677,1.39032258064516,1.39677419354839,1.38387096774194,1.39032258064516,1.4,1.36129032258065,1.35483870967742,1.3741935483871,1.36774193548387,1.34838709677419,1.35161290322581,1.34516129032258,1.33548387096774,1.33870967741935,1.34193548387097,1.32903225806452,1.32903225806452,1.31612903225806,1.30322580645161,1.31290322580645,1.30645161290323,1.27741935483871,1.28064516129032,1.27096774193548,1.26451612903226,1.26129032258065,1.25806451612903,1.25483870967742,1.25806451612903,1.29677419354839,1.3258064516129,1.29032258064516,1.29032258064516,1.37741935483871,1.4,1.36774193548387,1.34193548387097,1.28064516129032,1.22258064516129,1.2,1.19032258064516,1.18709677419355,1.19677419354839,1.19354838709677,1.15806451612903,1.35806451612903,1.70322580645161,2.3741935483871,2.85161290322581,2.40645161290323,1.0258064516129,0.929032258064516,1.24193548387097,1.34516129032258,1.28709677419355,1.27096774193548,1.26129032258065,1.27741935483871,1.30645161290323,1.31290322580645,1.3,1.31612903225806,1.31290322580645,1.35806451612903,1.38064516129032,1.36774193548387,1.38064516129032,1.41935483870968,1.42258064516129,1.44193548387097,1.48064516129032,1.50967741935484,1.53225806451613,1.57096774193548,1.59677419354839,1.62258064516129,1.65161290322581,1.67741935483871,1.66451612903226,1.65483870967742,1.65161290322581,1.6258064516129,1.59354838709677,1.5258064516129,1.4258064516129,1.3741935483871,1.31290322580645,1.26451612903226,1.21935483870968,1.19354838709677,1.16451612903226,1.16129032258065,1.16774193548387,1.17096774193548,1.14838709677419,1.14193548387097,1.16774193548387,1.19677419354839,1.20322580645161,1.20322580645161,1.20322580645161,1.2258064516129,1.2258064516129,1.23548387096774,1.23870967741935,1.24838709677419,1.26774193548387,1.26774193548387,1.24838709677419,1.27741935483871,1.23870967741935,1.20645161290323,1.23548387096774,1.22258064516129,1.22258064516129,1.21290322580645,1.26451612903226,1.24516129032258,1.2258064516129,1.26129032258065,1.25806451612903,1.25483870967742,1.25483870967742,1.24516129032258,1.2741935483871,1.26451612903226,1.26451612903226,1.30322580645161,1.31612903225806,1.34516129032258,1.38387096774194,1.39354838709677,1.38387096774194,1.44193548387097,1.49354838709677,1.48387096774194,1.49354838709677,1.45483870967742,1.39354838709677,1.36774193548387,1.3258064516129,1.34193548387097,1.36774193548387,1.37096774193548,1.32258064516129,1.45483870967742,1.74516129032258,2.31935483870968,2.79354838709677,2.6258064516129,1.30967741935484,1.02258064516129,1.24193548387097,1.37741935483871,1.39354838709677,1.3741935483871,1.38709677419355,1.39354838709677,1.38064516129032,1.40967741935484,1.41612903225806,1.41935483870968,1.44838709677419,1.4741935483871,1.47741935483871,1.47741935483871,1.5,1.54193548387097,1.53870967741935,1.58709677419355,1.59677419354839,1.60967741935484,1.66129032258065,1.69032258064516,1.72903225806452,1.75161290322581,1.78064516129032,1.80322580645161,1.80322580645161,1.80967741935484,1.80322580645161,1.78064516129032,1.75483870967742,1.6741935483871,1.62903225806452,1.53870967741935,1.46774193548387,1.42903225806452,1.38709677419355,1.35161290322581,1.29677419354839,1.29677419354839,1.29677419354839,1.3,1.31935483870968,1.32258064516129,1.29354838709677,1.30967741935484,1.31935483870968,1.31935483870968,1.29032258064516,1.32258064516129,1.33225806451613,1.31935483870968,1.32903225806452,1.32903225806452,1.32903225806452,1.33870967741935,1.32903225806452,1.30645161290323,1.30645161290323,1.30967741935484,1.30645161290323,1.29032258064516,1.28064516129032,1.29677419354839,1.31290322580645,1.31290322580645,1.29032258064516,1.31935483870968,1.30967741935484,1.29354838709677,1.30645161290323,1.30967741935484,1.30967741935484,1.27741935483871,1.29677419354839,1.33225806451613,1.35161290322581,1.39032258064516,1.38064516129032,1.36774193548387,1.4258064516129,1.45806451612903,1.44838709677419,1.41290322580645,1.37741935483871,1.30967741935484,1.24516129032258,1.25161290322581,1.23548387096774,1.25161290322581,1.25483870967742,1.21612903225806,1.39677419354839,1.6741935483871,2.29354838709677,2.73548387096774,2.29032258064516,1.01935483870968,0.9,1.16129032258065,1.3,1.25161290322581,1.23225806451613,1.22258064516129,1.21612903225806,1.24838709677419,1.25161290322581,1.23870967741935,1.24193548387097,1.25161290322581,1.30322580645161,1.30967741935484,1.30322580645161,1.32258064516129,1.34838709677419,1.36774193548387,1.38709677419355,1.40322580645161,1.45483870967742,1.48387096774194,1.50967741935484,1.55483870967742,1.57096774193548,1.59677419354839,1.62258064516129,1.6258064516129,1.62903225806452,1.61612903225806,1.59032258064516,1.55806451612903,1.49677419354839,1.43225806451613,1.35483870967742,1.28387096774194,1.21290322580645,1.18709677419355,1.17741935483871,1.1741935483871,1.1258064516129,1.11935483870968,1.15161290322581,1.16451612903226,1.16129032258065,1.15483870967742,1.18709677419355,1.18387096774194,1.18387096774194,1.19354838709677,1.2,1.20645161290323,1.20645161290323,1.20645161290323,1.22258064516129,1.20645161290323,1.19354838709677,1.19677419354839,1.20322580645161,1.21935483870968,1.20645161290323,1.21290322580645,1.2,1.20967741935484,1.22258064516129,1.20322580645161,1.23225806451613,1.24516129032258,1.22903225806452,1.25161290322581,1.26774193548387,1.23870967741935,1.24193548387097,1.25161290322581,1.26129032258065,1.25161290322581,1.27741935483871,1.31935483870968,1.34838709677419,1.38064516129032,1.38709677419355,1.41935483870968,1.45806451612903,1.45806451612903,1.46129032258065,1.43870967741935,1.38709677419355,1.30967741935484,1.31290322580645,1.33870967741935,1.33548387096774,1.36774193548387,1.3,1.38064516129032,1.64193548387097,2.13225806451613,2.77741935483871,2.84838709677419,1.81290322580645,0.932258064516129,1.20645161290323,1.46774193548387,1.44838709677419,1.37741935483871,1.41290322580645,1.41612903225806,1.4258064516129,1.44193548387097,1.4258064516129,1.46129032258065,1.48387096774194,1.48387096774194,1.50645161290323,1.52903225806452,1.53870967741935,1.55806451612903,1.58387096774194,1.60645161290323,1.63225806451613,1.65161290322581,1.71290322580645,1.76774193548387,1.80322580645161,1.82258064516129,1.86451612903226,1.8741935483871,1.90645161290323,1.89354838709677,1.89032258064516,1.87741935483871,1.84193548387097,1.78387096774194,1.72903225806452,1.64516129032258,1.56129032258065,1.50645161290323,1.45806451612903,1.42903225806452,1.40645161290323,1.37096774193548,1.36451612903226,1.36774193548387,1.38064516129032,1.39032258064516,1.39354838709677,1.38709677419355,1.40645161290323,1.41290322580645,1.4,1.38709677419355,1.39354838709677,1.38709677419355,1.38387096774194,1.38064516129032,1.38387096774194,1.37096774193548,1.34838709677419,1.37096774193548,1.35806451612903,1.31612903225806,1.31612903225806,1.33870967741935,1.3258064516129,1.30645161290323,1.30645161290323,1.30645161290323,1.29354838709677,1.27741935483871,1.2741935483871,1.27741935483871,1.2741935483871,1.28064516129032,1.28709677419355,1.26451612903226,1.26129032258065,1.27096774193548,1.27096774193548,1.33870967741935,1.35483870967742,1.36451612903226,1.3258064516129,1.38064516129032,1.44838709677419,1.40967741935484,1.36774193548387,1.33225806451613,1.25483870967742,1.19032258064516,1.1741935483871,1.18064516129032,1.17096774193548,1.17096774193548,1.09354838709677,1.18387096774194,1.45483870967742,2.01612903225806,2.60322580645161,2.6,1.20967741935484,0.664516129032258,0.987096774193548,1.2258064516129,1.16774193548387,1.10967741935484,1.12903225806452,1.11612903225806,1.11612903225806,1.14838709677419,1.14838709677419,1.15483870967742,1.1741935483871,1.19032258064516,1.22903225806452,1.23870967741935,1.25806451612903,1.2741935483871,1.29677419354839,1.33225806451613,1.33870967741935,1.38709677419355,1.4258064516129,1.46451612903226,1.49354838709677,1.50322580645161,1.58387096774194,1.60967741935484,1.61935483870968,1.60645161290323,1.6,1.60645161290323,1.55483870967742,1.53548387096774,1.46129032258065,1.38064516129032,1.31935483870968,1.25483870967742,1.2258064516129,1.18709677419355,1.16774193548387,1.17096774193548,1.15161290322581,1.16451612903226,1.16774193548387,1.1741935483871,1.2,1.19677419354839,1.19677419354839,1.21290322580645,1.22258064516129,1.23548387096774,1.24516129032258,1.24838709677419,1.27741935483871,1.26774193548387,1.2741935483871,1.26451612903226,1.26451612903226,1.28387096774194,1.25483870967742,1.28064516129032,1.28709677419355,1.28064516129032,1.28709677419355,1.26451612903226,1.27096774193548,1.28709677419355,1.30322580645161,1.29677419354839,1.29354838709677,1.31935483870968,1.29354838709677,1.3258064516129,1.30967741935484,1.36451612903226,1.4258064516129,1.4,1.39354838709677,1.48387096774194,1.53225806451613,1.52903225806452,1.46774193548387,1.45483870967742,1.41612903225806,1.37096774193548,1.34838709677419,1.35161290322581,1.38064516129032,1.35806451612903,1.28709677419355,1.45161290322581,1.7258064516129,2.26451612903226,2.76129032258065,2.64193548387097,1.37741935483871,1.01612903225806,1.26451612903226,1.41612903225806,1.43225806451613,1.39677419354839,1.42258064516129,1.42258064516129,1.42903225806452,1.43870967741935,1.46451612903226,1.46129032258065,1.46774193548387,1.49032258064516,1.5258064516129,1.51935483870968,1.50967741935484,1.53548387096774,1.54838709677419,1.56774193548387,1.61290322580645,1.63548387096774,1.65806451612903,1.68709677419355,1.69354838709677,1.75806451612903,1.77096774193548,1.78064516129032,1.77741935483871,1.74516129032258,1.7741935483871,1.73548387096774,1.71290322580645,1.67096774193548,1.59677419354839,1.51935483870968,1.43548387096774,1.38387096774194,1.35161290322581,1.31290322580645,1.3,1.27741935483871,1.30967741935484,1.28064516129032,1.25806451612903,1.27741935483871,1.29354838709677,1.29354838709677,1.27741935483871,1.29677419354839,1.29677419354839,1.29354838709677,1.30322580645161,1.29354838709677,1.27096774193548,1.2741935483871,1.2741935483871,1.3,1.29032258064516,1.2741935483871,1.27741935483871,1.27741935483871,1.26129032258065,1.25806451612903,1.24838709677419,1.26451612903226,1.28064516129032,1.26774193548387,1.28064516129032,1.25806451612903,1.24193548387097,1.25483870967742,1.27741935483871,1.29354838709677,1.26774193548387,1.31612903225806,1.35161290322581,1.36774193548387,1.34516129032258,1.38709677419355,1.4258064516129,1.41935483870968,1.4,1.38387096774194,1.31612903225806,1.25806451612903,1.22903225806452,1.25161290322581,1.25161290322581,1.23870967741935,1.17741935483871,1.33225806451613,1.60322580645161,2.16451612903226,2.7,2.56451612903226,1.2258064516129,0.861290322580645,1.13225806451613,1.29032258064516,1.28387096774194,1.23870967741935,1.24516129032258,1.26129032258065,1.24838709677419,1.27741935483871,1.29354838709677,1.31612903225806,1.3258064516129,1.32258064516129,1.34838709677419,1.34838709677419,1.37741935483871,1.4,1.39354838709677,1.43548387096774,1.4741935483871,1.50645161290323,1.53225806451613,1.55483870967742,1.60645161290323,1.63548387096774,1.6741935483871,1.67741935483871,1.67741935483871,1.68387096774194,1.69354838709677,1.66129032258065,1.63225806451613,1.55806451612903,1.50645161290323,1.43548387096774,1.36129032258065,1.30322580645161,1.30322580645161,1.26774193548387,1.20645161290323,1.21935483870968,1.20967741935484,1.19677419354839,1.20967741935484,1.20322580645161,1.21612903225806,1.2258064516129,1.21290322580645,1.23870967741935,1.24838709677419,1.26451612903226,1.25483870967742,1.25483870967742,1.3,1.32258064516129,1.33548387096774,1.33870967741935,1.33870967741935,1.3258064516129,1.35806451612903,1.35806451612903,1.35161290322581,1.35161290322581,1.37096774193548,1.37741935483871,1.36451612903226,1.35483870967742,1.36774193548387,1.36451612903226,1.34516129032258,1.35161290322581,1.3741935483871,1.40322580645161,1.41935483870968,1.40645161290323,1.40322580645161,1.47096774193548,1.5,1.48387096774194,1.45161290322581,1.40967741935484,1.34193548387097,1.28709677419355,1.26129032258065,1.25806451612903,1.26451612903226,1.26129032258065,1.17096774193548,1.33548387096774,1.62258064516129,2.18709677419355,2.68709677419355,2.48064516129032,1.16451612903226,0.867741935483871,1.1,1.26774193548387,1.28387096774194,1.26129032258065,1.24516129032258,1.24838709677419,1.26774193548387,1.29677419354839,1.29354838709677,1.30967741935484,1.3258064516129,1.33548387096774,1.35161290322581,1.37096774193548,1.38387096774194,1.40967741935484,1.4258064516129,1.4741935483871,1.50967741935484,1.53225806451613,1.56451612903226,1.58709677419355,1.62258064516129,1.6741935483871,1.68709677419355,1.70645161290323,1.70967741935484,1.70967741935484,1.7258064516129,1.69354838709677,1.63870967741935,1.56774193548387,1.5,1.44838709677419,1.37741935483871,1.31612903225806,1.27741935483871,1.25483870967742,1.24838709677419,1.23870967741935,1.23225806451613,1.23548387096774,1.24193548387097,1.26129032258065,1.25483870967742,1.25483870967742,1.27096774193548,1.27741935483871,1.26451612903226,1.27096774193548,1.30645161290323,1.30322580645161,1.31612903225806,1.31935483870968,1.30645161290323,1.30645161290323,1.31612903225806,1.29032258064516,1.30322580645161,1.3,1.30322580645161,1.31612903225806,1.3,1.30967741935484,1.29354838709677,1.30322580645161,1.31290322580645,1.34193548387097,1.38064516129032,1.38709677419355,1.38709677419355,1.39032258064516,1.48387096774194,1.49032258064516,1.46451612903226,1.44516129032258,1.40645161290323,1.33870967741935,1.30645161290323,1.26774193548387,1.3,1.30967741935484,1.26451612903226,1.20967741935484,1.39032258064516,1.68387096774194,2.24838709677419,2.7258064516129,2.40967741935484,1.10645161290323,0.919354838709677,1.16774193548387,1.32258064516129,1.29677419354839,1.25483870967742,1.27096774193548,1.26129032258065,1.24193548387097,1.28387096774194,1.28064516129032,1.28387096774194,1.30967741935484,1.32903225806452,1.33225806451613,1.32903225806452,1.36774193548387,1.37096774193548,1.36129032258065,1.41290322580645,1.43548387096774,1.46774193548387,1.48709677419355,1.50967741935484,1.56774193548387,1.57741935483871,1.62258064516129,1.64193548387097,1.62903225806452,1.63870967741935,1.62903225806452,1.5741935483871,1.5258064516129,1.4741935483871,1.39354838709677,1.32903225806452,1.26451612903226,1.19677419354839,1.1741935483871,1.16451612903226,1.12258064516129,1.13225806451613,1.13225806451613,1.1258064516129,1.14838709677419,1.16451612903226,1.17096774193548,1.19032258064516,1.19032258064516,1.21612903225806,1.25161290322581,1.2741935483871,1.28064516129032,1.31290322580645,1.35806451612903,1.37096774193548,1.38709677419355,1.40967741935484,1.4,1.40322580645161,1.40967741935484,1.44516129032258,1.44516129032258,1.44516129032258,1.47096774193548,1.48709677419355,1.49354838709677,1.50322580645161,1.50322580645161,1.50322580645161,1.48064516129032,1.49677419354839,1.48709677419355,1.49677419354839,1.56451612903226,1.57741935483871,1.57741935483871,1.60967741935484,1.65806451612903,1.66129032258065,1.61290322580645,1.57096774193548,1.54516129032258,1.47741935483871,1.44193548387097,1.43870967741935,1.44193548387097,1.42258064516129,1.36129032258065,1.40645161290323,1.62903225806452,2.02258064516129,2.64516129032258,2.85806451612903,1.96774193548387,0.867741935483871,1.08064516129032,1.34516129032258,1.34193548387097,1.28064516129032,1.2258064516129,1.21935483870968,1.23870967741935,1.23225806451613,1.21935483870968,1.24516129032258,1.24193548387097,1.22903225806452,1.24838709677419,1.26129032258065,1.25806451612903,1.27741935483871,1.29032258064516,1.29032258064516,1.33225806451613,1.34838709677419,1.38064516129032,1.43870967741935,1.46774193548387,1.5,1.53548387096774,1.5741935483871,1.56774193548387,1.56774193548387,1.57741935483871,1.55483870967742,1.50645161290323,1.49354838709677,1.41612903225806,1.32903225806452,1.26129032258065,1.21612903225806,1.17741935483871,1.14838709677419,1.13870967741935,1.13548387096774,1.15806451612903,1.16129032258065,1.16451612903226,1.17741935483871,1.19677419354839,1.21290322580645,1.23548387096774,1.21935483870968,1.25161290322581,1.26451612903226,1.26451612903226,1.2741935483871,1.28709677419355,1.29354838709677,1.29677419354839,1.32258064516129,1.33870967741935,1.3258064516129,1.31612903225806,1.32903225806452,1.34516129032258,1.34516129032258,1.33225806451613,1.35806451612903,1.33870967741935,1.33548387096774,1.33870967741935,1.34838709677419,1.3741935483871,1.34838709677419,1.35806451612903,1.3741935483871,1.4258064516129,1.46774193548387,1.45483870967742,1.49354838709677,1.52258064516129,1.5741935483871,1.59354838709677,1.54516129032258,1.55161290322581,1.4741935483871,1.39677419354839,1.37741935483871,1.38387096774194,1.35483870967742,1.36451612903226,1.35161290322581,1.3258064516129,1.52903225806452,1.88387096774194,2.53870967741935,2.92258064516129,2.23225806451613,0.987096774193548,1.01935483870968,1.36129032258065,1.38064516129032,1.30322580645161,1.29677419354839,1.28709677419355,1.29354838709677,1.29354838709677,1.28387096774194,1.29677419354839,1.31290322580645,1.30645161290323,1.3,1.30645161290323,1.2741935483871,1.29677419354839,1.30967741935484,1.30645161290323,1.31290322580645,1.33870967741935
1.45806451612903,1.46774193548387,1.46774193548387,1.44193548387097,1.46451612903226,1.46129032258065,1.45161290322581,1.45161290322581,1.43870967741935,1.4258064516129,1.4258064516129,1.45483870967742,1.42258064516129,1.40645161290323,1.42903225806452,1.4258064516129,1.40967741935484,1.4,1.38709677419355,1.41290322580645,1.38387096774194,1.38709677419355,1.39354838709677,1.37741935483871,1.3741935483871,1.37741935483871,1.38387096774194,1.38387096774194,1.36129032258065,1.3741935483871,1.35483870967742,1.34838709677419,1.36451612903226,1.41290322580645,1.41612903225806,1.40645161290323,1.40967741935484,1.45483870967742,1.45483870967742,1.44516129032258,1.41290322580645,1.34838709677419,1.25806451612903,1.21935483870968,1.24838709677419,1.22903225806452,1.21935483870968,1.18709677419355,1.17741935483871,1.38387096774194,1.76774193548387,2.44838709677419,2.85483870967742,2.06451612903226,0.829032258064516,0.903225806451613,1.2258064516129,1.23225806451613,1.19354838709677,1.21290322580645,1.19032258064516,1.21290322580645,1.23225806451613,1.24193548387097,1.25483870967742,1.26451612903226,1.29354838709677,1.30645161290323,1.33225806451613,1.34193548387097,1.36129032258065,1.37741935483871,1.40322580645161,1.42903225806452,1.46451612903226,1.49354838709677,1.54516129032258,1.57741935483871,1.61290322580645,1.66451612903226,1.69354838709677,1.73548387096774,1.73548387096774,1.75806451612903,1.7258064516129,1.69354838709677,1.7,1.63548387096774,1.53870967741935,1.44516129032258,1.38064516129032,1.3258064516129,1.25161290322581,1.20645161290323,1.16129032258065,1.15806451612903,1.16451612903226,1.12903225806452,1.15161290322581,1.19032258064516,1.18064516129032,1.15483870967742,1.18064516129032,1.19677419354839,1.20645161290323,1.18709677419355,1.20322580645161,1.21290322580645,1.21290322580645,1.22258064516129,1.24516129032258,1.23548387096774,1.19677419354839,1.21935483870968,1.24838709677419,1.23548387096774,1.23225806451613,1.22903225806452,1.23548387096774,1.23870967741935,1.23870967741935,1.25161290322581,1.22258064516129,1.24193548387097,1.25483870967742,1.25161290322581,1.25806451612903,1.25806451612903,1.28709677419355,1.28387096774194,1.29354838709677,1.31612903225806,1.3,1.31290322580645,1.30322580645161,1.29677419354839,1.35483870967742,1.36451612903226,1.39677419354839,1.41612903225806,1.4,1.44516129032258,1.5,1.49677419354839,1.49354838709677,1.47096774193548,1.40967741935484,1.33548387096774,1.33870967741935,1.36451612903226,1.35161290322581,1.36129032258065,1.29677419354839,1.36774193548387,1.62258064516129,2.11612903225806,2.70967741935484,2.83870967741935,1.64193548387097,0.961290322580645,1.11612903225806,1.33548387096774,1.39032258064516,1.36451612903226,1.34516129032258,1.33548387096774,1.36774193548387,1.38064516129032,1.3741935483871,1.40322580645161,1.41935483870968,1.42903225806452,1.41290322580645,1.46774193548387,1.46451612903226,1.48709677419355,1.51612903225806,1.53548387096774,1.55806451612903,1.59354838709677,1.61290322580645,1.65806451612903,1.69032258064516,1.70322580645161,1.74516129032258,1.78064516129032,1.80322580645161,1.79032258064516,1.79032258064516,1.79677419354839,1.74838709677419,1.70322580645161,1.65483870967742,1.6,1.51290322580645,1.43225806451613,1.40322580645161,1.36129032258065,1.29677419354839,1.27096774193548,1.27741935483871,1.28387096774194,1.28064516129032,1.2741935483871,1.2741935483871,1.27096774193548,1.28709677419355,1.26451612903226,1.30645161290323,1.30967741935484,1.25806451612903,1.3,1.28387096774194,1.26774193548387,1.30645161290323,1.30322580645161,1.29032258064516,1.27096774193548,1.27096774193548,1.27741935483871,1.28064516129032,1.27741935483871,1.28064516129032,1.2741935483871,1.26774193548387,1.26451612903226,1.25483870967742,1.25483870967742,1.29677419354839,1.28387096774194,1.27741935483871,1.2741935483871,1.26774193548387,1.29032258064516,1.3,1.28387096774194,1.28709677419355,1.28709677419355,1.29032258064516,1.27741935483871,1.30645161290323,1.30967741935484,1.29354838709677,1.29677419354839,1.30967741935484,1.29354838709677,1.31935483870968,1.36774193548387,1.39032258064516,1.41290322580645,1.38709677419355,1.45806451612903,1.49354838709677,1.45806451612903,1.47096774193548,1.41612903225806,1.36129032258065,1.31612903225806,1.29677419354839,1.29354838709677,1.29032258064516,1.28709677419355,1.23548387096774,1.35806451612903,1.60967741935484,2.2,2.80645161290323,2.66451612903226,1.2741935483871,0.82258064516129,1.1258064516129,1.29032258064516,1.25483870967742,1.25483870967742,1.23870967741935,1.22258064516129,1.2258064516129,1.27096774193548,1.2741935483871,1.27741935483871,1.28709677419355,1.31612903225806,1.30322580645161,1.34193548387097,1.35806451612903,1.33870967741935,1.37741935483871,1.43548387096774,1.44838709677419,1.50322580645161,1.5,1.53548387096774,1.60322580645161,1.60967741935484,1.65806451612903,1.7,1.70967741935484,1.72903225806452,1.71612903225806,1.70322580645161,1.70322580645161,1.65161290322581,1.61935483870968,1.50322580645161,1.46129032258065,1.39354838709677,1.32258064516129,1.28064516129032,1.26451612903226,1.25483870967742,1.25161290322581,1.25483870967742,1.25806451612903,1.2741935483871,1.28387096774194,1.25806451612903,1.29677419354839,1.30322580645161,1.31290322580645,1.32903225806452,1.30645161290323,1.33548387096774,1.33870967741935,1.33225806451613,1.36451612903226,1.35161290322581,1.35483870967742,1.35806451612903,1.34838709677419,1.33548387096774,1.34838709677419,1.36129032258065,1.33225806451613,1.33870967741935,1.37096774193548,1.36774193548387,1.35483870967742,1.34838709677419,1.3741935483871,1.38709677419355,1.38064516129032,1.38387096774194,1.38064516129032,1.36451612903226,1.36451612903226,1.34193548387097,1.34838709677419,1.3258064516129,1.3258064516129,1.35483870967742,1.33548387096774,1.35161290322581,1.33225806451613,1.30967741935484,1.34516129032258,1.38709677419355,1.42258064516129,1.4258064516129,1.41290322580645,1.39354838709677,1.48064516129032,1.50645161290323,1.47741935483871,1.45161290322581,1.40645161290323,1.3258064516129,1.30967741935484,1.31290322580645,1.30967741935484,1.28709677419355,1.27096774193548,1.2258064516129,1.42903225806452,1.74838709677419,2.40967741935484,2.93548387096774,2.40322580645161,0.97741935483871,0.906451612903226,1.24838709677419,1.30645161290323,1.23870967741935,1.23548387096774,1.22903225806452,1.24516129032258,1.23225806451613,1.23870967741935,1.25161290322581,1.26774193548387,1.29032258064516,1.29354838709677,1.32258064516129,1.33548387096774,1.34838709677419,1.36451612903226,1.4,1.4258064516129,1.42258064516129,1.45806451612903,1.51612903225806,1.53870967741935,1.58387096774194,1.63225806451613,1.65806451612903,1.69032258064516,1.70322580645161,1.68709677419355,1.70322580645161,1.69677419354839,1.65806451612903,1.59677419354839,1.53225806451613,1.44838709677419,1.37741935483871,1.3258064516129,1.25483870967742,1.22258064516129,1.19677419354839,1.18064516129032,1.2,1.2,1.19032258064516,1.2258064516129,1.22258064516129,1.21935483870968,1.21935483870968,1.2258064516129,1.24193548387097,1.22258064516129,1.25161290322581,1.26451612903226,1.27096774193548,1.27741935483871,1.25161290322581,1.27741935483871,1.26774193548387,1.26451612903226,1.26774193548387,1.27096774193548,1.26451612903226,1.24193548387097,1.25483870967742,1.28387096774194,1.26451612903226,1.25483870967742,1.28387096774194,1.25806451612903,1.25483870967742,1.26774193548387,1.3,1.28709677419355,1.29032258064516,1.29677419354839,1.3,1.30322580645161,1.2741935483871,1.32258064516129,1.35806451612903,1.33870967741935,1.31612903225806,1.31935483870968,1.40645161290323,1.41935483870968,1.4,1.4258064516129,1.48709677419355,1.51290322580645,1.50322580645161,1.47096774193548,1.45806451612903,1.39354838709677,1.34838709677419,1.33548387096774,1.34516129032258,1.36451612903226,1.34193548387097,1.30967741935484,1.49032258064516,1.71935483870968,2.3258064516129,2.8258064516129,2.59354838709677,1.25806451612903,1.00322580645161,1.21612903225806,1.35483870967742,1.38709677419355,1.36451612903226,1.35483870967742,1.36774193548387,1.38387096774194,1.39032258064516,1.40322580645161,1.4,1.43225806451613,1.45806451612903,1.47741935483871,1.4741935483871,1.48709677419355,1.49677419354839,1.52903225806452,1.56774193548387,1.57096774193548,1.6,1.65161290322581,1.69354838709677,1.71935483870968,1.75483870967742,1.77096774193548,1.80645161290323,1.83870967741935,1.83548387096774,1.8258064516129,1.8,1.80322580645161,1.73870967741935,1.6741935483871,1.58387096774194,1.51290322580645,1.45806451612903,1.39032258064516,1.35806451612903,1.31290322580645,1.30967741935484,1.31612903225806,1.27741935483871,1.30645161290323,1.31935483870968,1.29677419354839,1.31612903225806,1.3,1.30645161290323,1.30322580645161,1.28064516129032,1.29677419354839,1.3,1.29354838709677,1.27096774193548,1.29354838709677,1.28387096774194,1.27096774193548,1.25483870967742,1.25483870967742,1.25161290322581,1.26774193548387,1.24516129032258,1.24838709677419,1.24193548387097,1.2258064516129,1.23870967741935,1.24193548387097,1.22903225806452,1.2258064516129,1.22258064516129,1.24193548387097,1.23225806451613,1.24838709677419,1.25161290322581,1.22903225806452,1.23870967741935,1.24193548387097,1.24516129032258,1.24838709677419,1.23870967741935,1.24193548387097,1.24838709677419,1.29032258064516,1.26451612903226,1.2741935483871,1.32903225806452,1.33225806451613,1.35806451612903,1.33225806451613,1.36451612903226,1.43548387096774,1.44193548387097,1.39354838709677,1.37096774193548,1.34193548387097,1.30645161290323,1.25161290322581,1.26129032258065,1.25483870967742,1.26129032258065,1.21612903225806,1.24193548387097,1.48387096774194,1.86774193548387,2.50645161290323,2.84516129032258,1.84193548387097,0.829032258064516,0.983870967741935,1.21290322580645,1.24193548387097,1.21612903225806,1.21290322580645,1.22258064516129,1.22903225806452,1.24838709677419,1.23225806451613,1.26129032258065,1.28709677419355,1.31612903225806,1.31612903225806,1.34193548387097,1.34838709677419,1.35483870967742,1.37096774193548,1.41290322580645,1.46129032258065,1.47096774193548,1.48387096774194,1.51612903225806,1.57741935483871,1.61935483870968,1.67096774193548,1.67741935483871,1.69677419354839,1.7258064516129,1.73548387096774,1.75483870967742,1.71612903225806,1.66774193548387,1.62903225806452,1.53225806451613,1.45483870967742,1.39677419354839,1.3258064516129,1.27741935483871,1.23225806451613,1.20645161290323,1.17741935483871,1.16774193548387,1.15161290322581,1.15483870967742,1.16451612903226,1.1741935483871,1.16774193548387,1.16129032258065,1.17096774193548,1.2,1.19032258064516,1.19677419354839,1.19354838709677,1.19677419354839,1.21935483870968,1.21612903225806,1.20645161290323,1.21290322580645,1.20645161290323,1.21612903225806,1.20645161290323,1.20967741935484,1.20322580645161,1.20645161290323,1.22903225806452,1.23548387096774,1.21612903225806,1.24516129032258,1.26451612903226,1.26129032258065,1.26451612903226,1.26451612903226,1.26774193548387,1.27741935483871,1.28709677419355,1.29677419354839,1.30322580645161,1.31290322580645,1.31612903225806,1.32903225806452,1.32903225806452,1.35161290322581,1.36774193548387,1.38709677419355,1.4258064516129,1.45806451612903,1.41612903225806,1.50322580645161,1.54516129032258,1.55483870967742,1.53870967741935,1.51290322580645,1.46774193548387,1.43225806451613,1.38387096774194,1.40967741935484,1.41612903225806,1.41935483870968,1.36451612903226,1.44193548387097,1.70645161290323,2.22903225806452,2.86451612903226,2.88387096774194,1.99032258064516,1.00967741935484,1.24516129032258,1.52258064516129,1.48387096774194,1.43225806451613,1.46774193548387,1.49032258064516,1.48709677419355,1.50322580645161,1.52903225806452,1.5741935483871,1.56774193548387,1.58709677419355,1.60645161290323,1.61290322580645,1.64193548387097,1.65806451612903,1.68709677419355,1.71612903225806,1.70967741935484,1.78387096774194,1.79677419354839,1.80967741935484,1.85161290322581,1.90967741935484,1.93870967741935,1.96451612903226,1.98709677419355,1.97096774193548,1.9741935483871,1.95483870967742,1.89354838709677,1.85161290322581,1.76129032258065,1.65806451612903,1.54193548387097,1.45161290322581,1.37096774193548,1.32903225806452,1.29677419354839,1.25161290322581,1.23870967741935,1.22258064516129,1.19677419354839,1.21935483870968,1.21290322580645,1.20967741935484,1.19677419354839,1.18709677419355,1.20322580645161,1.19354838709677,1.2,1.20645161290323,1.2,1.20645161290323,1.21290322580645,1.18064516129032,1.18709677419355,1.18064516129032,1.18709677419355,1.17741935483871,1.15483870967742,1.15806451612903,1.17741935483871,1.14193548387097,1.14838709677419,1.14838709677419,1.16774193548387,1.13225806451613,1.12903225806452,1.16451612903226,1.15483870967742,1.13225806451613,1.13225806451613,1.1258064516129,1.13548387096774,1.12258064516129,1.15161290322581,1.14838709677419,1.15161290322581,1.15483870967742,1.14516129032258,1.2,1.23225806451613,1.21612903225806,1.22258064516129,1.27741935483871,1.33870967741935,1.33548387096774,1.28709677419355,1.27741935483871,1.22258064516129,1.17096774193548,1.18064516129032,1.18064516129032,1.17096774193548,1.17741935483871,1.13225806451613,1.2,1.46451612903226,1.95483870967742,2.53548387096774,2.71612903225806,1.45483870967742,0.758064516129032,0.990322580645161,1.18709677419355,1.20967741935484,1.15483870967742,1.16129032258065,1.16451612903226,1.18387096774194,1.19677419354839,1.19354838709677,1.23870967741935,1.26129032258065,1.24838709677419,1.29354838709677,1.3,1.29354838709677,1.33870967741935,1.34838709677419,1.40322580645161,1.41935483870968,1.44838709677419,1.4741935483871,1.53870967741935,1.58064516129032,1.61935483870968,1.6741935483871,1.72903225806452,1.73225806451613,1.76451612903226,1.73548387096774,1.74838709677419,1.72903225806452,1.66774193548387,1.62258064516129,1.53870967741935,1.4258064516129,1.36129032258065,1.30645161290323,1.2741935483871,1.20645161290323,1.2,1.24516129032258,1.21935483870968,1.2,1.2,1.20967741935484,1.22903225806452,1.21935483870968,1.23548387096774,1.25806451612903,1.23870967741935,1.26774193548387,1.29354838709677,1.28064516129032,1.3,1.32258064516129,1.31290322580645,1.31612903225806,1.33548387096774,1.3258064516129,1.33548387096774,1.32903225806452,1.32903225806452,1.33225806451613,1.30645161290323,1.30967741935484,1.36129032258065,1.33870967741935,1.33225806451613,1.34516129032258,1.36129032258065,1.36774193548387,1.3741935483871,1.4258064516129,1.45161290322581,1.46129032258065,1.44193548387097,1.51935483870968,1.53548387096774,1.54193548387097,1.51290322580645,1.47741935483871,1.41290322580645,1.35161290322581,1.36451612903226,1.37096774193548,1.36774193548387,1.36774193548387,1.30967741935484,1.45161290322581,1.73870967741935,2.33548387096774,2.84193548387097,2.68709677419355,1.36129032258065,0.996774193548387,1.20645161290323,1.35806451612903,1.40645161290323,1.34193548387097,1.35161290322581,1.38709677419355,1.36774193548387,1.36451612903226,1.41935483870968,1.41290322580645,1.42903225806452,1.43870967741935,1.47741935483871,1.4741935483871,1.47096774193548,1.4741935483871,1.52903225806452,1.56451612903226,1.59677419354839,1.61612903225806,1.63870967741935,1.68064516129032,1.74838709677419,1.76451612903226,1.79354838709677,1.85161290322581,1.84516129032258,1.86129032258065,1.85806451612903,1.84193548387097,1.8,1.7258064516129,1.64516129032258,1.53225806451613,1.44838709677419,1.40645161290323,1.34193548387097,1.31612903225806,1.2741935483871,1.25806451612903,1.26774193548387,1.25806451612903,1.26774193548387,1.24193548387097,1.24838709677419,1.28064516129032,1.26774193548387,1.2741935483871,1.27096774193548,1.26129032258065,1.28387096774194,1.28387096774194,1.3,1.30322580645161,1.3,1.2741935483871,1.27741935483871,1.29032258064516,1.29677419354839,1.28709677419355,1.28709677419355,1.29032258064516,1.29677419354839,1.26451612903226,1.26129032258065,1.27741935483871,1.26774193548387,1.27741935483871,1.27741935483871,1.26774193548387,1.26451612903226,1.25483870967742,1.28387096774194,1.27096774193548,1.26774193548387,1.29032258064516,1.31290322580645,1.36451612903226,1.39032258064516,1.36451612903226,1.35806451612903,1.44838709677419,1.45483870967742,1.41612903225806,1.40645161290323,1.34838709677419,1.28387096774194,1.27096774193548,1.25806451612903,1.24193548387097,1.24193548387097,1.22258064516129,1.20322580645161,1.43225806451613,1.78064516129032,2.46774193548387,2.77741935483871,2.29677419354839,0.92258064516129,0.893548387096774,1.21290322580645,1.25161290322581,1.18387096774194,1.19354838709677,1.17741935483871,1.20645161290323,1.2,1.20967741935484,1.22903225806452,1.22258064516129,1.25161290322581,1.25483870967742,1.27096774193548,1.29354838709677,1.3,1.33548387096774,1.35483870967742,1.3741935483871,1.41290322580645,1.42903225806452,1.46774193548387,1.5258064516129,1.58064516129032,1.61612903225806,1.65483870967742,1.68387096774194,1.71612903225806,1.7,1.67741935483871,1.68064516129032,1.62903225806452,1.54838709677419,1.45483870967742,1.36451612903226,1.2741935483871,1.20645161290323,1.16451612903226,1.16774193548387,1.13548387096774,1.1,1.11290322580645,1.11935483870968,1.09032258064516,1.14193548387097,1.15161290322581,1.15806451612903,1.15806451612903,1.16451612903226,1.19032258064516,1.20322580645161,1.22258064516129,1.23870967741935,1.23225806451613,1.2258064516129,1.25806451612903,1.23548387096774,1.25483870967742,1.28387096774194,1.26451612903226,1.29032258064516,1.30322580645161,1.28709677419355,1.31612903225806,1.33225806451613,1.30967741935484,1.31935483870968,1.3258064516129,1.34516129032258,1.35161290322581,1.33870967741935,1.34516129032258,1.35806451612903,1.37741935483871,1.36774193548387,1.37741935483871,1.3741935483871,1.37096774193548,1.38709677419355,1.35806451612903,1.35806451612903,1.38064516129032,1.40322580645161,1.41935483870968,1.45483870967742,1.43870967741935,1.46129032258065,1.51612903225806,1.51612903225806,1.50967741935484,1.4741935483871,1.40322580645161,1.33225806451613,1.30645161290323,1.31935483870968,1.33225806451613,1.35161290322581,1.3258064516129,1.28387096774194,1.49677419354839,1.83870967741935,2.54516129032258,2.9,2.51935483870968,1.08709677419355,1.05161290322581,1.39677419354839,1.43548387096774,1.35806451612903,1.35161290322581,1.35806451612903,1.38387096774194,1.40322580645161,1.40322580645161,1.41290322580645,1.42903225806452,1.43225806451613,1.46774193548387,1.49354838709677,1.49354838709677,1.50322580645161,1.53548387096774,1.50967741935484,1.54838709677419,1.59677419354839,1.64193548387097,1.66451612903226,1.72258064516129,1.79032258064516,1.82258064516129,1.85806451612903,1.89677419354839,1.90322580645161,1.90645161290323,1.90967741935484,1.87096774193548,1.83870967741935,1.74516129032258,1.65161290322581,1.54516129032258,1.44516129032258,1.38064516129032,1.31612903225806,1.27096774193548,1.24193548387097,1.20967741935484,1.23548387096774,1.20322580645161,1.21290322580645,1.20967741935484,1.20322580645161,1.19677419354839,1.16774193548387,1.1741935483871,1.19677419354839,1.19032258064516,1.20967741935484,1.20322580645161,1.20645161290323,1.20645161290323,1.20967741935484,1.20645161290323,1.21935483870968,1.24516129032258,1.23870967741935,1.2258064516129,1.23548387096774,1.21290322580645,1.2258064516129,1.22258064516129,1.20645161290323,1.22258064516129,1.22903225806452,1.22903225806452,1.21612903225806,1.25806451612903,1.25483870967742,1.25161290322581,1.25161290322581,1.23225806451613,1.26451612903226,1.3,1.25806451612903,1.28709677419355,1.29032258064516,1.28387096774194,1.29032258064516,1.31290322580645,1.32258064516129,1.29677419354839,1.29354838709677,1.30645161290323,1.3258064516129,1.33225806451613,1.34193548387097,1.3741935483871,1.40967741935484,1.39354838709677,1.38709677419355,1.4741935483871,1.49354838709677,1.48387096774194,1.44516129032258,1.39677419354839,1.36774193548387,1.33225806451613,1.31290322580645,1.3,1.32903225806452,1.32258064516129,1.25161290322581,1.41935483870968,1.72258064516129,2.30645161290323,2.83225806451613,2.5741935483871,1.2258064516129,0.948387096774194,1.19677419354839,1.33548387096774,1.32903225806452,1.29354838709677,1.30322580645161,1.3258064516129,1.3258064516129,1.30967741935484,1.35483870967742,1.36129032258065,1.33225806451613,1.36451612903226,1.35806451612903,1.36774193548387,1.37096774193548,1.40645161290323,1.39677419354839,1.4,1.44193548387097,1.46129032258065,1.4741935483871,1.48064516129032,1.50967741935484,1.55483870967742,1.58064516129032,1.59032258064516,1.60322580645161,1.59677419354839,1.52903225806452,1.5258064516129,1.46129032258065,1.38387096774194,1.28387096774194,1.15483870967742,1.06129032258065,0.935483870967742
1.68064516129032,1.70645161290323,1.71290322580645,1.71935483870968,1.71612903225806,1.70645161290323,1.65483870967742,1.59354838709677,1.53225806451613,1.46774193548387,1.40645161290323,1.3258064516129,1.30322580645161,1.25806451612903,1.26774193548387,1.25161290322581,1.24516129032258,1.20967741935484,1.25161290322581,1.26774193548387,1.29677419354839,1.29032258064516,1.29677419354839,1.31290322580645,1.30967741935484,1.30967741935484,1.29677419354839,1.30967741935484,1.30645161290323,1.2741935483871,1.31612903225806,1.3258064516129,1.31612903225806,1.32903225806452,1.30645161290323,1.31935483870968,1.31290322580645,1.32258064516129,1.3,1.31935483870968,1.33225806451613,1.31935483870968,1.31612903225806,1.31935483870968,1.33870967741935,1.34838709677419,1.33870967741935,1.32903225806452,1.33225806451613,1.31612903225806,1.32903225806452,1.33870967741935,1.32258064516129,1.33225806451613,1.30967741935484,1.32903225806452,1.34838709677419,1.33548387096774,1.33870967741935,1.36451612903226,1.38709677419355,1.40967741935484,1.36451612903226,1.45161290322581,1.47741935483871,1.4741935483871,1.43548387096774,1.40967741935484,1.35161290322581,1.33225806451613,1.31935483870968,1.29677419354839,1.31935483870968,1.35161290322581,1.26129032258065,1.39677419354839,1.6741935483871,2.25483870967742,2.87741935483871,2.80967741935484,1.4,0.909677419354839,1.24838709677419,1.4258064516129,1.38387096774194,1.3741935483871,1.37741935483871,1.40645161290323,1.39677419354839,1.39677419354839,1.41935483870968,1.44838709677419,1.48064516129032,1.47741935483871,1.49354838709677,1.52258064516129,1.55161290322581,1.58387096774194,1.56129032258065,1.59354838709677,1.61935483870968,1.63225806451613,1.68064516129032,1.71290322580645,1.74838709677419,1.77741935483871,1.80967741935484,1.86451612903226,1.87096774193548,1.8741935483871,1.86129032258065,1.8258064516129,1.81290322580645,1.80322580645161,1.7,1.60967741935484,1.52258064516129,1.45161290322581,1.3741935483871,1.28709677419355,1.28709677419355,1.26774193548387,1.21290322580645,1.23870967741935,1.24838709677419,1.20645161290323,1.20967741935484,1.22258064516129,1.20967741935484,1.20645161290323,1.21935483870968,1.1741935483871,1.20322580645161,1.2,1.19354838709677,1.20322580645161,1.17741935483871,1.24193548387097,1.27096774193548,1.23870967741935,1.28387096774194,1.32903225806452,1.35161290322581,1.37741935483871,1.41612903225806,1.45483870967742,1.48387096774194,1.51935483870968,1.5741935483871,1.42258064516129,1.4,1.35806451612903,1.28709677419355,1.17741935483871,1.16129032258065,1.08387096774194,1.0741935483871,1.1,1.07741935483871,1.15161290322581,1.11612903225806,1.14838709677419,1.15806451612903,1.17096774193548,1.23548387096774,1.20967741935484,1.23548387096774,1.26129032258065,1.21290322580645,1.26451612903226,1.23870967741935,1.21612903225806,1.21935483870968,1.09354838709677,1.08709677419355,0.961290322580645,0.951612903225806,0.980645161290323,0.967741935483871,1.04193548387097,0.92258064516129,1.04838709677419,1.33548387096774,1.78387096774194,2.49354838709677,2.66774193548387,1.48064516129032,0.732258064516129,0.906451612903226,1.21612903225806,1.20322580645161,1.15806451612903,1.19032258064516,1.20967741935484,1.27741935483871,1.28064516129032,1.31935483870968,1.37096774193548,1.36129032258065,1.41290322580645,1.4258064516129,1.49032258064516,1.55806451612903,1.56774193548387,1.6258064516129,1.60322580645161,1.65483870967742,1.71935483870968,1.7,1.80322580645161,1.78387096774194,1.8258064516129,1.89677419354839,1.88064516129032,1.96129032258065,1.93225806451613,1.94516129032258,1.95161290322581,1.87096774193548,1.89354838709677,1.7741935483871,1.7,1.6258064516129,1.49354838709677,1.46451612903226,1.34516129032258,1.30967741935484,1.29677419354839,1.22903225806452,1.27741935483871,1.2,1.19677419354839,1.18709677419355,1.13225806451613,1.19032258064516,1.11290322580645,1.09677419354839,1.08709677419355,1.04516129032258,1.1,1.08064516129032,1.08709677419355,1.10967741935484,1.08387096774194,1.16129032258065,1.11290322580645,1.13870967741935,1.13225806451613,1.09032258064516,1.14516129032258,1.1258064516129,1.11612903225806,1.09677419354839,1.0741935483871,1.14516129032258,1.12903225806452,1.14516129032258,1.1741935483871,1.14193548387097,1.20645161290323,1.19354838709677,1.18387096774194,1.22903225806452,1.19677419354839,1.30322580645161,1.27096774193548,1.28387096774194,1.34193548387097,1.33225806451613,1.38709677419355,1.35806451612903,1.44838709677419,1.5741935483871,1.55483870967742,1.57741935483871,1.56129032258065,1.58387096774194,1.55161290322581,1.53870967741935,1.60645161290323,1.58064516129032,1.60645161290323,1.53548387096774,1.67741935483871,1.95161290322581,2.5258064516129,2.75161290322581,2.75161290322581,1.84838709677419,1.09354838709677,1.37096774193548,1.62258064516129,1.58064516129032,1.50967741935484,1.50645161290323,1.46451612903226,1.44193548387097,1.49354838709677,1.49354838709677,1.46774193548387,1.48709677419355,1.49032258064516,1.50967741935484,1.50967741935484,1.51612903225806,1.54516129032258,1.53548387096774,1.53225806451613,1.56451612903226,1.6,1.62903225806452,1.65483870967742,1.69354838709677,1.74838709677419,1.76774193548387,1.79677419354839,1.80645161290323,1.81612903225806,1.76129032258065,1.7741935483871,1.75161290322581,1.68387096774194,1.63225806451613,1.52903225806452,1.45806451612903,1.35806451612903,1.29032258064516,1.26129032258065,1.22258064516129,1.19354838709677,1.19032258064516,1.17741935483871,1.18064516129032,1.18709677419355,1.16774193548387,1.19354838709677,1.22258064516129,1.20967741935484,1.20322580645161,1.21612903225806,1.21290322580645,1.20967741935484,1.20967741935484,1.21290322580645,1.2258064516129,1.21612903225806,1.2,1.22903225806452,1.21612903225806,1.20967741935484,1.20967741935484,1.20967741935484,1.21935483870968,1.20967741935484,1.19032258064516,1.21612903225806,1.23548387096774,1.21290322580645,1.19677419354839,1.21935483870968,1.21612903225806,1.20322580645161,1.27096774193548,1.31290322580645,1.30645161290323,1.29677419354839,1.36129032258065,1.40645161290323,1.40322580645161,1.35161290322581,1.33548387096774,1.26451612903226,1.2,1.18387096774194,1.19354838709677,1.21612903225806,1.22258064516129,1.15161290322581,1.35806451612903,1.68064516129032,2.29677419354839,2.71935483870968,2.29677419354839,1.0258064516129,0.864516129032258,1.1258064516129,1.28064516129032,1.26451612903226,1.23225806451613,1.22258064516129,1.24193548387097,1.25161290322581,1.2741935483871,1.28709677419355,1.29032258064516,1.32258064516129,1.32903225806452,1.35161290322581,1.37096774193548,1.36774193548387,1.39354838709677,1.41290322580645,1.45806451612903,1.48709677419355,1.5,1.54193548387097,1.58064516129032,1.6,1.65806451612903,1.69354838709677,1.71612903225806,1.71612903225806,1.74516129032258,1.73870967741935,1.69032258064516,1.6741935483871,1.60645161290323,1.54193548387097,1.48064516129032,1.4,1.32903225806452,1.28387096774194,1.25806451612903,1.23870967741935,1.2258064516129,1.22258064516129,1.21935483870968,1.23225806451613,1.26129032258065,1.28064516129032,1.2741935483871,1.24516129032258,1.25806451612903,1.28064516129032,1.24838709677419,1.24838709677419,1.25806451612903,1.26451612903226,1.25483870967742,1.23548387096774,1.24193548387097,1.24838709677419,1.26129032258065,1.24838709677419,1.25483870967742,1.26129032258065,1.26451612903226,1.26774193548387,1.25483870967742,1.27096774193548,1.28064516129032,1.25161290322581,1.27096774193548,1.27741935483871,1.26451612903226,1.27741935483871,1.29032258064516,1.34516129032258,1.39354838709677,1.39677419354839,1.36774193548387,1.43870967741935,1.49677419354839,1.44838709677419,1.4258064516129,1.39354838709677,1.32258064516129,1.29032258064516,1.25806451612903,1.26774193548387,1.30645161290323,1.3,1.24838709677419,1.43548387096774,1.71935483870968,2.31612903225806,2.75806451612903,2.34193548387097,1.03870967741935,0.906451612903226,1.25806451612903,1.40967741935484,1.34838709677419,1.31612903225806,1.30967741935484,1.33870967741935,1.33870967741935,1.35806451612903,1.36451612903226,1.38709677419355,1.42258064516129,1.43548387096774,1.4258064516129,1.44838709677419,1.47741935483871,1.46451612903226,1.49032258064516,1.50645161290323,1.5258064516129,1.56129032258065,1.60322580645161,1.63548387096774,1.67096774193548,1.70322580645161,1.74193548387097,1.76774193548387,1.79677419354839,1.76451612903226,1.74193548387097,1.74193548387097,1.72258064516129,1.64193548387097,1.55806451612903,1.50967741935484,1.43225806451613,1.35806451612903,1.32903225806452,1.2741935483871,1.26129032258065,1.25483870967742,1.25483870967742,1.22258064516129,1.26451612903226,1.25483870967742,1.23548387096774,1.26774193548387,1.28387096774194,1.2741935483871,1.26451612903226,1.25483870967742,1.27096774193548,1.24838709677419,1.25483870967742,1.27741935483871,1.26129032258065,1.28709677419355,1.25483870967742,1.26129032258065,1.2741935483871,1.24838709677419,1.26774193548387,1.25806451612903,1.25806451612903,1.25161290322581,1.24838709677419,1.28709677419355,1.33548387096774,1.36451612903226,1.36451612903226,1.35161290322581,1.4258064516129,1.45806451612903,1.43548387096774,1.39032258064516,1.36129032258065,1.3,1.25161290322581,1.22903225806452,1.24838709677419,1.24516129032258,1.22903225806452,1.16451612903226,1.35806451612903,1.66129032258065,2.29677419354839,2.82258064516129,2.43548387096774,1,0.841935483870968,1.19354838709677,1.31612903225806,1.25806451612903,1.22258064516129,1.23548387096774,1.23225806451613,1.24193548387097,1.27741935483871,1.31290322580645,1.31935483870968,1.32258064516129,1.3258064516129,1.36774193548387,1.38064516129032,1.38064516129032,1.40967741935484,1.46129032258065,1.4741935483871,1.48709677419355,1.50967741935484,1.54838709677419,1.59677419354839,1.63225806451613,1.6741935483871,1.71935483870968,1.71935483870968,1.75161290322581,1.73870967741935,1.71935483870968,1.70967741935484,1.66451612903226,1.6258064516129,1.52258064516129,1.45161290322581,1.38709677419355,1.32258064516129,1.28064516129032,1.24838709677419,1.2258064516129,1.22258064516129,1.20645161290323,1.2258064516129,1.23225806451613,1.24516129032258,1.23870967741935,1.24193548387097,1.26774193548387,1.27096774193548,1.26774193548387,1.28064516129032,1.26129032258065,1.27096774193548,1.3,1.3,1.28387096774194,1.27096774193548,1.26129032258065,1.28064516129032,1.27741935483871,1.28709677419355,1.27741935483871,1.29677419354839,1.2741935483871,1.26129032258065,1.29032258064516,1.31290322580645,1.35161290322581,1.39032258064516,1.40645161290323,1.40645161290323,1.48064516129032,1.50967741935484,1.49032258064516,1.44838709677419,1.4,1.32903225806452,1.28387096774194,1.27741935483871,1.29032258064516,1.3,1.27096774193548,1.23870967741935,1.41290322580645,1.74516129032258,2.40967741935484,2.8741935483871,2.35806451612903,0.980645161290323,0.938709677419355,1.31612903225806,1.37096774193548,1.31935483870968,1.30322580645161,1.29354838709677,1.30645161290323,1.30645161290323,1.3258064516129,1.35161290322581,1.35483870967742,1.38709677419355,1.39677419354839,1.41935483870968,1.43548387096774,1.43870967741935,1.46129032258065,1.44838709677419,1.51290322580645,1.52903225806452,1.54838709677419,1.59032258064516,1.61935483870968,1.65161290322581,1.68064516129032,1.71612903225806,1.74193548387097,1.74516129032258,1.74516129032258,1.73548387096774,1.67741935483871,1.66129032258065,1.60645161290323,1.5258064516129,1.43225806451613,1.3741935483871,1.31935483870968,1.25483870967742,1.24193548387097,1.23225806451613,1.18709677419355,1.18709677419355,1.19032258064516,1.2258064516129,1.22903225806452,1.2258064516129,1.21612903225806,1.23870967741935,1.23225806451613,1.2258064516129,1.24516129032258,1.24193548387097,1.23225806451613,1.23225806451613,1.25806451612903,1.24193548387097,1.23548387096774,1.26129032258065,1.23870967741935,1.24838709677419,1.25806451612903,1.25483870967742,1.23548387096774,1.24838709677419,1.24838709677419,1.24838709677419,1.22903225806452,1.25161290322581,1.28709677419355,1.26451612903226,1.2741935483871,1.31290322580645,1.31612903225806,1.33548387096774,1.34193548387097,1.40322580645161,1.43548387096774,1.41935483870968,1.4,1.34516129032258,1.26451612903226,1.25483870967742,1.22258064516129,1.24193548387097,1.25806451612903,1.23548387096774,1.20322580645161,1.39032258064516,1.7258064516129,2.39354838709677,2.8,2.15161290322581,0.903225806451613,0.909677419354839,1.16129032258065,1.27741935483871,1.26129032258065,1.23225806451613,1.24516129032258,1.25161290322581,1.29032258064516,1.31290322580645,1.27741935483871,1.31290322580645,1.3258064516129,1.35806451612903,1.37096774193548,1.37741935483871,1.40645161290323,1.41935483870968,1.44838709677419,1.46451612903226,1.49354838709677,1.53548387096774,1.56129032258065,1.57096774193548,1.62903225806452,1.68387096774194,1.69677419354839,1.69354838709677,1.69354838709677,1.70322580645161,1.7,1.67741935483871,1.65161290322581,1.6,1.54838709677419,1.46451612903226,1.42258064516129,1.35483870967742,1.31290322580645,1.29032258064516,1.29354838709677,1.28064516129032,1.28387096774194,1.2741935483871,1.25806451612903,1.29032258064516,1.31612903225806,1.28387096774194,1.29032258064516,1.30322580645161,1.30967741935484,1.3,1.31290322580645,1.30645161290323,1.29677419354839,1.3258064516129,1.30967741935484,1.33225806451613,1.31612903225806,1.3,1.26451612903226,1.30322580645161,1.3,1.30322580645161,1.27741935483871,1.28064516129032,1.30645161290323,1.29032258064516,1.27741935483871,1.29354838709677,1.3,1.29677419354839,1.29677419354839,1.30322580645161,1.37096774193548,1.36774193548387,1.39354838709677,1.39677419354839,1.44193548387097,1.47741935483871,1.46129032258065,1.42903225806452,1.4,1.34838709677419,1.29354838709677,1.28387096774194,1.28709677419355,1.3,1.29032258064516,1.22903225806452,1.38064516129032,1.69354838709677,2.3258064516129,2.87096774193548,2.61290322580645,1.16129032258065,0.906451612903226,1.24838709677419,1.37096774193548,1.32903225806452,1.29354838709677,1.30645161290323,1.29354838709677,1.32258064516129,1.33548387096774,1.34838709677419,1.34838709677419,1.3741935483871,1.37741935483871,1.39032258064516,1.42903225806452,1.46129032258065,1.4741935483871,1.49032258064516,1.50967741935484,1.52903225806452,1.55806451612903,1.59354838709677,1.63548387096774,1.65161290322581,1.69354838709677,1.73225806451613,1.72903225806452,1.76451612903226,1.75161290322581,1.74838709677419,1.7258064516129,1.6741935483871,1.62903225806452,1.57741935483871,1.49677419354839,1.43548387096774,1.38064516129032,1.30322580645161,1.28387096774194,1.2741935483871,1.26451612903226,1.24838709677419,1.27096774193548,1.2741935483871,1.24838709677419,1.24193548387097,1.27096774193548,1.28709677419355,1.2741935483871,1.26774193548387,1.29354838709677,1.29677419354839,1.30645161290323,1.30322580645161,1.29032258064516,1.2741935483871,1.29354838709677,1.28064516129032,1.26129032258065,1.25161290322581,1.27741935483871,1.27741935483871,1.27096774193548,1.26129032258065,1.25483870967742,1.29032258064516,1.27741935483871,1.24516129032258,1.26129032258065,1.26451612903226,1.28387096774194,1.28387096774194,1.27096774193548,1.28387096774194,1.2741935483871,1.29032258064516,1.3,1.2741935483871,1.28387096774194,1.34193548387097,1.36129032258065,1.38064516129032,1.35161290322581,1.39032258064516,1.44516129032258,1.46774193548387,1.43225806451613,1.39677419354839,1.33548387096774,1.26774193548387,1.26129032258065,1.27741935483871,1.26774193548387,1.28387096774194,1.19032258064516,1.29354838709677,1.55483870967742,2.03548387096774,2.72258064516129,2.85806451612903,1.58387096774194,0.793548387096774,1.10967741935484,1.35483870967742,1.3,1.27096774193548,1.29032258064516,1.26129032258065,1.25806451612903,1.29032258064516,1.30645161290323,1.33225806451613,1.33870967741935,1.35161290322581,1.36129032258065,1.4,1.40645161290323,1.40967741935484,1.44838709677419,1.45806451612903,1.50322580645161,1.5,1.53870967741935,1.59677419354839,1.61612903225806,1.63225806451613,1.64838709677419,1.68064516129032,1.70967741935484,1.68064516129032,1.69354838709677,1.69032258064516,1.6741935483871,1.62258064516129,1.53870967741935,1.44838709677419,1.4,1.36129032258065,1.29032258064516,1.24516129032258,1.21935483870968,1.20645161290323,1.21935483870968,1.21290322580645,1.22258064516129,1.23870967741935,1.23225806451613,1.23225806451613,1.25161290322581,1.24838709677419,1.2741935483871,1.27096774193548,1.26451612903226,1.27741935483871,1.27096774193548,1.29354838709677,1.28709677419355,1.27741935483871,1.3,1.29032258064516,1.26774193548387,1.25806451612903,1.2741935483871,1.29354838709677,1.2741935483871,1.27741935483871,1.29032258064516,1.29032258064516,1.2741935483871,1.29032258064516,1.29032258064516,1.29032258064516,1.29354838709677,1.28387096774194,1.28387096774194,1.29032258064516,1.30322580645161,1.31290322580645,1.31290322580645,1.30967741935484,1.31935483870968,1.33870967741935,1.31612903225806,1.32258064516129,1.36451612903226,1.40322580645161,1.4,1.39677419354839,1.44838709677419,1.50967741935484,1.53225806451613,1.49354838709677,1.46774193548387,1.40967741935484,1.34193548387097,1.33225806451613,1.33225806451613,1.34193548387097,1.33225806451613,1.28387096774194,1.33225806451613,1.57741935483871,2.04838709677419,2.73225806451613,2.95161290322581,1.90322580645161,0.906451612903226,1.1258064516129,1.40967741935484,1.3741935483871,1.32903225806452,1.32258064516129,1.34193548387097,1.34516129032258,1.34516129032258,1.36451612903226,1.35483870967742,1.38709677419355,1.42258064516129,1.40645161290323,1.41935483870968,1.43870967741935,1.44838709677419,1.48387096774194,1.49032258064516,1.51935483870968,1.55161290322581,1.55806451612903,1.60322580645161,1.64516129032258,1.68709677419355,1.69354838709677,1.7258064516129,1.75483870967742,1.71612903225806,1.72903225806452,1.74193548387097,1.70967741935484,1.66774193548387,1.62258064516129,1.54838709677419,1.47096774193548,1.40322580645161,1.33225806451613,1.29032258064516,1.25806451612903,1.22903225806452,1.21935483870968,1.23548387096774,1.2258064516129,1.24838709677419,1.25483870967742,1.25161290322581,1.24193548387097,1.24193548387097,1.26774193548387,1.25806451612903,1.23870967741935,1.26129032258065,1.26129032258065,1.25806451612903,1.2741935483871,1.26774193548387,1.25483870967742,1.24516129032258,1.27096774193548,1.25806451612903,1.23225806451613,1.25161290322581,1.25806451612903,1.22903225806452,1.22903225806452,1.25161290322581,1.26774193548387,1.25161290322581,1.25806451612903,1.25806451612903,1.27096774193548,1.26774193548387,1.24838709677419,1.27741935483871,1.26774193548387,1.2741935483871,1.28709677419355,1.2741935483871,1.28709677419355,1.29677419354839,1.30322580645161,1.2741935483871,1.29032258064516,1.30645161290323,1.31290322580645,1.34193548387097,1.39032258064516,1.38709677419355,1.38709677419355,1.46129032258065,1.49032258064516,1.4741935483871,1.41290322580645,1.36129032258065,1.29354838709677,1.26451612903226,1.28709677419355,1.29677419354839,1.29354838709677,1.26451612903226,1.26774193548387,1.48064516129032,1.8741935483871,2.58064516129032,2.9,2.04193548387097,0.903225806451613,1.01290322580645,1.31290322580645,1.33870967741935,1.25806451612903,1.27096774193548,1.27741935483871,1.27741935483871,1.28387096774194,1.31290322580645,1.33225806451613,1.31935483870968,1.36774193548387,1.38064516129032,1.36451612903226,1.40645161290323,1.4258064516129,1.42903225806452,1.45806451612903,1.47741935483871,1.53548387096774,1.55161290322581,1.58709677419355,1.62903225806452,1.65806451612903,1.68064516129032,1.71612903225806,1.73548387096774,1.73225806451613,1.72903225806452,1.71935483870968,1.72903225806452,1.69032258064516,1.63870967741935,1.56451612903226,1.51290322580645,1.43548387096774,1.37096774193548,1.30322580645161,1.27096774193548,1.27096774193548,1.23548387096774,1.23870967741935,1.25161290322581,1.25806451612903,1.26451612903226,1.26129032258065,1.26774193548387,1.27741935483871,1.28064516129032,1.29354838709677,1.29032258064516,1.31290322580645,1.30645161290323,1.29354838709677,1.30322580645161,1.30967741935484,1.31612903225806,1.30322580645161,1.29677419354839,1.30322580645161,1.32258064516129,1.30645161290323,1.31612903225806,1.30645161290323,1.32903225806452,1.33225806451613,1.33225806451613,1.33225806451613,1.35161290322581,1.33870967741935,1.32903225806452,1.34838709677419,1.39677419354839,1.38709677419355,1.37741935483871,1.39032258064516,1.40322580645161,1.41290322580645,1.41290322580645,1.41935483870968,1.40967741935484,1.41290322580645,1.40645161290323,1.41290322580645,1.4258064516129,1.4258064516129,1.48709677419355,1.52903225806452,1.54193548387097,1.50967741935484,1.5741935483871
1.45806451612903,1.44516129032258,1.43225806451613,1.39677419354839,1.39677419354839,1.40645161290323,1.4,1.42903225806452,1.42903225806452,1.42258064516129,1.42903225806452,1.42903225806452,1.43548387096774,1.43548387096774,1.4258064516129,1.4258064516129,1.40322580645161,1.40967741935484,1.41612903225806,1.36774193548387,1.4,1.40322580645161,1.3741935483871,1.39032258064516,1.37096774193548,1.36451612903226,1.36774193548387,1.36774193548387,1.34516129032258,1.34193548387097,1.35806451612903,1.34838709677419,1.35161290322581,1.34516129032258,1.33870967741935,1.36129032258065,1.33870967741935,1.32903225806452,1.33548387096774,1.33548387096774,1.35483870967742,1.34516129032258,1.33225806451613,1.34516129032258,1.35806451612903,1.4,1.43548387096774,1.40645161290323,1.40967741935484,1.49354838709677,1.53548387096774,1.48064516129032,1.45483870967742,1.4258064516129,1.34838709677419,1.32903225806452,1.30322580645161,1.3,1.30322580645161,1.3,1.25483870967742,1.38064516129032,1.66129032258065,2.27096774193548,2.84193548387097,2.6741935483871,1.24193548387097,0.874193548387097,1.23225806451613,1.36774193548387,1.30645161290323,1.27096774193548,1.2741935483871,1.28709677419355,1.28709677419355,1.30322580645161,1.31290322580645,1.33548387096774,1.35161290322581,1.34838709677419,1.36774193548387,1.40322580645161,1.41935483870968,1.42903225806452,1.45483870967742,1.47741935483871,1.49677419354839,1.51935483870968,1.57741935483871,1.61290322580645,1.63548387096774,1.65806451612903,1.71612903225806,1.74838709677419,1.74838709677419,1.75161290322581,1.76451612903226,1.73548387096774,1.71290322580645,1.63870967741935,1.57741935483871,1.50967741935484,1.41935483870968,1.35161290322581,1.28387096774194,1.25806451612903,1.22258064516129,1.20967741935484,1.21612903225806,1.18709677419355,1.20322580645161,1.20967741935484,1.2258064516129,1.22903225806452,1.23548387096774,1.23225806451613,1.2258064516129,1.24193548387097,1.23548387096774,1.25161290322581,1.26129032258065,1.24516129032258,1.23225806451613,1.28064516129032,1.27741935483871,1.26451612903226,1.25161290322581,1.25806451612903,1.27096774193548,1.2741935483871,1.28064516129032,1.29032258064516,1.29032258064516,1.28064516129032,1.28709677419355,1.27741935483871,1.29677419354839,1.28709677419355,1.28064516129032,1.31612903225806,1.31612903225806,1.31612903225806,1.3258064516129,1.32903225806452,1.33548387096774,1.33548387096774,1.33225806451613,1.33225806451613,1.34193548387097,1.33870967741935,1.35483870967742,1.35161290322581,1.36451612903226,1.42258064516129,1.44193548387097,1.45806451612903,1.42903225806452,1.49354838709677,1.56129032258065,1.5258064516129,1.49677419354839,1.46451612903226,1.40645161290323,1.34838709677419,1.32258064516129,1.34193548387097,1.34516129032258,1.32903225806452,1.26451612903226,1.37741935483871,1.63548387096774,2.14838709677419,2.79677419354839,2.87741935483871,1.50967741935484,0.861290322580645,1.15161290322581,1.36774193548387,1.33870967741935,1.28709677419355,1.29677419354839,1.29354838709677,1.30322580645161,1.3258064516129,1.30967741935484,1.33548387096774,1.35806451612903,1.36451612903226,1.39354838709677,1.37741935483871,1.38387096774194,1.40322580645161,1.43225806451613,1.46129032258065,1.46774193548387,1.49677419354839,1.5258064516129,1.58064516129032,1.6,1.63548387096774,1.65806451612903,1.68387096774194,1.72258064516129,1.72258064516129,1.72258064516129,1.70967741935484,1.6741935483871,1.65161290322581,1.58064516129032,1.49677419354839,1.41290322580645,1.32903225806452,1.27741935483871,1.21290322580645,1.18709677419355,1.17741935483871,1.16129032258065,1.15483870967742,1.17096774193548,1.15483870967742,1.17096774193548,1.19677419354839,1.19032258064516,1.16774193548387,1.1741935483871,1.19354838709677,1.19677419354839,1.20322580645161,1.2,1.20322580645161,1.19354838709677,1.21290322580645,1.2258064516129,1.20645161290323,1.19032258064516,1.21612903225806,1.20322580645161,1.2,1.21290322580645,1.20967741935484,1.20322580645161,1.20322580645161,1.22258064516129,1.23225806451613,1.23225806451613,1.23225806451613,1.23225806451613,1.22903225806452,1.24193548387097,1.25161290322581,1.25806451612903,1.26774193548387,1.26774193548387,1.27741935483871,1.27741935483871,1.28387096774194,1.28387096774194,1.33548387096774,1.38064516129032,1.38064516129032,1.38064516129032,1.41935483870968,1.47741935483871,1.49354838709677,1.46129032258065,1.44516129032258,1.4,1.34516129032258,1.32903225806452,1.34193548387097,1.34838709677419,1.34516129032258,1.30322580645161,1.35161290322581,1.58064516129032,2.06451612903226,2.66451612903226,2.86451612903226,1.80645161290323,0.958064516129032,1.12903225806452,1.32258064516129,1.40645161290323,1.36129032258065,1.3258064516129,1.35806451612903,1.34516129032258,1.38387096774194,1.40322580645161,1.39032258064516,1.42258064516129,1.44193548387097,1.44516129032258,1.47741935483871,1.48064516129032,1.50322580645161,1.51612903225806,1.54193548387097,1.56129032258065,1.60967741935484,1.62258064516129,1.65161290322581,1.68064516129032,1.73225806451613,1.77096774193548,1.79032258064516,1.79354838709677,1.80645161290323,1.81290322580645,1.79677419354839,1.77741935483871,1.70967741935484,1.65806451612903,1.61935483870968,1.51935483870968,1.46129032258065,1.38709677419355,1.35161290322581,1.3258064516129,1.29032258064516,1.29677419354839,1.3,1.30322580645161,1.31290322580645,1.28709677419355,1.30322580645161,1.31935483870968,1.30322580645161,1.29354838709677,1.30967741935484,1.32258064516129,1.29677419354839,1.30322580645161,1.30967741935484,1.31290322580645,1.31612903225806,1.29677419354839,1.28709677419355,1.28387096774194,1.29354838709677,1.29677419354839,1.2741935483871,1.27096774193548,1.29032258064516,1.26774193548387,1.28064516129032,1.28064516129032,1.2741935483871,1.29032258064516,1.25806451612903,1.29032258064516,1.28064516129032,1.25806451612903,1.27741935483871,1.27741935483871,1.27741935483871,1.2741935483871,1.28387096774194,1.28709677419355,1.26129032258065,1.29032258064516,1.29677419354839,1.33548387096774,1.35806451612903,1.38387096774194,1.34838709677419,1.4,1.45806451612903,1.45161290322581,1.4,1.38709677419355,1.31290322580645,1.26451612903226,1.27096774193548,1.25483870967742,1.25483870967742,1.25483870967742,1.1741935483871,1.32903225806452,1.60322580645161,2.19354838709677,2.78064516129032,2.67741935483871,1.2741935483871,0.829032258064516,1.1258064516129,1.3,1.25161290322581,1.23225806451613,1.24838709677419,1.24516129032258,1.23870967741935,1.2741935483871,1.28064516129032,1.28387096774194,1.30967741935484,1.33548387096774,1.33225806451613,1.35806451612903,1.3741935483871,1.38709677419355,1.41935483870968,1.44193548387097,1.46451612903226,1.49032258064516,1.53225806451613,1.5741935483871,1.60645161290323,1.65161290322581,1.6741935483871,1.7,1.71290322580645,1.71612903225806,1.73225806451613,1.69032258064516,1.66451612903226,1.64193548387097,1.56774193548387,1.49354838709677,1.4258064516129,1.37096774193548,1.29354838709677,1.28064516129032,1.28064516129032,1.2258064516129,1.21612903225806,1.23225806451613,1.2258064516129,1.24838709677419,1.23870967741935,1.26129032258065,1.28064516129032,1.28064516129032,1.28064516129032,1.27096774193548,1.29032258064516,1.28387096774194,1.28064516129032,1.29354838709677,1.26451612903226,1.29032258064516,1.28387096774194,1.28709677419355,1.30645161290323,1.29677419354839,1.31290322580645,1.28709677419355,1.3,1.30645161290323,1.3,1.28387096774194,1.3,1.32903225806452,1.33548387096774,1.30967741935484,1.31612903225806,1.32258064516129,1.33225806451613,1.33225806451613,1.32258064516129,1.32903225806452,1.33225806451613,1.35483870967742,1.36451612903226,1.32903225806452,1.33225806451613,1.39032258064516,1.42903225806452,1.43225806451613,1.41612903225806,1.44516129032258,1.51290322580645,1.51290322580645,1.49677419354839,1.45806451612903,1.43225806451613,1.33225806451613,1.29354838709677,1.30967741935484,1.30322580645161,1.32258064516129,1.26451612903226,1.31612903225806,1.58387096774194,2.09032258064516,2.76774193548387,2.91935483870968,1.58709677419355,0.803225806451613,1.13548387096774,1.37096774193548,1.31290322580645,1.26129032258065,1.26129032258065,1.26451612903226,1.28064516129032,1.26774193548387,1.3,1.32258064516129,1.3258064516129,1.35161290322581,1.36129032258065,1.38064516129032,1.41612903225806,1.42258064516129,1.42903225806452,1.45161290322581,1.48064516129032,1.49677419354839,1.52903225806452,1.59354838709677,1.60645161290323,1.64838709677419,1.70645161290323,1.7258064516129,1.73870967741935,1.74193548387097,1.73225806451613,1.7258064516129,1.7,1.66451612903226,1.59354838709677,1.48709677419355,1.40645161290323,1.33870967741935,1.3,1.24838709677419,1.20322580645161,1.19677419354839,1.18064516129032,1.16129032258065,1.16129032258065,1.21935483870968,1.2,1.19032258064516,1.19354838709677,1.21290322580645,1.22258064516129,1.23548387096774,1.21612903225806,1.25483870967742,1.23548387096774,1.23548387096774,1.25161290322581,1.25806451612903,1.2741935483871,1.25161290322581,1.22903225806452,1.24838709677419,1.25161290322581,1.26774193548387,1.25161290322581,1.23870967741935,1.25483870967742,1.28387096774194,1.2741935483871,1.28709677419355,1.29354838709677,1.31290322580645,1.28709677419355,1.29354838709677,1.30967741935484,1.33225806451613,1.31612903225806,1.31612903225806,1.32258064516129,1.32903225806452,1.34838709677419,1.39032258064516,1.4,1.41935483870968,1.40967741935484,1.42903225806452,1.49354838709677,1.48709677419355,1.50967741935484,1.45161290322581,1.39677419354839,1.35161290322581,1.30967741935484,1.33548387096774,1.34838709677419,1.34193548387097,1.27741935483871,1.30967741935484,1.5741935483871,1.9741935483871,2.57741935483871,2.83870967741935,1.89032258064516,0.964516129032258,1.06774193548387,1.28387096774194,1.39677419354839,1.35806451612903,1.34193548387097,1.33225806451613,1.35806451612903,1.37096774193548,1.36129032258065,1.37741935483871,1.39354838709677,1.39032258064516,1.40967741935484,1.43548387096774,1.45483870967742,1.45161290322581,1.46774193548387,1.49677419354839,1.5,1.56129032258065,1.58387096774194,1.59354838709677,1.61612903225806,1.65483870967742,1.70322580645161,1.71935483870968,1.74193548387097,1.75483870967742,1.75483870967742,1.74193548387097,1.71290322580645,1.66451612903226,1.64193548387097,1.54838709677419,1.46451612903226,1.40645161290323,1.35161290322581,1.3,1.26129032258065,1.25161290322581,1.2258064516129,1.21935483870968,1.23225806451613,1.23548387096774,1.24838709677419,1.23548387096774,1.22903225806452,1.25161290322581,1.2258064516129,1.24838709677419,1.25483870967742,1.25483870967742,1.25806451612903,1.25806451612903,1.23870967741935,1.24193548387097,1.24838709677419,1.26774193548387,1.24516129032258,1.22903225806452,1.22258064516129,1.2258064516129,1.25806451612903,1.24838709677419,1.24516129032258,1.26774193548387,1.25161290322581,1.25161290322581,1.25161290322581,1.2741935483871,1.25806451612903,1.26129032258065,1.25806451612903,1.24193548387097,1.2741935483871,1.30322580645161,1.2741935483871,1.29677419354839,1.2741935483871,1.29032258064516,1.34193548387097,1.38064516129032,1.39032258064516,1.36129032258065,1.43225806451613,1.47741935483871,1.47096774193548,1.44193548387097,1.41612903225806,1.35161290322581,1.29354838709677,1.2741935483871,1.29677419354839,1.29354838709677,1.29677419354839,1.21612903225806,1.35483870967742,1.67741935483871,2.31935483870968,2.84193548387097,2.6741935483871,1.25483870967742,0.880645161290323,1.19677419354839,1.35806451612903,1.30322580645161,1.27096774193548,1.29677419354839,1.29032258064516,1.31290322580645,1.32258064516129,1.3258064516129,1.35806451612903,1.36774193548387,1.38387096774194,1.39354838709677,1.41612903225806,1.43225806451613,1.44516129032258,1.49032258064516,1.5,1.50645161290323,1.54838709677419,1.56774193548387,1.61290322580645,1.65806451612903,1.70322580645161,1.72258064516129,1.72903225806452,1.76451612903226,1.77741935483871,1.7741935483871,1.75806451612903,1.70967741935484,1.6741935483871,1.61935483870968,1.51612903225806,1.45161290322581,1.39032258064516,1.29032258064516,1.29354838709677,1.26451612903226,1.24516129032258,1.23548387096774,1.25483870967742,1.24516129032258,1.23225806451613,1.27741935483871,1.25483870967742,1.25806451612903,1.26129032258065,1.26129032258065,1.27741935483871,1.24838709677419,1.26774193548387,1.28709677419355,1.29677419354839,1.27741935483871,1.23870967741935,1.2741935483871,1.28064516129032,1.25806451612903,1.25483870967742,1.25483870967742,1.26129032258065,1.25161290322581,1.26129032258065,1.26451612903226,1.25483870967742,1.26774193548387,1.25483870967742,1.26774193548387,1.27741935483871,1.28387096774194,1.26774193548387,1.26451612903226,1.27741935483871,1.29032258064516,1.27096774193548,1.28387096774194,1.28387096774194,1.33548387096774,1.36774193548387,1.36451612903226,1.36129032258065,1.40322580645161,1.45483870967742,1.45483870967742,1.4,1.36774193548387,1.32903225806452,1.26129032258065,1.2258064516129,1.26774193548387,1.26774193548387,1.28064516129032,1.22258064516129,1.30322580645161,1.53548387096774,2.04193548387097,2.70322580645161,2.89032258064516,1.65483870967742,0.787096774193548,1.10967741935484,1.33225806451613,1.3,1.27741935483871,1.25161290322581,1.26129032258065,1.28387096774194,1.29032258064516,1.30645161290323,1.29677419354839,1.33870967741935,1.36774193548387,1.35483870967742,1.37741935483871,1.41290322580645,1.4258064516129,1.46129032258065,1.49677419354839,1.50645161290323,1.5258064516129,1.57096774193548,1.62258064516129,1.65161290322581,1.6741935483871,1.70967741935484,1.75161290322581,1.77741935483871,1.7741935483871,1.76774193548387,1.75806451612903,1.74838709677419,1.70322580645161,1.64193548387097,1.54516129032258,1.46451612903226,1.39354838709677,1.32903225806452,1.29354838709677,1.26129032258065,1.2258064516129,1.20967741935484,1.21290322580645,1.23225806451613,1.25161290322581,1.25161290322581,1.2741935483871,1.28709677419355,1.2741935483871,1.28387096774194,1.29354838709677,1.31290322580645,1.28709677419355,1.29032258064516,1.32258064516129,1.31612903225806,1.3,1.3258064516129,1.29354838709677,1.30322580645161,1.28064516129032,1.30322580645161,1.3,1.28387096774194,1.27741935483871,1.26774193548387,1.28064516129032,1.28064516129032,1.28387096774194,1.28709677419355,1.28064516129032,1.29354838709677,1.28387096774194,1.29677419354839,1.31290322580645,1.29677419354839,1.3,1.29677419354839,1.3,1.35483870967742,1.34838709677419,1.38064516129032,1.39032258064516,1.40645161290323,1.48387096774194,1.49032258064516,1.44193548387097,1.41935483870968,1.37096774193548,1.31290322580645,1.28387096774194,1.28709677419355,1.29354838709677,1.29677419354839,1.22903225806452,1.2741935483871,1.51290322580645,1.94193548387097,2.59032258064516,2.86774193548387,1.81935483870968,0.851612903225806,1.02903225806452,1.29354838709677,1.33225806451613,1.23548387096774,1.24516129032258,1.24838709677419,1.24193548387097,1.28709677419355,1.30322580645161,1.29354838709677,1.30645161290323,1.34838709677419,1.3741935483871,1.36774193548387,1.38064516129032,1.41290322580645,1.46129032258065,1.45806451612903,1.47096774193548,1.51290322580645,1.54193548387097,1.56129032258065,1.59677419354839,1.65483870967742,1.6741935483871,1.71935483870968,1.74838709677419,1.74193548387097,1.72903225806452,1.75483870967742,1.72903225806452,1.66451612903226,1.59677419354839,1.52258064516129,1.44838709677419,1.36774193548387,1.26774193548387,1.25483870967742,1.21612903225806,1.20645161290323,1.20967741935484,1.18387096774194,1.19032258064516,1.20645161290323,1.22258064516129,1.22903225806452,1.23548387096774,1.23225806451613,1.22903225806452,1.25161290322581,1.27096774193548,1.25806451612903,1.27096774193548,1.30322580645161,1.30322580645161,1.29677419354839,1.29032258064516,1.31290322580645,1.28709677419355,1.28709677419355,1.30967741935484,1.30967741935484,1.30322580645161,1.28387096774194,1.28709677419355,1.28387096774194,1.31612903225806,1.30967741935484,1.30645161290323,1.31935483870968,1.3258064516129,1.33225806451613,1.34516129032258,1.38709677419355,1.41935483870968,1.42258064516129,1.38709677419355,1.46451612903226,1.49354838709677,1.49354838709677,1.46451612903226,1.46129032258065,1.38387096774194,1.33548387096774,1.34193548387097,1.34838709677419,1.31290322580645,1.3258064516129,1.2741935483871,1.4,1.68709677419355,2.22258064516129,2.73225806451613,2.64193548387097,1.34516129032258,0.938709677419355,1.16774193548387,1.33548387096774,1.34838709677419,1.31290322580645,1.3258064516129,1.33225806451613,1.33548387096774,1.3258064516129,1.34193548387097,1.35806451612903,1.36451612903226,1.39032258064516,1.40322580645161,1.40967741935484,1.41935483870968,1.45806451612903,1.4741935483871,1.46774193548387,1.5,1.5258064516129,1.53548387096774,1.6,1.62903225806452,1.65806451612903,1.68064516129032,1.70967741935484,1.72903225806452,1.71290322580645,1.7,1.68709677419355,1.63870967741935,1.6,1.51612903225806,1.44838709677419,1.36129032258065,1.26774193548387,1.23548387096774,1.19354838709677,1.17096774193548,1.18064516129032,1.15806451612903,1.17741935483871,1.19032258064516,1.18387096774194,1.16451612903226,1.17741935483871,1.20967741935484,1.17096774193548,1.2,1.23548387096774,1.21612903225806,1.23225806451613,1.21935483870968,1.20645161290323,1.23225806451613,1.21612903225806,1.22258064516129,1.23225806451613,1.22903225806452,1.21612903225806,1.22258064516129,1.23225806451613,1.22903225806452,1.24193548387097,1.22903225806452,1.23225806451613,1.23225806451613,1.24838709677419,1.25161290322581,1.25161290322581,1.24193548387097,1.25806451612903,1.23548387096774,1.28387096774194,1.34193548387097,1.36774193548387,1.36774193548387,1.3741935483871,1.45483870967742,1.4741935483871,1.44516129032258,1.40322580645161,1.38064516129032,1.33870967741935,1.28387096774194,1.29677419354839,1.3,1.29677419354839,1.30967741935484,1.25483870967742,1.41935483870968,1.7258064516129,2.34838709677419,2.85483870967742,2.50322580645161,1.14193548387097,0.951612903225806,1.24193548387097,1.3741935483871,1.34838709677419,1.31935483870968,1.32258064516129,1.30967741935484,1.34516129032258,1.37096774193548,1.38064516129032,1.38387096774194,1.40645161290323,1.40645161290323,1.43548387096774,1.46129032258065,1.47741935483871,1.48709677419355,1.51290322580645,1.50645161290323,1.54193548387097,1.56451612903226,1.63225806451613,1.6741935483871,1.71290322580645,1.73548387096774,1.77096774193548,1.8,1.77741935483871,1.80322580645161,1.81612903225806,1.78709677419355,1.73870967741935,1.6741935483871,1.61935483870968,1.50645161290323,1.43225806451613,1.37741935483871,1.31935483870968,1.28387096774194,1.28387096774194,1.2741935483871,1.25161290322581,1.26774193548387,1.25483870967742,1.26451612903226,1.27741935483871,1.28709677419355,1.28387096774194,1.28064516129032,1.28064516129032,1.28064516129032,1.28709677419355,1.28387096774194,1.29677419354839,1.27741935483871,1.28709677419355,1.29677419354839,1.30645161290323,1.28064516129032,1.27096774193548,1.29354838709677,1.27096774193548,1.26451612903226,1.27096774193548,1.23548387096774,1.25483870967742,1.23870967741935,1.25806451612903,1.26774193548387,1.25483870967742,1.24838709677419,1.27096774193548,1.2741935483871,1.26129032258065,1.26774193548387,1.27741935483871,1.29677419354839,1.30967741935484,1.3741935483871,1.3741935483871,1.34193548387097,1.39677419354839,1.44516129032258,1.47096774193548,1.43225806451613,1.39354838709677,1.34838709677419,1.29032258064516,1.25483870967742,1.23870967741935,1.23870967741935,1.24193548387097,1.22903225806452,1.21290322580645,1.43225806451613,1.78709677419355,2.44838709677419,2.79677419354839,2.26129032258065,0.883870967741936,0.919354838709677,1.2741935483871,1.30645161290323,1.23870967741935,1.21935483870968,1.2258064516129,1.23870967741935,1.25483870967742,1.23548387096774,1.25806451612903,1.30322580645161,1.27096774193548,1.32903225806452,1.32903225806452,1.33548387096774,1.36774193548387,1.39032258064516,1.42903225806452,1.45161290322581,1.46451612903226,1.50645161290323,1.5258064516129,1.57741935483871,1.60967741935484,1.66451612903226,1.70322580645161,1.70645161290323,1.71935483870968,1.71935483870968,1.72258064516129,1.70322580645161,1.65483870967742,1.61935483870968,1.51612903225806,1.41290322580645,1.35161290322581,1.26774193548387,1.23870967741935,1.21935483870968,1.19032258064516,1.19677419354839,1.2,1.22258064516129,1.24838709677419,1.22258064516129,1.24838709677419,1.28064516129032,1.30967741935484,1.3,1.31290322580645,1.31935483870968,1.36774193548387,1.3741935483871,1.3741935483871,1.41290322580645,1.43225806451613,1.41935483870968,1.43225806451613,1.45161290322581,1.4741935483871,1.49032258064516,1.47741935483871
