1.38064516129032,1.37741935483871,1.38064516129032,1.3741935483871,1.3741935483871,1.39032258064516,1.38387096774194,1.38064516129032,1.38709677419355,1.3741935483871,1.37096774193548,1.39032258064516,1.38064516129032,1.3741935483871,1.37741935483871,1.38064516129032,1.3741935483871,1.37741935483871,1.38064516129032,1.38064516129032,1.39354838709677,1.3741935483871,1.3741935483871,1.37741935483871,1.37741935483871,1.38709677419355,1.3741935483871,1.38387096774194,1.37741935483871,1.3741935483871,1.37741935483871,1.3741935483871,1.38064516129032,1.37096774193548,1.38064516129032,1.38387096774194,1.37741935483871,1.38709677419355,1.38064516129032,1.37741935483871,1.3741935483871,1.37741935483871,1.37741935483871,1.38387096774194,1.38064516129032,1.3741935483871,1.39354838709677,1.39354838709677,1.38709677419355,1.4,1.41290322580645,1.43870967741935,1.45806451612903,1.44838709677419,1.41612903225806,1.39677419354839,1.39677419354839,1.36774193548387,1.36774193548387,1.36451612903226,1.35806451612903,1.36129032258065,1.36451612903226,1.36129032258065,1.36129032258065,1.34838709677419,1.36451612903226,1.37096774193548,1.36129032258065,1.43870967741935,1.62258064516129,1.85806451612903,1.94193548387097,1.54838709677419,1.41290322580645,1.39354838709677,1.39032258064516,1.37741935483871,1.3741935483871,1.36774193548387,1.36129032258065,1.36451612903226,1.36129032258065,1.3741935483871,1.36451612903226,1.36774193548387,1.37741935483871,1.38709677419355,1.36774193548387,1.37096774193548,1.37096774193548,1.38387096774194,1.38064516129032,1.38709677419355,1.38709677419355,1.39354838709677,1.38709677419355,1.39677419354839,1.4,1.40322580645161,1.40967741935484,1.41612903225806,1.43548387096774,1.43225806451613,1.44516129032258,1.45161290322581,1.47096774193548,1.48387096774194,1.49677419354839,1.50645161290323,1.51612903225806,1.52258064516129,1.53870967741935,1.53548387096774,1.5258064516129,1.50322580645161,1.47741935483871,1.45806451612903,1.44838709677419,1.42258064516129,1.40322580645161,1.39354838709677,1.38387096774194,1.38064516129032,1.37096774193548,1.36774193548387,1.37096774193548,1.36774193548387,1.36129032258065,1.36451612903226,1.37096774193548,1.36451612903226,1.3741935483871,1.36451612903226,1.37096774193548,1.37741935483871,1.3741935483871,1.37741935483871,1.37096774193548,1.3741935483871,1.38064516129032,1.38064516129032,1.3741935483871,1.3741935483871,1.37741935483871,1.37741935483871,1.37741935483871,1.3741935483871,1.38064516129032,1.3741935483871,1.3741935483871,1.3741935483871,1.3741935483871,1.36774193548387,1.37096774193548,1.37096774193548,1.3741935483871,1.3741935483871,1.3741935483871,1.37096774193548,1.3741935483871,1.36129032258065,1.36774193548387,1.38387096774194,1.37096774193548,1.37096774193548,1.36774193548387,1.36129032258065,1.36774193548387,1.36774193548387,1.36451612903226,1.36774193548387,1.36774193548387,1.37096774193548,1.37096774193548,1.37096774193548,1.36774193548387,1.37096774193548,1.36774193548387,1.37096774193548,1.36774193548387,1.36451612903226,1.38064516129032,1.37096774193548,1.36774193548387,1.37096774193548,1.37096774193548,1.37096774193548,1.3741935483871,1.36451612903226,1.36774193548387,1.37741935483871,1.3741935483871,1.37741935483871,1.36774193548387,1.3741935483871,1.37741935483871,1.37741935483871,1.38387096774194,1.39032258064516,1.38709677419355,1.40322580645161,1.41290322580645,1.44193548387097,1.44516129032258,1.44516129032258,1.41935483870968,1.4,1.39354838709677,1.37096774193548,1.36451612903226,1.36451612903226,1.36451612903226,1.36774193548387,1.36774193548387,1.35483870967742,1.36451612903226,1.36451612903226,1.35806451612903,1.36129032258065,1.37741935483871,1.49677419354839,1.71935483870968,1.95483870967742,1.91612903225806,1.52258064516129,1.43548387096774,1.39354838709677,1.38387096774194,1.37096774193548,1.37096774193548,1.36774193548387,1.37096774193548,1.36774193548387,1.36774193548387,1.37096774193548,1.36129032258065,1.37096774193548,1.3741935483871,1.36774193548387,1.37741935483871,1.3741935483871,1.38387096774194,1.38387096774194,1.37741935483871,1.38387096774194,1.38387096774194,1.38064516129032,1.4,1.39677419354839,1.39677419354839,1.40322580645161,1.40322580645161,1.41612903225806,1.42258064516129,1.42258064516129,1.44193548387097,1.44516129032258,1.45806451612903,1.46774193548387,1.48387096774194,1.49032258064516,1.50322580645161,1.51612903225806,1.52258064516129,1.52903225806452,1.51612903225806,1.50645161290323,1.48709677419355,1.46129032258065,1.44838709677419,1.42903225806452,1.41290322580645,1.40322580645161,1.39032258064516,1.39354838709677,1.37741935483871,1.38709677419355,1.38064516129032,1.37741935483871,1.37741935483871,1.37741935483871,1.37096774193548,1.38064516129032,1.36774193548387,1.36774193548387,1.3741935483871,1.38064516129032,1.3741935483871,1.3741935483871,1.37096774193548,1.37741935483871,1.37741935483871,1.37741935483871,1.38064516129032,1.38064516129032,1.37741935483871,1.38064516129032,1.38064516129032,1.37741935483871,1.37741935483871,1.38064516129032,1.38064516129032,1.38064516129032,1.37741935483871,1.37096774193548,1.37741935483871,1.3741935483871,1.37741935483871,1.37741935483871,1.37096774193548,1.37741935483871,1.3741935483871,1.3741935483871,1.37741935483871,1.37741935483871,1.37741935483871,1.3741935483871,1.36451612903226,1.3741935483871,1.38064516129032,1.3741935483871,1.3741935483871,1.36774193548387,1.37096774193548,1.3741935483871,1.38387096774194,1.3741935483871,1.3741935483871,1.37096774193548,1.38064516129032,1.3741935483871,1.3741935483871,1.3741935483871,1.3741935483871,1.3741935483871,1.37741935483871,1.3741935483871,1.37741935483871,1.37096774193548,1.3741935483871,1.37741935483871,1.37741935483871,1.37741935483871,1.3741935483871,1.37741935483871,1.37741935483871,1.3741935483871,1.3741935483871,1.3741935483871,1.37741935483871,1.3741935483871,1.37741935483871,1.37096774193548,1.37741935483871,1.37741935483871,1.38064516129032,1.38064516129032,1.39032258064516,1.39354838709677,1.39354838709677,1.41290322580645,1.43548387096774,1.44516129032258,1.44193548387097,1.43870967741935,1.41290322580645,1.39677419354839,1.39032258064516,1.36774193548387,1.36774193548387,1.37096774193548,1.36129032258065,1.35806451612903,1.35806451612903,1.36451612903226,1.36451612903226,1.36129032258065,1.36129032258065,1.36451612903226,1.3741935483871,1.50322580645161,1.74193548387097,1.9741935483871,1.95483870967742,1.54193548387097,1.44193548387097,1.39354838709677,1.38387096774194,1.3741935483871,1.37096774193548,1.36774193548387,1.36451612903226,1.36451612903226,1.36451612903226,1.36451612903226,1.36451612903226,1.37096774193548,1.36774193548387,1.36774193548387,1.36451612903226,1.37741935483871,1.3741935483871,1.37741935483871,1.37741935483871,1.37741935483871,1.37741935483871,1.38064516129032,1.38709677419355,1.39032258064516,1.39677419354839,1.40322580645161,1.39677419354839,1.41290322580645,1.41935483870968,1.4258064516129,1.43870967741935,1.44838709677419,1.46129032258065,1.47096774193548,1.48387096774194,1.49354838709677,1.50645161290323,1.51935483870968,1.53225806451613,1.52903225806452,1.51935483870968,1.51290322580645,1.49032258064516,1.46774193548387,1.44838709677419,1.42903225806452,1.40967741935484,1.4,1.39354838709677,1.39032258064516,1.38709677419355,1.38064516129032,1.38064516129032,1.3741935483871,1.37741935483871,1.37096774193548,1.37741935483871,1.37096774193548,1.37741935483871,1.36774193548387,1.37096774193548,1.37096774193548,1.37096774193548,1.3741935483871,1.37096774193548,1.3741935483871,1.3741935483871,1.37096774193548,1.37741935483871,1.37096774193548,1.3741935483871,1.3741935483871,1.37741935483871,1.37741935483871,1.3741935483871,1.37741935483871,1.3741935483871,1.3741935483871,1.37096774193548,1.37096774193548,1.37096774193548,1.38064516129032,1.3741935483871,1.37096774193548,1.37741935483871,1.37096774193548,1.3741935483871,1.37096774193548,1.3741935483871,1.3741935483871,1.3741935483871,1.36774193548387,1.37741935483871,1.37096774193548,1.37096774193548,1.3741935483871,1.36774193548387,1.37096774193548,1.37096774193548,1.3741935483871,1.3741935483871,1.36774193548387,1.3741935483871,1.36774193548387,1.37096774193548,1.3741935483871,1.3741935483871,1.3741935483871,1.3741935483871,1.37741935483871,1.3741935483871,1.37096774193548,1.36774193548387,1.36451612903226,1.37096774193548,1.3741935483871,1.3741935483871,1.37096774193548,1.37741935483871,1.3741935483871,1.36774193548387,1.3741935483871,1.37741935483871,1.37741935483871,1.3741935483871,1.3741935483871,1.37741935483871,1.37741935483871,1.38064516129032,1.37741935483871,1.37096774193548,1.3741935483871,1.38387096774194,1.38387096774194,1.39032258064516,1.39677419354839,1.40322580645161,1.4258064516129,1.43548387096774,1.45161290322581,1.44838709677419,1.43870967741935,1.40967741935484,1.39354838709677,1.38064516129032,1.36774193548387,1.36451612903226,1.35806451612903,1.36129032258065,1.36129032258065,1.35806451612903,1.35806451612903,1.36451612903226,1.36129032258065,1.35806451612903,1.35806451612903,1.39677419354839,1.54838709677419,1.83870967741935,2.04193548387097,1.81612903225806,1.50645161290323,1.41935483870968,1.39677419354839,1.3741935483871,1.38387096774194,1.36774193548387,1.36774193548387,1.36129032258065,1.36774193548387,1.36774193548387,1.36451612903226,1.36774193548387,1.37096774193548,1.37096774193548,1.36451612903226,1.36451612903226,1.3741935483871,1.3741935483871,1.38387096774194,1.38064516129032,1.37741935483871,1.38064516129032,1.38709677419355,1.39354838709677,1.4,1.39032258064516,1.40645161290323,1.40645161290323,1.41290322580645,1.42258064516129,1.43548387096774,1.44516129032258,1.45806451612903,1.48064516129032,1.48709677419355,1.50322580645161,1.50322580645161,1.52258064516129,1.53225806451613,1.54193548387097,1.53870967741935,1.53548387096774,1.50967741935484,1.48709677419355,1.46774193548387,1.44193548387097,1.41935483870968,1.40645161290323,1.39354838709677,1.38709677419355,1.38709677419355,1.37096774193548,1.38387096774194,1.37096774193548,1.37096774193548,1.3741935483871,1.3741935483871,1.36774193548387,1.36774193548387,1.35806451612903,1.37096774193548,1.37096774193548,1.37096774193548,1.36451612903226,1.37096774193548,1.36774193548387,1.37096774193548,1.36774193548387,1.37096774193548,1.3741935483871,1.37741935483871,1.3741935483871,1.37096774193548,1.38064516129032,1.37096774193548,1.3741935483871,1.36774193548387,1.37741935483871,1.36774193548387,1.37741935483871,1.3741935483871,1.36451612903226,1.37096774193548,1.3741935483871,1.37741935483871,1.37096774193548,1.3741935483871,1.3741935483871,1.37096774193548,1.3741935483871,1.37741935483871,1.3741935483871,1.37096774193548,1.37741935483871,1.36774193548387,1.37096774193548,1.37096774193548,1.36774193548387,1.37096774193548,1.37741935483871,1.36774193548387,1.37096774193548,1.37096774193548,1.3741935483871,1.38064516129032,1.3741935483871,1.37096774193548,1.37096774193548,1.37096774193548,1.37741935483871,1.38064516129032,1.36774193548387,1.3741935483871,1.3741935483871,1.39032258064516,1.37096774193548,1.3741935483871,1.3741935483871,1.38064516129032,1.37741935483871,1.37741935483871,1.37096774193548,1.3741935483871,1.37741935483871,1.37741935483871,1.38709677419355,1.3741935483871,1.3741935483871,1.38064516129032,1.38709677419355,1.38709677419355,1.39032258064516,1.39032258064516,1.40967741935484,1.43870967741935,1.44838709677419,1.44838709677419,1.43548387096774,1.40645161290323,1.4,1.38387096774194,1.36774193548387,1.36451612903226,1.36129032258065,1.36129032258065,1.36129032258065,1.35483870967742,1.35806451612903,1.36451612903226,1.35806451612903,1.36451612903226,1.35806451612903,1.40322580645161,1.55483870967742,1.81612903225806,1.98709677419355,1.67741935483871,1.43548387096774,1.40645161290323,1.38387096774194,1.3741935483871,1.37096774193548,1.36451612903226,1.36774193548387,1.36774193548387,1.36451612903226,1.36774193548387,1.37096774193548,1.36451612903226,1.36451612903226,1.3741935483871,1.3741935483871,1.3741935483871,1.37741935483871,1.38064516129032,1.38064516129032,1.37741935483871,1.38709677419355,1.39354838709677,1.39354838709677,1.39354838709677,1.4,1.4,1.40967741935484,1.41935483870968,1.42258064516129,1.42903225806452,1.43548387096774,1.44516129032258,1.45806451612903,1.47096774193548,1.49032258064516,1.49677419354839,1.51290322580645,1.52258064516129,1.53548387096774,1.53870967741935,1.53225806451613,1.52258064516129,1.50322580645161,1.48064516129032,1.45806451612903,1.43870967741935,1.41935483870968,1.4,1.39032258064516,1.38387096774194,1.37741935483871,1.37096774193548,1.37096774193548,1.3741935483871,1.36774193548387,1.3741935483871,1.36774193548387,1.36774193548387,1.36774193548387,1.37096774193548,1.3741935483871,1.3741935483871,1.3741935483871,1.3741935483871,1.38064516129032,1.38064516129032,1.38064516129032,1.38064516129032,1.38387096774194,1.38064516129032,1.38064516129032,1.38709677419355,1.38387096774194,1.37741935483871,1.37741935483871,1.37096774193548,1.38064516129032,1.3741935483871,1.37096774193548,1.37741935483871,1.37096774193548,1.37096774193548,1.3741935483871,1.37741935483871,1.37741935483871,1.3741935483871,1.3741935483871,1.37741935483871,1.3741935483871,1.3741935483871,1.37096774193548,1.3741935483871,1.3741935483871,1.37096774193548,1.3741935483871,1.3741935483871,1.3741935483871,1.3741935483871,1.36774193548387,1.3741935483871,1.37096774193548,1.3741935483871,1.37096774193548,1.3741935483871,1.37096774193548,1.37741935483871,1.37096774193548,1.37096774193548,1.36451612903226,1.3741935483871,1.37741935483871,1.37741935483871,1.3741935483871,1.3741935483871,1.37096774193548,1.37741935483871,1.37741935483871,1.3741935483871,1.3741935483871,1.3741935483871,1.3741935483871,1.3741935483871,1.37741935483871,1.3741935483871,1.3741935483871,1.3741935483871,1.37741935483871,1.37741935483871,1.38064516129032,1.3741935483871,1.3741935483871,1.37741935483871,1.3741935483871,1.38709677419355,1.39354838709677,1.39032258064516,1.40322580645161,1.42258064516129,1.44516129032258,1.44838709677419,1.44516129032258,1.43225806451613,1.40322580645161,1.39354838709677,1.38387096774194,1.36451612903226,1.36451612903226,1.36129032258065,1.36774193548387,1.36129032258065,1.36129032258065,1.35806451612903,1.36451612903226,1.36774193548387,1.36774193548387,1.35483870967742,1.43870967741935,1.63870967741935,1.91290322580645,2.04516129032258,1.64193548387097,1.46451612903226,1.40645161290323,1.39677419354839,1.38064516129032,1.37096774193548,1.37096774193548,1.37096774193548,1.37096774193548,1.36774193548387,1.36774193548387,1.36774193548387,1.36774193548387,1.3741935483871,1.37096774193548,1.3741935483871,1.3741935483871,1.3741935483871,1.38387096774194,1.38064516129032,1.38709677419355,1.38387096774194,1.38709677419355,1.38387096774194,1.39354838709677,1.39677419354839,1.40322580645161,1.40645161290323,1.41290322580645,1.41935483870968,1.42903225806452,1.43548387096774,1.44193548387097,1.45483870967742,1.46451612903226,1.47741935483871,1.49032258064516,1.50645161290323,1.51935483870968,1.5258064516129,1.53225806451613,1.52903225806452,1.52258064516129,1.50322580645161,1.48387096774194,1.45483870967742,1.43870967741935,1.42258064516129,1.40645161290323,1.40322580645161,1.39354838709677,1.39032258064516,1.38387096774194,1.38387096774194,1.38387096774194,1.38064516129032,1.3741935483871,1.3741935483871,1.37741935483871,1.37096774193548,1.36774193548387,1.37096774193548,1.36774193548387,1.3741935483871,1.37096774193548,1.36774193548387,1.37741935483871,1.37096774193548,1.3741935483871,1.37741935483871,1.37741935483871,1.38064516129032,1.38064516129032,1.37741935483871,1.38064516129032,1.3741935483871,1.37096774193548,1.37741935483871,1.37741935483871,1.37741935483871,1.3741935483871,1.37741935483871,1.3741935483871,1.3741935483871,1.36774193548387,1.3741935483871,1.3741935483871,1.37741935483871,1.37741935483871,1.3741935483871,1.3741935483871,1.37096774193548,1.3741935483871,1.36774193548387,1.37096774193548,1.3741935483871,1.37096774193548,1.3741935483871,1.37096774193548,1.3741935483871,1.3741935483871,1.37096774193548,1.37096774193548,1.37096774193548,1.3741935483871,1.37096774193548,1.37096774193548,1.36774193548387,1.37096774193548,1.37096774193548,1.3741935483871,1.3741935483871,1.37096774193548,1.3741935483871,1.37096774193548,1.37096774193548,1.36774193548387,1.3741935483871,1.37096774193548,1.3741935483871,1.36774193548387,1.3741935483871,1.3741935483871,1.3741935483871,1.37096774193548,1.37096774193548,1.3741935483871,1.3741935483871,1.37096774193548,1.3741935483871,1.37096774193548,1.36774193548387,1.37096774193548,1.37096774193548,1.3741935483871,1.3741935483871,1.36774193548387,1.37096774193548,1.37741935483871,1.39032258064516,1.38709677419355,1.39354838709677,1.40645161290323,1.43548387096774,1.44193548387097,1.44193548387097,1.43548387096774,1.41290322580645,1.39354838709677,1.38064516129032,1.36451612903226,1.36451612903226,1.36451612903226,1.35483870967742,1.35483870967742,1.35483870967742,1.35161290322581,1.35161290322581,1.36129032258065,1.36129032258065,1.35806451612903,1.36451612903226,1.49032258064516,1.71612903225806,1.9741935483871,1.99354838709677,1.54838709677419,1.43548387096774,1.39032258064516,1.37741935483871,1.3741935483871,1.36774193548387,1.36451612903226,1.35806451612903,1.36451612903226,1.35806451612903,1.36451612903226,1.36129032258065,1.36129032258065,1.36451612903226,1.36451612903226,1.36774193548387,1.37096774193548,1.37096774193548,1.3741935483871,1.37741935483871,1.3741935483871,1.38064516129032,1.38064516129032,1.39032258064516,1.39032258064516,1.39677419354839,1.4,1.40645161290323,1.41290322580645,1.41935483870968,1.42903225806452,1.44193548387097,1.44838709677419,1.45483870967742,1.4741935483871,1.48709677419355,1.50322580645161,1.51612903225806,1.5258064516129,1.53870967741935,1.53870967741935,1.53548387096774,1.51935483870968,1.5,1.48064516129032,1.45806451612903,1.43225806451613,1.41935483870968,1.40322580645161,1.39677419354839,1.39354838709677,1.38387096774194,1.38387096774194,1.38064516129032,1.38387096774194,1.38064516129032,1.38387096774194,1.38064516129032,1.37741935483871,1.37096774193548,1.3741935483871,1.3741935483871,1.37096774193548,1.38064516129032,1.37096774193548,1.38064516129032,1.37741935483871,1.38064516129032,1.38387096774194,1.38709677419355,1.38064516129032,1.38709677419355,1.38709677419355,1.38387096774194,1.38387096774194,1.38709677419355,1.38709677419355,1.38709677419355,1.38709677419355,1.38387096774194,1.38064516129032,1.38387096774194,1.38709677419355,1.38387096774194,1.38387096774194,1.38064516129032,1.38064516129032,1.38387096774194,1.38387096774194,1.37741935483871,1.38064516129032,1.39032258064516,1.38387096774194,1.38387096774194,1.38709677419355,1.38064516129032,1.39032258064516,1.38064516129032,1.38709677419355,1.38387096774194,1.38709677419355,1.38387096774194,1.37741935483871,1.38387096774194,1.37741935483871,1.38709677419355,1.38709677419355,1.38387096774194,1.38387096774194,1.3741935483871,1.38064516129032,1.38064516129032,1.38387096774194,1.38709677419355,1.38387096774194,1.38387096774194,1.38064516129032,1.38064516129032,1.38064516129032,1.38064516129032,1.38064516129032,1.38064516129032,1.38709677419355,1.39354838709677,1.37741935483871,1.3741935483871,1.38387096774194,1.38064516129032,1.38387096774194,1.38387096774194,1.38064516129032,1.38709677419355,1.37741935483871,1.38387096774194,1.37741935483871,1.38387096774194,1.38064516129032,1.38709677419355,1.38709677419355,1.40645161290323,1.40967741935484,1.43870967741935,1.44838709677419,1.44516129032258,1.44516129032258,1.4258064516129,1.39354838709677,1.39032258064516,1.36774193548387,1.36129032258065,1.35483870967742,1.36129032258065,1.35806451612903,1.35483870967742,1.34838709677419,1.35161290322581,1.35806451612903,1.35161290322581,1.36451612903226,1.35161290322581,1.42258064516129,1.61290322580645,1.89677419354839,2.04193548387097,1.62903225806452,1.43870967741935,1.39354838709677,1.3741935483871,1.36451612903226,1.34838709677419,1.35483870967742,1.35483870967742,1.34193548387097,1.34838709677419,1.34516129032258,1.35483870967742,1.34516129032258,1.34838709677419,1.34838709677419,1.35483870967742,1.35161290322581,1.35161290322581,1.35483870967742,1.35483870967742,1.35806451612903,1.35806451612903,1.35806451612903,1.36451612903226,1.37096774193548,1.36774193548387,1.37096774193548,1.37741935483871,1.38709677419355,1.38709677419355,1.39354838709677,1.40967741935484,1.41935483870968,1.43225806451613,1.44516129032258,1.46129032258065,1.47096774193548,1.48709677419355,1.49032258064516,1.50645161290323,1.5,1.50645161290323,1.49032258064516,1.46774193548387,1.44516129032258,1.4258064516129,1.39677419354839,1.37741935483871,1.35806451612903,1.34838709677419,1.34193548387097,1.33870967741935,1.34193548387097,1.32903225806452,1.32258064516129,1.32903225806452
1.37096774193548,1.36774193548387,1.36774193548387,1.36451612903226,1.37096774193548,1.36774193548387,1.3741935483871,1.36774193548387,1.36451612903226,1.36774193548387,1.37096774193548,1.36451612903226,1.37096774193548,1.37096774193548,1.37096774193548,1.35806451612903,1.37096774193548,1.36451612903226,1.36774193548387,1.37096774193548,1.36774193548387,1.36129032258065,1.36774193548387,1.37096774193548,1.36774193548387,1.37096774193548,1.3741935483871,1.36774193548387,1.37096774193548,1.36774193548387,1.37096774193548,1.38064516129032,1.36451612903226,1.3741935483871,1.3741935483871,1.37096774193548,1.37096774193548,1.3741935483871,1.37096774193548,1.38064516129032,1.3741935483871,1.3741935483871,1.38064516129032,1.3741935483871,1.38387096774194,1.38387096774194,1.38709677419355,1.39354838709677,1.41290322580645,1.43225806451613,1.44193548387097,1.43548387096774,1.42258064516129,1.39032258064516,1.39032258064516,1.37096774193548,1.36451612903226,1.36451612903226,1.36129032258065,1.36451612903226,1.36451612903226,1.36129032258065,1.36129032258065,1.36129032258065,1.36129032258065,1.37096774193548,1.36451612903226,1.48064516129032,1.68709677419355,1.91290322580645,1.94193548387097,1.53548387096774,1.43870967741935,1.39032258064516,1.39032258064516,1.37741935483871,1.37096774193548,1.3741935483871,1.37096774193548,1.37096774193548,1.36774193548387,1.3741935483871,1.36774193548387,1.3741935483871,1.37096774193548,1.37741935483871,1.37096774193548,1.3741935483871,1.37741935483871,1.3741935483871,1.37741935483871,1.38387096774194,1.38387096774194,1.39032258064516,1.39032258064516,1.39677419354839,1.40322580645161,1.40322580645161,1.40645161290323,1.40645161290323,1.41290322580645,1.42258064516129,1.43548387096774,1.43870967741935,1.45161290322581,1.45806451612903,1.46774193548387,1.48387096774194,1.49677419354839,1.50645161290323,1.51612903225806,1.51612903225806,1.51612903225806,1.51290322580645,1.5,1.4741935483871,1.45806451612903,1.42903225806452,1.41935483870968,1.40645161290323,1.39677419354839,1.39354838709677,1.38064516129032,1.38387096774194,1.37096774193548,1.37741935483871,1.3741935483871,1.37741935483871,1.37096774193548,1.3741935483871,1.37096774193548,1.37096774193548,1.37096774193548,1.37741935483871,1.37096774193548,1.37741935483871,1.37741935483871,1.3741935483871,1.38064516129032,1.38064516129032,1.3741935483871,1.38064516129032,1.38064516129032,1.37741935483871,1.38064516129032,1.37741935483871,1.3741935483871,1.37096774193548,1.37741935483871,1.3741935483871,1.37096774193548,1.37741935483871,1.3741935483871,1.3741935483871,1.3741935483871,1.37096774193548,1.3741935483871,1.36774193548387,1.3741935483871,1.37096774193548,1.37741935483871,1.37096774193548,1.3741935483871,1.37096774193548,1.3741935483871,1.37096774193548,1.3741935483871,1.3741935483871,1.3741935483871,1.36774193548387,1.37741935483871,1.37741935483871,1.37096774193548,1.3741935483871,1.37741935483871,1.37096774193548,1.37741935483871,1.37741935483871,1.37096774193548,1.37096774193548,1.37741935483871,1.3741935483871,1.37096774193548,1.37096774193548,1.37096774193548,1.3741935483871,1.36774193548387,1.37096774193548,1.36774193548387,1.37096774193548,1.3741935483871,1.3741935483871,1.37096774193548,1.37741935483871,1.3741935483871,1.38064516129032,1.3741935483871,1.3741935483871,1.37096774193548,1.38709677419355,1.37741935483871,1.37096774193548,1.38064516129032,1.38387096774194,1.38387096774194,1.39354838709677,1.40322580645161,1.42903225806452,1.43870967741935,1.44516129032258,1.43870967741935,1.41935483870968,1.40322580645161,1.4,1.37096774193548,1.36451612903226,1.36451612903226,1.35483870967742,1.36129032258065,1.36451612903226,1.36129032258065,1.35806451612903,1.36129032258065,1.36774193548387,1.36774193548387,1.38387096774194,1.51935483870968,1.78064516129032,2.00322580645161,1.85161290322581,1.50967741935484,1.42903225806452,1.39677419354839,1.37741935483871,1.38709677419355,1.37741935483871,1.35806451612903,1.3741935483871,1.36774193548387,1.36774193548387,1.36451612903226,1.37096774193548,1.36451612903226,1.36129032258065,1.3741935483871,1.3741935483871,1.37741935483871,1.3741935483871,1.38064516129032,1.38064516129032,1.38709677419355,1.38064516129032,1.39677419354839,1.39354838709677,1.39354838709677,1.40322580645161,1.40322580645161,1.41935483870968,1.41612903225806,1.4258064516129,1.43870967741935,1.45483870967742,1.44516129032258,1.4741935483871,1.48064516129032,1.49354838709677,1.50645161290323,1.50967741935484,1.52903225806452,1.54193548387097,1.53548387096774,1.5258064516129,1.52258064516129,1.49354838709677,1.4741935483871,1.44516129032258,1.43225806451613,1.41935483870968,1.39677419354839,1.38709677419355,1.37741935483871,1.37741935483871,1.36129032258065,1.37741935483871,1.36451612903226,1.36451612903226,1.36451612903226,1.3741935483871,1.36129032258065,1.36129032258065,1.37741935483871,1.3741935483871,1.37096774193548,1.37096774193548,1.37741935483871,1.3741935483871,1.3741935483871,1.36774193548387,1.3741935483871,1.37741935483871,1.3741935483871,1.38064516129032,1.3741935483871,1.3741935483871,1.37741935483871,1.37096774193548,1.3741935483871,1.36451612903226,1.37096774193548,1.38064516129032,1.37096774193548,1.3741935483871,1.36451612903226,1.36451612903226,1.35806451612903,1.37096774193548,1.36774193548387,1.37096774193548,1.37096774193548,1.36774193548387,1.36774193548387,1.37096774193548,1.36451612903226,1.37096774193548,1.3741935483871,1.36129032258065,1.37096774193548,1.36129032258065,1.36451612903226,1.3741935483871,1.35806451612903,1.37741935483871,1.37096774193548,1.36774193548387,1.37096774193548,1.36774193548387,1.36451612903226,1.37096774193548,1.37096774193548,1.37741935483871,1.37741935483871,1.38064516129032,1.37741935483871,1.37096774193548,1.3741935483871,1.38387096774194,1.37096774193548,1.3741935483871,1.36774193548387,1.36774193548387,1.37741935483871,1.3741935483871,1.37741935483871,1.3741935483871,1.37741935483871,1.3741935483871,1.39032258064516,1.38709677419355,1.39032258064516,1.40322580645161,1.40322580645161,1.43225806451613,1.44516129032258,1.44516129032258,1.42903225806452,1.39354838709677,1.4,1.36774193548387,1.3741935483871,1.37096774193548,1.36451612903226,1.36774193548387,1.36774193548387,1.36774193548387,1.36451612903226,1.36129032258065,1.36774193548387,1.38387096774194,1.36129032258065,1.46451612903226,1.65161290322581,1.89354838709677,1.91290322580645,1.50645161290323,1.42258064516129,1.39032258064516,1.38064516129032,1.37741935483871,1.3741935483871,1.36774193548387,1.36774193548387,1.37741935483871,1.3741935483871,1.3741935483871,1.37096774193548,1.3741935483871,1.3741935483871,1.3741935483871,1.37741935483871,1.37741935483871,1.38709677419355,1.37741935483871,1.38709677419355,1.38709677419355,1.39032258064516,1.39677419354839,1.4,1.4,1.40967741935484,1.41290322580645,1.41612903225806,1.41935483870968,1.4258064516129,1.43870967741935,1.43548387096774,1.45483870967742,1.46774193548387,1.4741935483871,1.48387096774194,1.49354838709677,1.50967741935484,1.50645161290323,1.53225806451613,1.5258064516129,1.5258064516129,1.51290322580645,1.49354838709677,1.4741935483871,1.44838709677419,1.42903225806452,1.40967741935484,1.39677419354839,1.38387096774194,1.38709677419355,1.37741935483871,1.3741935483871,1.36451612903226,1.37741935483871,1.36774193548387,1.36451612903226,1.37096774193548,1.36451612903226,1.37096774193548,1.3741935483871,1.3741935483871,1.38064516129032,1.37741935483871,1.37741935483871,1.38387096774194,1.37741935483871,1.38064516129032,1.37741935483871,1.37741935483871,1.3741935483871,1.38064516129032,1.3741935483871,1.3741935483871,1.37096774193548,1.3741935483871,1.38064516129032,1.3741935483871,1.37741935483871,1.37096774193548,1.37096774193548,1.3741935483871,1.3741935483871,1.3741935483871,1.37096774193548,1.37741935483871,1.36774193548387,1.3741935483871,1.3741935483871,1.36774193548387,1.36774193548387,1.36774193548387,1.37096774193548,1.37096774193548,1.3741935483871,1.36774193548387,1.37741935483871,1.3741935483871,1.38064516129032,1.38064516129032,1.37741935483871,1.37096774193548,1.38064516129032,1.37741935483871,1.3741935483871,1.36774193548387,1.37741935483871,1.37096774193548,1.3741935483871,1.3741935483871,1.36774193548387,1.3741935483871,1.37096774193548,1.3741935483871,1.38064516129032,1.37096774193548,1.37096774193548,1.37741935483871,1.3741935483871,1.3741935483871,1.37741935483871,1.38064516129032,1.38709677419355,1.3741935483871,1.37741935483871,1.3741935483871,1.37741935483871,1.38709677419355,1.38709677419355,1.38709677419355,1.39677419354839,1.41935483870968,1.43548387096774,1.45161290322581,1.45161290322581,1.42903225806452,1.4,1.39677419354839,1.3741935483871,1.37096774193548,1.36451612903226,1.36129032258065,1.35806451612903,1.36774193548387,1.36129032258065,1.35806451612903,1.36129032258065,1.37096774193548,1.3741935483871,1.36129032258065,1.48064516129032,1.66774193548387,1.92258064516129,1.99677419354839,1.5741935483871,1.44838709677419,1.38709677419355,1.38387096774194,1.37096774193548,1.3741935483871,1.37096774193548,1.35806451612903,1.35806451612903,1.36451612903226,1.37096774193548,1.36774193548387,1.3741935483871,1.3741935483871,1.37096774193548,1.37096774193548,1.3741935483871,1.3741935483871,1.3741935483871,1.37741935483871,1.37741935483871,1.38064516129032,1.38709677419355,1.39032258064516,1.39354838709677,1.40322580645161,1.39354838709677,1.39354838709677,1.40322580645161,1.41290322580645,1.40967741935484,1.43225806451613,1.43225806451613,1.44838709677419,1.45806451612903,1.46774193548387,1.47741935483871,1.48709677419355,1.5,1.50645161290323,1.51612903225806,1.51612903225806,1.50322580645161,1.49354838709677,1.47096774193548,1.45483870967742,1.43870967741935,1.42258064516129,1.40645161290323,1.4,1.39032258064516,1.39032258064516,1.37741935483871,1.38387096774194,1.38709677419355,1.3741935483871,1.37741935483871,1.37096774193548,1.37096774193548,1.37096774193548,1.37096774193548,1.37096774193548,1.36774193548387,1.37741935483871,1.37096774193548,1.37096774193548,1.38387096774194,1.37741935483871,1.37096774193548,1.38064516129032,1.37741935483871,1.37741935483871,1.3741935483871,1.3741935483871,1.37741935483871,1.38064516129032,1.38064516129032,1.3741935483871,1.37741935483871,1.3741935483871,1.37741935483871,1.36451612903226,1.3741935483871,1.3741935483871,1.37741935483871,1.3741935483871,1.37741935483871,1.3741935483871,1.37741935483871,1.37741935483871,1.38064516129032,1.38064516129032,1.37741935483871,1.37741935483871,1.36774193548387,1.3741935483871,1.38064516129032,1.37741935483871,1.38064516129032,1.38064516129032,1.3741935483871,1.36774193548387,1.3741935483871,1.3741935483871,1.37741935483871,1.37096774193548,1.3741935483871,1.37096774193548,1.3741935483871,1.38064516129032,1.37096774193548,1.37741935483871,1.3741935483871,1.3741935483871,1.37741935483871,1.37741935483871,1.37741935483871,1.38064516129032,1.3741935483871,1.37741935483871,1.37096774193548,1.37741935483871,1.37741935483871,1.37741935483871,1.3741935483871,1.37741935483871,1.3741935483871,1.37741935483871,1.38709677419355,1.38709677419355,1.38709677419355,1.40322580645161,1.42903225806452,1.43870967741935,1.45161290322581,1.43548387096774,1.40967741935484,1.38709677419355,1.38387096774194,1.36451612903226,1.36129032258065,1.35806451612903,1.36129032258065,1.36129032258065,1.36129032258065,1.36451612903226,1.34838709677419,1.36129032258065,1.36129032258065,1.35161290322581,1.40322580645161,1.56774193548387,1.84516129032258,2.01290322580645,1.74838709677419,1.48709677419355,1.40322580645161,1.39354838709677,1.38064516129032,1.36774193548387,1.37096774193548,1.36774193548387,1.36774193548387,1.36774193548387,1.36129032258065,1.36451612903226,1.36774193548387,1.37096774193548,1.36774193548387,1.3741935483871,1.3741935483871,1.37096774193548,1.3741935483871,1.36774193548387,1.37741935483871,1.38064516129032,1.38387096774194,1.38709677419355,1.39032258064516,1.39354838709677,1.39354838709677,1.40322580645161,1.40645161290323,1.42258064516129,1.41935483870968,1.41935483870968,1.43870967741935,1.44838709677419,1.45806451612903,1.47096774193548,1.48064516129032,1.49354838709677,1.50322580645161,1.51935483870968,1.52258064516129,1.52258064516129,1.51612903225806,1.50322580645161,1.49354838709677,1.46451612903226,1.44193548387097,1.42258064516129,1.41612903225806,1.40645161290323,1.4,1.39677419354839,1.38064516129032,1.38387096774194,1.39032258064516,1.37741935483871,1.37741935483871,1.3741935483871,1.37741935483871,1.37096774193548,1.37096774193548,1.36774193548387,1.37096774193548,1.36774193548387,1.3741935483871,1.3741935483871,1.37741935483871,1.36774193548387,1.38064516129032,1.38064516129032,1.3741935483871,1.37741935483871,1.3741935483871,1.3741935483871,1.3741935483871,1.37741935483871,1.38064516129032,1.37096774193548,1.3741935483871,1.37096774193548,1.37096774193548,1.37096774193548,1.37741935483871,1.37741935483871,1.38387096774194,1.37741935483871,1.37096774193548,1.36451612903226,1.38387096774194,1.36774193548387,1.37096774193548,1.37096774193548,1.37741935483871,1.3741935483871,1.37096774193548,1.37096774193548,1.3741935483871,1.3741935483871,1.3741935483871,1.36774193548387,1.3741935483871,1.37096774193548,1.37096774193548,1.37096774193548,1.37096774193548,1.37096774193548,1.36774193548387,1.37741935483871,1.37096774193548,1.3741935483871,1.37096774193548,1.37096774193548,1.3741935483871,1.37096774193548,1.3741935483871,1.3741935483871,1.3741935483871,1.3741935483871,1.37096774193548,1.3741935483871,1.3741935483871,1.3741935483871,1.37096774193548,1.37096774193548,1.37096774193548,1.3741935483871,1.37096774193548,1.37741935483871,1.37741935483871,1.39032258064516,1.39032258064516,1.40322580645161,1.41612903225806,1.43548387096774,1.45161290322581,1.45161290322581,1.42903225806452,1.40645161290323,1.39032258064516,1.37096774193548,1.36451612903226,1.36129032258065,1.36129032258065,1.35483870967742,1.35483870967742,1.35483870967742,1.35483870967742,1.35483870967742,1.36451612903226,1.35806451612903,1.35161290322581,1.4258064516129,1.63548387096774,1.90967741935484,2.03225806451613,1.64838709677419,1.45806451612903,1.39677419354839,1.38709677419355,1.3741935483871,1.36774193548387,1.3741935483871,1.36129032258065,1.36774193548387,1.3741935483871,1.36129032258065,1.36129032258065,1.37741935483871,1.37096774193548,1.36129032258065,1.3741935483871,1.3741935483871,1.37741935483871,1.37741935483871,1.37741935483871,1.38064516129032,1.37741935483871,1.39032258064516,1.39354838709677,1.39354838709677,1.40322580645161,1.40967741935484,1.40967741935484,1.40967741935484,1.41612903225806,1.42258064516129,1.43548387096774,1.44838709677419,1.46451612903226,1.47741935483871,1.48709677419355,1.50645161290323,1.51935483870968,1.52903225806452,1.53225806451613,1.54193548387097,1.53225806451613,1.52258064516129,1.51935483870968,1.49354838709677,1.46451612903226,1.44516129032258,1.4258064516129,1.39354838709677,1.38709677419355,1.39354838709677,1.37096774193548,1.37096774193548,1.37096774193548,1.36774193548387,1.37096774193548,1.36774193548387,1.36451612903226,1.36451612903226,1.35806451612903,1.35806451612903,1.36774193548387,1.36129032258065,1.37096774193548,1.36774193548387,1.37096774193548,1.36774193548387,1.3741935483871,1.38064516129032,1.36451612903226,1.3741935483871,1.36774193548387,1.38064516129032,1.37096774193548,1.3741935483871,1.37741935483871,1.37096774193548,1.37096774193548,1.36774193548387,1.3741935483871,1.36774193548387,1.3741935483871,1.37741935483871,1.37096774193548,1.36774193548387,1.3741935483871,1.36774193548387,1.3741935483871,1.37096774193548,1.36774193548387,1.36451612903226,1.36451612903226,1.36774193548387,1.37096774193548,1.3741935483871,1.37096774193548,1.36774193548387,1.36451612903226,1.37741935483871,1.37096774193548,1.37741935483871,1.37096774193548,1.36451612903226,1.36774193548387,1.37096774193548,1.37096774193548,1.36129032258065,1.37096774193548,1.37096774193548,1.36774193548387,1.36451612903226,1.36774193548387,1.36774193548387,1.36451612903226,1.37096774193548,1.3741935483871,1.35806451612903,1.37096774193548,1.37096774193548,1.3741935483871,1.3741935483871,1.36451612903226,1.3741935483871,1.38064516129032,1.38064516129032,1.38387096774194,1.38709677419355,1.38709677419355,1.41612903225806,1.43870967741935,1.44516129032258,1.43870967741935,1.42258064516129,1.4,1.39354838709677,1.3741935483871,1.36129032258065,1.35806451612903,1.36129032258065,1.35806451612903,1.36451612903226,1.36129032258065,1.35806451612903,1.35806451612903,1.35806451612903,1.35806451612903,1.35161290322581,1.44193548387097,1.64838709677419,1.89032258064516,1.93548387096774,1.51935483870968,1.41612903225806,1.39032258064516,1.38387096774194,1.3741935483871,1.3741935483871,1.36451612903226,1.3741935483871,1.36129032258065,1.3741935483871,1.36774193548387,1.36774193548387,1.36774193548387,1.36129032258065,1.3741935483871,1.38387096774194,1.3741935483871,1.38387096774194,1.38709677419355,1.38709677419355,1.38709677419355,1.39354838709677,1.38709677419355,1.4,1.4,1.40645161290323,1.40967741935484,1.41290322580645,1.42258064516129,1.42903225806452,1.43548387096774,1.44516129032258,1.46129032258065,1.47096774193548,1.48064516129032,1.5,1.51290322580645,1.51935483870968,1.52258064516129,1.54193548387097,1.53548387096774,1.53225806451613,1.52258064516129,1.49354838709677,1.46774193548387,1.45161290322581,1.42903225806452,1.41935483870968,1.4,1.39354838709677,1.38709677419355,1.38064516129032,1.3741935483871,1.37096774193548,1.37096774193548,1.36774193548387,1.37741935483871,1.37741935483871,1.3741935483871,1.37741935483871,1.38387096774194,1.3741935483871,1.38387096774194,1.38387096774194,1.38387096774194,1.38709677419355,1.38064516129032,1.39354838709677,1.38387096774194,1.39032258064516,1.38387096774194,1.38387096774194,1.38387096774194,1.38387096774194,1.38387096774194,1.38387096774194,1.38064516129032,1.37096774193548,1.3741935483871,1.37741935483871,1.38064516129032,1.3741935483871,1.37741935483871,1.37741935483871,1.3741935483871,1.3741935483871,1.37741935483871,1.3741935483871,1.37741935483871,1.37096774193548,1.38064516129032,1.3741935483871,1.37741935483871,1.38387096774194,1.36774193548387,1.37096774193548,1.38064516129032,1.37096774193548,1.37096774193548,1.37096774193548,1.37741935483871,1.37741935483871,1.37741935483871,1.37096774193548,1.37741935483871,1.3741935483871,1.3741935483871,1.37096774193548,1.37741935483871,1.37741935483871,1.3741935483871,1.3741935483871,1.37741935483871,1.38064516129032,1.37741935483871,1.3741935483871,1.3741935483871,1.38387096774194,1.37096774193548,1.37096774193548,1.37096774193548,1.37096774193548,1.37741935483871,1.37741935483871,1.3741935483871,1.37741935483871,1.38387096774194,1.39032258064516,1.39032258064516,1.4,1.41612903225806,1.43225806451613,1.44838709677419,1.44516129032258,1.4258064516129,1.39354838709677,1.38709677419355,1.36774193548387,1.36451612903226,1.36451612903226,1.35483870967742,1.35806451612903,1.35806451612903,1.35806451612903,1.35483870967742,1.35483870967742,1.35483870967742,1.36129032258065,1.36129032258065,1.47741935483871,1.69032258064516,1.92903225806452,1.98709677419355,1.54838709677419,1.43548387096774,1.38387096774194,1.37741935483871,1.36451612903226,1.36129032258065,1.35483870967742,1.34838709677419,1.35161290322581,1.35483870967742,1.35483870967742,1.35483870967742,1.35806451612903,1.35806451612903,1.36129032258065,1.35806451612903,1.36451612903226,1.35483870967742,1.36129032258065,1.36451612903226,1.37096774193548,1.37096774193548,1.37096774193548,1.37096774193548,1.37096774193548,1.38064516129032,1.38709677419355,1.38387096774194,1.39677419354839,1.40645161290323,1.40645161290323,1.41935483870968,1.4258064516129,1.43870967741935,1.44838709677419,1.46129032258065,1.47096774193548,1.48709677419355,1.49677419354839,1.50322580645161,1.50967741935484,1.50967741935484,1.49032258064516,1.48064516129032,1.46129032258065,1.43870967741935,1.42258064516129,1.40322580645161,1.39354838709677,1.38387096774194,1.37741935483871,1.37096774193548,1.37096774193548,1.36774193548387,1.37096774193548,1.36451612903226,1.36774193548387,1.36451612903226,1.36129032258065,1.36774193548387,1.36451612903226,1.36774193548387,1.36451612903226,1.36774193548387,1.37096774193548,1.37096774193548,1.36774193548387,1.37741935483871,1.37741935483871,1.3741935483871,1.37096774193548,1.38387096774194,1.3741935483871,1.38387096774194,1.38709677419355,1.39032258064516,1.38387096774194,1.39032258064516,1.38709677419355,1.39032258064516,1.38709677419355,1.39354838709677,1.38387096774194,1.39354838709677,1.39032258064516,1.4,1.4,1.4,1.39677419354839,1.40645161290323,1.40967741935484,1.41612903225806,1.41290322580645,1.41612903225806,1.41935483870968,1.41935483870968,1.42258064516129,1.42903225806452,1.43225806451613,1.42903225806452
1.37741935483871,1.3741935483871,1.3741935483871,1.3741935483871,1.38064516129032,1.37096774193548,1.3741935483871,1.3741935483871,1.3741935483871,1.37741935483871,1.37741935483871,1.37096774193548,1.37096774193548,1.3741935483871,1.3741935483871,1.37096774193548,1.38064516129032,1.37096774193548,1.37096774193548,1.3741935483871,1.3741935483871,1.3741935483871,1.3741935483871,1.3741935483871,1.3741935483871,1.3741935483871,1.37741935483871,1.37741935483871,1.3741935483871,1.3741935483871,1.38064516129032,1.3741935483871,1.37741935483871,1.37741935483871,1.37096774193548,1.3741935483871,1.37096774193548,1.37741935483871,1.37741935483871,1.3741935483871,1.38387096774194,1.38387096774194,1.39032258064516,1.40322580645161,1.41935483870968,1.44193548387097,1.45161290322581,1.44516129032258,1.4258064516129,1.39677419354839,1.39032258064516,1.37741935483871,1.36129032258065,1.36774193548387,1.36451612903226,1.36129032258065,1.35806451612903,1.35483870967742,1.35483870967742,1.35161290322581,1.36451612903226,1.36774193548387,1.36774193548387,1.48387096774194,1.70967741935484,1.95161290322581,1.99032258064516,1.55483870967742,1.44193548387097,1.38709677419355,1.38709677419355,1.3741935483871,1.36129032258065,1.35806451612903,1.36451612903226,1.35806451612903,1.36129032258065,1.36129032258065,1.36451612903226,1.36451612903226,1.37096774193548,1.36451612903226,1.37096774193548,1.36774193548387,1.3741935483871,1.3741935483871,1.37096774193548,1.37741935483871,1.3741935483871,1.38709677419355,1.38387096774194,1.38709677419355,1.39032258064516,1.4,1.4,1.40967741935484,1.41612903225806,1.41935483870968,1.42903225806452,1.43870967741935,1.45161290322581,1.46129032258065,1.47096774193548,1.48709677419355,1.5,1.50645161290323,1.51935483870968,1.51935483870968,1.51935483870968,1.50967741935484,1.49354838709677,1.47096774193548,1.44838709677419,1.43225806451613,1.41612903225806,1.40645161290323,1.39354838709677,1.38709677419355,1.38387096774194,1.3741935483871,1.37741935483871,1.37741935483871,1.36451612903226,1.37741935483871,1.36774193548387,1.36774193548387,1.37096774193548,1.36774193548387,1.36451612903226,1.37096774193548,1.37096774193548,1.37096774193548,1.37096774193548,1.37096774193548,1.37741935483871,1.3741935483871,1.3741935483871,1.38064516129032,1.37096774193548,1.37096774193548,1.37096774193548,1.37741935483871,1.37096774193548,1.36774193548387,1.37741935483871,1.37741935483871,1.37741935483871,1.37096774193548,1.3741935483871,1.36774193548387,1.3741935483871,1.3741935483871,1.37096774193548,1.37096774193548,1.37096774193548,1.3741935483871,1.37096774193548,1.3741935483871,1.36774193548387,1.3741935483871,1.37741935483871,1.37741935483871,1.3741935483871,1.37096774193548,1.37096774193548,1.36774193548387,1.37741935483871,1.3741935483871,1.37096774193548,1.37096774193548,1.3741935483871,1.37741935483871,1.37096774193548,1.3741935483871,1.3741935483871,1.3741935483871,1.37096774193548,1.37741935483871,1.3741935483871,1.37741935483871,1.37096774193548,1.37096774193548,1.37096774193548,1.37096774193548,1.3741935483871,1.3741935483871,1.3741935483871,1.3741935483871,1.3741935483871,1.37741935483871,1.37096774193548,1.37741935483871,1.37741935483871,1.37741935483871,1.37741935483871,1.3741935483871,1.38387096774194,1.38709677419355,1.39677419354839,1.40322580645161,1.41935483870968,1.44516129032258,1.45483870967742,1.44516129032258,1.43870967741935,1.41290322580645,1.4,1.3741935483871,1.36451612903226,1.36774193548387,1.36774193548387,1.35161290322581,1.36129032258065,1.36129032258065,1.36129032258065,1.36129032258065,1.36774193548387,1.36129032258065,1.35483870967742,1.43225806451613,1.62903225806452,1.91290322580645,2.05161290322581,1.65806451612903,1.45806451612903,1.40322580645161,1.39032258064516,1.38064516129032,1.36774193548387,1.3741935483871,1.36129032258065,1.36451612903226,1.36451612903226,1.3741935483871,1.36774193548387,1.36451612903226,1.37096774193548,1.37096774193548,1.3741935483871,1.36129032258065,1.3741935483871,1.37741935483871,1.36774193548387,1.37741935483871,1.38387096774194,1.38387096774194,1.38709677419355,1.39354838709677,1.40322580645161,1.40322580645161,1.4,1.40967741935484,1.42258064516129,1.42258064516129,1.43225806451613,1.44516129032258,1.45161290322581,1.47096774193548,1.47741935483871,1.49677419354839,1.50322580645161,1.51612903225806,1.5258064516129,1.5258064516129,1.53870967741935,1.52258064516129,1.51290322580645,1.48387096774194,1.45806451612903,1.44516129032258,1.41612903225806,1.41290322580645,1.4,1.38387096774194,1.38064516129032,1.37741935483871,1.37741935483871,1.37741935483871,1.37741935483871,1.36774193548387,1.36451612903226,1.36774193548387,1.36774193548387,1.36774193548387,1.36774193548387,1.36451612903226,1.36774193548387,1.37096774193548,1.3741935483871,1.37096774193548,1.37096774193548,1.38064516129032,1.36774193548387,1.38064516129032,1.37741935483871,1.37096774193548,1.38387096774194,1.37096774193548,1.37741935483871,1.36774193548387,1.37741935483871,1.3741935483871,1.36774193548387,1.37096774193548,1.3741935483871,1.36774193548387,1.3741935483871,1.36774193548387,1.38064516129032,1.36774193548387,1.37096774193548,1.37096774193548,1.3741935483871,1.37096774193548,1.3741935483871,1.36774193548387,1.36774193548387,1.37096774193548,1.36451612903226,1.36129032258065,1.37096774193548,1.38064516129032,1.3741935483871,1.36129032258065,1.37096774193548,1.36774193548387,1.37096774193548,1.38064516129032,1.36451612903226,1.37096774193548,1.36774193548387,1.37096774193548,1.3741935483871,1.38064516129032,1.37741935483871,1.3741935483871,1.36451612903226,1.37096774193548,1.3741935483871,1.36774193548387,1.38064516129032,1.37096774193548,1.3741935483871,1.3741935483871,1.37741935483871,1.37741935483871,1.37096774193548,1.37096774193548,1.37741935483871,1.3741935483871,1.37096774193548,1.38709677419355,1.38064516129032,1.38064516129032,1.38709677419355,1.39354838709677,1.40322580645161,1.42903225806452,1.43548387096774,1.44838709677419,1.44516129032258,1.4258064516129,1.39354838709677,1.39032258064516,1.3741935483871,1.36774193548387,1.36451612903226,1.35806451612903,1.35806451612903,1.35161290322581,1.35483870967742,1.36129032258065,1.36451612903226,1.36451612903226,1.36774193548387,1.39354838709677,1.54838709677419,1.80967741935484,2.01612903225806,1.76774193548387,1.45806451612903,1.41612903225806,1.38709677419355,1.38387096774194,1.36774193548387,1.36774193548387,1.36451612903226,1.36774193548387,1.36774193548387,1.37096774193548,1.35806451612903,1.37096774193548,1.37096774193548,1.36774193548387,1.37741935483871,1.38064516129032,1.38387096774194,1.3741935483871,1.38064516129032,1.38064516129032,1.38064516129032,1.38387096774194,1.39354838709677,1.4,1.40322580645161,1.39677419354839,1.40645161290323,1.41612903225806,1.41935483870968,1.4258064516129,1.44193548387097,1.44838709677419,1.46129032258065,1.47096774193548,1.48709677419355,1.49354838709677,1.50967741935484,1.52903225806452,1.52903225806452,1.53548387096774,1.53225806451613,1.52903225806452,1.50967741935484,1.49032258064516,1.46129032258065,1.44193548387097,1.42258064516129,1.40645161290323,1.39354838709677,1.38709677419355,1.3741935483871,1.3741935483871,1.37096774193548,1.36774193548387,1.36451612903226,1.36451612903226,1.36774193548387,1.36774193548387,1.36774193548387,1.37096774193548,1.37741935483871,1.3741935483871,1.3741935483871,1.3741935483871,1.37096774193548,1.38064516129032,1.38387096774194,1.37741935483871,1.37741935483871,1.38064516129032,1.37741935483871,1.37741935483871,1.37741935483871,1.3741935483871,1.3741935483871,1.37741935483871,1.3741935483871,1.3741935483871,1.37741935483871,1.37096774193548,1.36774193548387,1.37096774193548,1.3741935483871,1.3741935483871,1.36774193548387,1.36129032258065,1.36451612903226,1.37096774193548,1.3741935483871,1.36451612903226,1.36774193548387,1.3741935483871,1.37096774193548,1.3741935483871,1.36774193548387,1.37096774193548,1.3741935483871,1.36129032258065,1.36774193548387,1.37096774193548,1.36451612903226,1.3741935483871,1.36451612903226,1.3741935483871,1.3741935483871,1.36774193548387,1.3741935483871,1.37096774193548,1.36129032258065,1.36451612903226,1.3741935483871,1.37096774193548,1.37096774193548,1.3741935483871,1.3741935483871,1.37096774193548,1.3741935483871,1.3741935483871,1.3741935483871,1.36774193548387,1.37096774193548,1.3741935483871,1.37096774193548,1.37096774193548,1.37741935483871,1.38387096774194,1.39032258064516,1.38387096774194,1.39354838709677,1.4,1.42903225806452,1.43870967741935,1.44516129032258,1.44193548387097,1.41612903225806,1.39032258064516,1.39032258064516,1.36774193548387,1.37096774193548,1.35806451612903,1.36451612903226,1.36451612903226,1.35806451612903,1.35806451612903,1.35806451612903,1.36129032258065,1.36129032258065,1.35161290322581,1.40967741935484,1.57741935483871,1.86129032258065,2.02258064516129,1.70967741935484,1.47096774193548,1.40322580645161,1.39354838709677,1.38387096774194,1.3741935483871,1.36774193548387,1.36774193548387,1.36451612903226,1.36774193548387,1.37096774193548,1.36129032258065,1.36451612903226,1.36774193548387,1.36774193548387,1.37096774193548,1.36774193548387,1.3741935483871,1.37741935483871,1.36774193548387,1.38387096774194,1.37741935483871,1.39032258064516,1.39032258064516,1.39354838709677,1.4,1.4,1.4,1.40645161290323,1.41612903225806,1.42258064516129,1.43225806451613,1.43870967741935,1.45161290322581,1.45806451612903,1.47096774193548,1.48387096774194,1.49677419354839,1.50645161290323,1.52258064516129,1.5258064516129,1.52903225806452,1.51935483870968,1.50322580645161,1.47741935483871,1.46451612903226,1.44516129032258,1.42258064516129,1.40967741935484,1.4,1.39032258064516,1.38387096774194,1.37741935483871,1.37741935483871,1.37096774193548,1.3741935483871,1.37096774193548,1.37741935483871,1.37096774193548,1.37096774193548,1.37096774193548,1.37741935483871,1.37741935483871,1.36451612903226,1.37741935483871,1.37741935483871,1.37096774193548,1.37741935483871,1.38064516129032,1.38064516129032,1.38064516129032,1.38064516129032,1.37741935483871,1.37741935483871,1.38064516129032,1.38064516129032,1.37741935483871,1.37741935483871,1.3741935483871,1.3741935483871,1.37096774193548,1.37741935483871,1.37741935483871,1.3741935483871,1.3741935483871,1.37096774193548,1.37741935483871,1.37741935483871,1.37741935483871,1.37096774193548,1.37096774193548,1.37741935483871,1.37096774193548,1.37741935483871,1.36774193548387,1.36774193548387,1.3741935483871,1.37096774193548,1.37741935483871,1.3741935483871,1.3741935483871,1.3741935483871,1.37096774193548,1.37096774193548,1.3741935483871,1.3741935483871,1.36774193548387,1.3741935483871,1.37096774193548,1.3741935483871,1.37096774193548,1.3741935483871,1.3741935483871,1.3741935483871,1.3741935483871,1.37096774193548,1.37741935483871,1.38064516129032,1.37096774193548,1.37096774193548,1.3741935483871,1.36774193548387,1.37741935483871,1.3741935483871,1.3741935483871,1.3741935483871,1.37741935483871,1.37096774193548,1.3741935483871,1.38709677419355,1.39032258064516,1.39032258064516,1.40322580645161,1.42258064516129,1.44516129032258,1.45483870967742,1.44516129032258,1.41935483870968,1.40322580645161,1.39032258064516,1.3741935483871,1.36451612903226,1.36129032258065,1.37096774193548,1.35483870967742,1.35806451612903,1.35806451612903,1.36451612903226,1.35161290322581,1.35806451612903,1.36451612903226,1.35483870967742,1.46129032258065,1.68709677419355,1.95161290322581,2.02258064516129,1.57741935483871,1.44193548387097,1.39032258064516,1.38709677419355,1.37096774193548,1.37096774193548,1.36129032258065,1.36129032258065,1.36774193548387,1.36451612903226,1.36451612903226,1.36451612903226,1.36774193548387,1.36774193548387,1.35806451612903,1.36774193548387,1.37096774193548,1.37096774193548,1.3741935483871,1.3741935483871,1.38064516129032,1.38064516129032,1.38709677419355,1.38709677419355,1.39677419354839,1.39354838709677,1.40322580645161,1.40322580645161,1.40967741935484,1.41612903225806,1.42903225806452,1.43225806451613,1.44193548387097,1.45806451612903,1.46451612903226,1.48387096774194,1.49677419354839,1.50967741935484,1.51935483870968,1.52258064516129,1.52903225806452,1.52903225806452,1.52258064516129,1.50322580645161,1.47741935483871,1.46129032258065,1.44193548387097,1.41935483870968,1.40322580645161,1.39032258064516,1.38709677419355,1.38387096774194,1.38387096774194,1.37741935483871,1.37741935483871,1.37096774193548,1.36774193548387,1.36774193548387,1.3741935483871,1.36774193548387,1.37096774193548,1.37096774193548,1.37096774193548,1.37096774193548,1.37096774193548,1.3741935483871,1.38064516129032,1.37096774193548,1.37741935483871,1.37741935483871,1.38064516129032,1.37741935483871,1.3741935483871,1.3741935483871,1.38064516129032,1.37741935483871,1.37096774193548,1.38064516129032,1.3741935483871,1.3741935483871,1.3741935483871,1.37096774193548,1.36774193548387,1.37096774193548,1.36774193548387,1.3741935483871,1.36774193548387,1.37741935483871,1.3741935483871,1.37096774193548,1.37096774193548,1.36774193548387,1.37096774193548,1.37096774193548,1.3741935483871,1.36774193548387,1.36774193548387,1.37096774193548,1.37096774193548,1.3741935483871,1.36774193548387,1.37096774193548,1.36451612903226,1.37096774193548,1.36774193548387,1.37096774193548,1.36774193548387,1.36774193548387,1.36774193548387,1.36774193548387,1.38064516129032,1.36451612903226,1.37096774193548,1.3741935483871,1.37096774193548,1.37741935483871,1.36774193548387,1.37741935483871,1.37096774193548,1.36774193548387,1.3741935483871,1.38064516129032,1.36774193548387,1.3741935483871,1.3741935483871,1.3741935483871,1.37741935483871,1.38387096774194,1.37741935483871,1.37096774193548,1.38387096774194,1.39354838709677,1.39677419354839,1.40322580645161,1.42258064516129,1.43870967741935,1.45806451612903,1.44838709677419,1.42903225806452,1.41290322580645,1.39032258064516,1.37096774193548,1.36129032258065,1.36451612903226,1.36129032258065,1.35483870967742,1.36129032258065,1.35806451612903,1.36451612903226,1.35806451612903,1.36129032258065,1.37096774193548,1.34838709677419,1.45161290322581,1.65806451612903,1.93870967741935,2.04193548387097,1.60645161290323,1.44838709677419,1.39354838709677,1.38387096774194,1.38709677419355,1.38064516129032,1.36774193548387,1.36774193548387,1.35806451612903,1.36774193548387,1.3741935483871,1.36451612903226,1.36774193548387,1.36451612903226,1.3741935483871,1.37741935483871,1.3741935483871,1.3741935483871,1.38064516129032,1.38064516129032,1.38064516129032,1.39032258064516,1.38709677419355,1.39354838709677,1.40322580645161,1.4,1.4,1.41290322580645,1.41290322580645,1.4258064516129,1.42903225806452,1.43225806451613,1.44838709677419,1.46774193548387,1.48387096774194,1.49677419354839,1.50322580645161,1.51935483870968,1.52903225806452,1.53225806451613,1.54193548387097,1.53548387096774,1.52258064516129,1.5,1.47096774193548,1.45483870967742,1.43548387096774,1.40967741935484,1.40322580645161,1.39354838709677,1.37741935483871,1.38064516129032,1.3741935483871,1.36774193548387,1.37096774193548,1.36774193548387,1.35806451612903,1.36129032258065,1.37741935483871,1.37096774193548,1.36129032258065,1.36451612903226,1.37096774193548,1.36774193548387,1.38064516129032,1.3741935483871,1.37741935483871,1.3741935483871,1.36129032258065,1.38064516129032,1.37741935483871,1.37741935483871,1.36774193548387,1.36451612903226,1.37741935483871,1.3741935483871,1.3741935483871,1.37096774193548,1.36774193548387,1.36129032258065,1.37741935483871,1.37096774193548,1.3741935483871,1.3741935483871,1.36129032258065,1.3741935483871,1.36774193548387,1.36451612903226,1.36774193548387,1.37096774193548,1.37096774193548,1.3741935483871,1.36774193548387,1.36129032258065,1.36774193548387,1.35806451612903,1.37096774193548,1.36451612903226,1.36774193548387,1.37096774193548,1.36451612903226,1.36451612903226,1.36451612903226,1.37096774193548,1.37096774193548,1.36774193548387,1.36129032258065,1.36774193548387,1.36774193548387,1.37096774193548,1.36451612903226,1.36774193548387,1.37096774193548,1.37096774193548,1.37096774193548,1.36774193548387,1.37096774193548,1.36774193548387,1.36774193548387,1.36774193548387,1.37096774193548,1.37096774193548,1.36451612903226,1.37096774193548,1.37096774193548,1.38064516129032,1.37741935483871,1.38709677419355,1.40322580645161,1.41935483870968,1.43225806451613,1.45161290322581,1.43225806451613,1.41612903225806,1.39354838709677,1.38064516129032,1.36774193548387,1.36451612903226,1.36129032258065,1.35483870967742,1.35806451612903,1.35806451612903,1.35483870967742,1.35806451612903,1.35161290322581,1.35806451612903,1.36451612903226,1.37096774193548,1.5,1.72903225806452,1.95161290322581,1.88387096774194,1.5,1.42903225806452,1.38387096774194,1.38387096774194,1.3741935483871,1.37096774193548,1.35483870967742,1.36451612903226,1.37096774193548,1.36129032258065,1.36129032258065,1.36774193548387,1.36451612903226,1.3741935483871,1.37741935483871,1.3741935483871,1.3741935483871,1.37096774193548,1.3741935483871,1.37741935483871,1.38387096774194,1.38064516129032,1.39032258064516,1.39354838709677,1.4,1.4,1.40645161290323,1.41290322580645,1.41935483870968,1.42903225806452,1.42903225806452,1.43225806451613,1.45161290322581,1.46129032258065,1.47741935483871,1.49032258064516,1.49677419354839,1.51290322580645,1.51612903225806,1.52903225806452,1.53548387096774,1.5258064516129,1.51290322580645,1.49677419354839,1.47741935483871,1.45161290322581,1.43225806451613,1.41935483870968,1.40645161290323,1.39677419354839,1.39032258064516,1.38064516129032,1.38387096774194,1.38064516129032,1.38064516129032,1.38387096774194,1.37096774193548,1.37741935483871,1.38064516129032,1.37741935483871,1.37096774193548,1.37741935483871,1.37096774193548,1.38387096774194,1.38709677419355,1.38064516129032,1.38064516129032,1.39032258064516,1.38709677419355,1.38709677419355,1.38709677419355,1.38387096774194,1.38709677419355,1.38387096774194,1.38387096774194,1.38387096774194,1.38387096774194,1.38064516129032,1.38709677419355,1.38064516129032,1.38387096774194,1.38387096774194,1.38064516129032,1.38387096774194,1.37741935483871,1.38064516129032,1.38387096774194,1.38387096774194,1.38064516129032,1.38387096774194,1.37741935483871,1.37741935483871,1.38064516129032,1.37096774193548,1.38387096774194,1.38064516129032,1.37741935483871,1.38064516129032,1.3741935483871,1.37741935483871,1.37741935483871,1.38064516129032,1.3741935483871,1.38387096774194,1.38387096774194,1.37741935483871,1.37741935483871,1.38064516129032,1.37096774193548,1.38064516129032,1.37741935483871,1.38064516129032,1.37096774193548,1.38387096774194,1.37741935483871,1.37741935483871,1.37741935483871,1.38387096774194,1.37741935483871,1.37741935483871,1.3741935483871,1.36774193548387,1.3741935483871,1.37741935483871,1.37741935483871,1.37096774193548,1.38064516129032,1.3741935483871,1.38064516129032,1.39032258064516,1.38387096774194,1.39677419354839,1.40967741935484,1.43225806451613,1.44838709677419,1.44516129032258,1.43548387096774,1.41290322580645,1.39032258064516,1.37741935483871,1.36451612903226,1.35806451612903,1.35806451612903,1.36129032258065,1.34193548387097,1.35483870967742,1.35161290322581,1.35161290322581,1.35483870967742,1.35483870967742,1.34516129032258,1.40322580645161,1.56451612903226,1.84193548387097,2.01935483870968,1.74516129032258,1.46774193548387,1.40322580645161,1.38064516129032,1.36451612903226,1.36129032258065,1.35483870967742,1.34838709677419,1.35483870967742,1.35161290322581,1.34838709677419,1.35161290322581,1.34516129032258,1.35483870967742,1.36129032258065,1.35161290322581,1.35806451612903,1.36129032258065,1.35806451612903,1.35806451612903,1.35806451612903,1.36129032258065,1.36774193548387,1.36774193548387,1.37096774193548,1.38064516129032,1.37741935483871,1.38709677419355,1.39032258064516,1.4,1.40645161290323,1.41290322580645,1.42258064516129,1.43225806451613,1.44838709677419,1.45806451612903,1.46774193548387,1.48709677419355,1.49032258064516,1.50645161290323,1.51612903225806,1.51612903225806,1.50645161290323,1.49354838709677,1.4741935483871,1.45161290322581,1.42903225806452,1.40645161290323,1.40322580645161,1.38709677419355,1.38387096774194,1.37096774193548,1.37096774193548,1.36451612903226,1.36129032258065,1.36451612903226,1.36129032258065,1.36129032258065,1.35806451612903,1.35161290322581,1.36451612903226,1.36451612903226,1.36451612903226,1.36451612903226,1.36774193548387,1.37096774193548,1.3741935483871,1.3741935483871,1.3741935483871,1.3741935483871,1.37741935483871,1.3741935483871,1.38709677419355,1.38387096774194,1.38387096774194,1.38387096774194,1.38064516129032,1.39032258064516,1.39354838709677,1.39032258064516,1.39354838709677,1.39354838709677,1.39677419354839,1.39032258064516,1.4,1.40322580645161,1.4,1.40322580645161,1.40967741935484,1.40967741935484,1.41612903225806,1.41612903225806,1.41612903225806,1.41935483870968,1.4258064516129,1.42903225806452,1.42903225806452,1.43225806451613
1.37096774193548,1.37096774193548,1.37096774193548,1.3741935483871,1.3741935483871,1.36774193548387,1.36774193548387,1.37096774193548,1.3741935483871,1.3741935483871,1.37096774193548,1.37096774193548,1.37096774193548,1.3741935483871,1.37096774193548,1.37096774193548,1.3741935483871,1.36451612903226,1.36774193548387,1.3741935483871,1.3741935483871,1.3741935483871,1.3741935483871,1.3741935483871,1.3741935483871,1.3741935483871,1.3741935483871,1.3741935483871,1.37096774193548,1.37096774193548,1.3741935483871,1.3741935483871,1.37096774193548,1.37096774193548,1.36774193548387,1.38709677419355,1.38387096774194,1.38709677419355,1.40967741935484,1.41612903225806,1.42903225806452,1.45161290322581,1.44193548387097,1.42903225806452,1.40322580645161,1.39354838709677,1.37096774193548,1.35483870967742,1.36451612903226,1.36129032258065,1.36129032258065,1.35161290322581,1.36129032258065,1.35483870967742,1.35161290322581,1.35483870967742,1.36129032258065,1.34516129032258,1.41612903225806,1.58709677419355,1.88709677419355,2.03225806451613,1.69032258064516,1.46774193548387,1.4,1.39032258064516,1.3741935483871,1.36774193548387,1.36129032258065,1.36451612903226,1.36129032258065,1.36129032258065,1.36451612903226,1.36129032258065,1.36774193548387,1.36774193548387,1.35806451612903,1.36451612903226,1.37096774193548,1.37096774193548,1.3741935483871,1.38064516129032,1.3741935483871,1.38064516129032,1.38064516129032,1.38709677419355,1.39032258064516,1.39032258064516,1.4,1.4,1.40645161290323,1.41612903225806,1.42258064516129,1.42903225806452,1.44838709677419,1.45806451612903,1.46774193548387,1.48709677419355,1.49677419354839,1.50967741935484,1.5258064516129,1.53225806451613,1.54193548387097,1.52903225806452,1.5258064516129,1.49677419354839,1.48064516129032,1.45483870967742,1.43548387096774,1.41290322580645,1.40322580645161,1.38709677419355,1.38709677419355,1.38387096774194,1.37741935483871,1.37741935483871,1.37096774193548,1.36774193548387,1.36774193548387,1.36774193548387,1.36451612903226,1.36774193548387,1.37096774193548,1.36451612903226,1.37096774193548,1.36451612903226,1.3741935483871,1.37096774193548,1.3741935483871,1.3741935483871,1.38064516129032,1.3741935483871,1.36774193548387,1.3741935483871,1.37741935483871,1.3741935483871,1.3741935483871,1.36451612903226,1.3741935483871,1.37741935483871,1.37741935483871,1.3741935483871,1.37096774193548,1.37096774193548,1.3741935483871,1.3741935483871,1.37096774193548,1.36774193548387,1.36451612903226,1.3741935483871,1.36451612903226,1.37741935483871,1.3741935483871,1.3741935483871,1.36774193548387,1.37096774193548,1.37096774193548,1.36774193548387,1.3741935483871,1.3741935483871,1.3741935483871,1.3741935483871,1.36451612903226,1.37741935483871,1.37096774193548,1.37096774193548,1.37096774193548,1.36129032258065,1.3741935483871,1.3741935483871,1.36774193548387,1.3741935483871,1.3741935483871,1.37096774193548,1.37096774193548,1.3741935483871,1.36774193548387,1.37741935483871,1.37096774193548,1.3741935483871,1.37096774193548,1.3741935483871,1.36774193548387,1.37096774193548,1.37096774193548,1.3741935483871,1.3741935483871,1.37096774193548,1.36774193548387,1.37741935483871,1.38064516129032,1.38387096774194,1.38709677419355,1.38709677419355,1.40967741935484,1.43870967741935,1.43870967741935,1.44838709677419,1.43870967741935,1.41290322580645,1.39677419354839,1.38387096774194,1.36129032258065,1.35806451612903,1.36129032258065,1.36129032258065,1.34838709677419,1.35806451612903,1.36774193548387,1.35806451612903,1.35483870967742,1.36451612903226,1.35806451612903,1.38387096774194,1.54193548387097,1.80322580645161,2.02903225806452,1.83870967741935,1.49354838709677,1.41935483870968,1.38387096774194,1.38064516129032,1.36451612903226,1.37096774193548,1.36451612903226,1.36451612903226,1.36129032258065,1.36451612903226,1.36451612903226,1.37741935483871,1.37096774193548,1.36451612903226,1.36774193548387,1.36774193548387,1.37096774193548,1.38064516129032,1.37096774193548,1.38387096774194,1.38387096774194,1.38064516129032,1.39354838709677,1.38709677419355,1.39032258064516,1.4,1.40645161290323,1.40967741935484,1.41935483870968,1.4258064516129,1.43548387096774,1.45483870967742,1.46451612903226,1.47741935483871,1.48709677419355,1.51290322580645,1.52258064516129,1.53548387096774,1.54838709677419,1.54193548387097,1.54838709677419,1.53225806451613,1.51290322580645,1.48709677419355,1.46451612903226,1.44516129032258,1.4258064516129,1.40967741935484,1.38709677419355,1.38709677419355,1.38064516129032,1.37096774193548,1.36774193548387,1.37741935483871,1.36129032258065,1.37096774193548,1.36451612903226,1.36129032258065,1.37096774193548,1.36774193548387,1.37096774193548,1.3741935483871,1.3741935483871,1.37096774193548,1.3741935483871,1.38064516129032,1.37741935483871,1.38064516129032,1.3741935483871,1.3741935483871,1.38064516129032,1.37741935483871,1.3741935483871,1.38064516129032,1.3741935483871,1.36774193548387,1.37741935483871,1.3741935483871,1.3741935483871,1.36774193548387,1.37741935483871,1.37096774193548,1.37096774193548,1.37096774193548,1.36774193548387,1.37096774193548,1.36129032258065,1.36451612903226,1.37096774193548,1.37096774193548,1.37096774193548,1.36451612903226,1.37096774193548,1.37096774193548,1.36774193548387,1.36774193548387,1.36129032258065,1.36774193548387,1.36774193548387,1.36774193548387,1.36774193548387,1.36451612903226,1.36774193548387,1.36451612903226,1.36774193548387,1.37096774193548,1.3741935483871,1.36774193548387,1.36774193548387,1.3741935483871,1.37096774193548,1.3741935483871,1.36451612903226,1.3741935483871,1.3741935483871,1.36774193548387,1.36774193548387,1.37096774193548,1.36774193548387,1.37096774193548,1.3741935483871,1.36774193548387,1.37096774193548,1.3741935483871,1.38387096774194,1.3741935483871,1.38709677419355,1.40322580645161,1.40967741935484,1.43548387096774,1.44838709677419,1.44193548387097,1.43548387096774,1.4,1.39354838709677,1.3741935483871,1.36129032258065,1.36451612903226,1.36129032258065,1.36129032258065,1.36129032258065,1.35806451612903,1.35806451612903,1.35161290322581,1.36129032258065,1.36451612903226,1.34838709677419,1.43870967741935,1.63225806451613,1.89032258064516,2.00645161290323,1.61290322580645,1.43548387096774,1.39354838709677,1.38709677419355,1.3741935483871,1.37741935483871,1.36451612903226,1.37096774193548,1.36774193548387,1.36451612903226,1.36451612903226,1.36451612903226,1.37096774193548,1.3741935483871,1.36774193548387,1.37096774193548,1.37096774193548,1.3741935483871,1.37741935483871,1.38064516129032,1.38709677419355,1.38064516129032,1.37741935483871,1.38709677419355,1.39677419354839,1.39677419354839,1.40645161290323,1.40967741935484,1.42258064516129,1.4258064516129,1.43548387096774,1.42903225806452,1.45161290322581,1.46129032258065,1.47096774193548,1.49032258064516,1.5,1.51290322580645,1.52258064516129,1.53548387096774,1.53225806451613,1.52903225806452,1.51290322580645,1.5,1.47741935483871,1.45483870967742,1.43225806451613,1.41612903225806,1.40645161290323,1.39354838709677,1.38387096774194,1.38387096774194,1.38064516129032,1.38064516129032,1.36451612903226,1.37096774193548,1.37096774193548,1.37096774193548,1.37096774193548,1.36774193548387,1.3741935483871,1.36774193548387,1.3741935483871,1.37096774193548,1.3741935483871,1.37096774193548,1.37741935483871,1.37741935483871,1.3741935483871,1.38064516129032,1.37096774193548,1.38064516129032,1.38064516129032,1.37741935483871,1.38064516129032,1.38064516129032,1.3741935483871,1.38064516129032,1.3741935483871,1.3741935483871,1.37741935483871,1.37741935483871,1.3741935483871,1.37096774193548,1.37096774193548,1.36774193548387,1.3741935483871,1.36774193548387,1.36774193548387,1.37096774193548,1.37096774193548,1.36774193548387,1.3741935483871,1.3741935483871,1.3741935483871,1.37096774193548,1.3741935483871,1.37096774193548,1.36129032258065,1.37096774193548,1.36774193548387,1.37096774193548,1.37096774193548,1.37096774193548,1.3741935483871,1.36451612903226,1.3741935483871,1.37096774193548,1.37096774193548,1.3741935483871,1.36774193548387,1.37741935483871,1.37096774193548,1.36774193548387,1.3741935483871,1.3741935483871,1.3741935483871,1.36774193548387,1.3741935483871,1.37096774193548,1.37096774193548,1.37096774193548,1.37096774193548,1.37096774193548,1.37741935483871,1.3741935483871,1.39032258064516,1.38709677419355,1.39032258064516,1.40645161290323,1.42258064516129,1.44193548387097,1.45161290322581,1.44516129032258,1.42903225806452,1.40322580645161,1.38387096774194,1.36774193548387,1.36451612903226,1.36774193548387,1.35806451612903,1.35806451612903,1.36129032258065,1.36129032258065,1.36129032258065,1.35806451612903,1.35806451612903,1.36774193548387,1.36129032258065,1.48064516129032,1.7,1.95806451612903,2.00322580645161,1.55161290322581,1.44193548387097,1.38709677419355,1.38709677419355,1.3741935483871,1.37096774193548,1.36129032258065,1.36451612903226,1.36129032258065,1.37096774193548,1.35806451612903,1.36774193548387,1.36129032258065,1.36774193548387,1.3741935483871,1.36774193548387,1.3741935483871,1.37096774193548,1.3741935483871,1.3741935483871,1.38064516129032,1.38387096774194,1.38709677419355,1.39032258064516,1.39354838709677,1.39677419354839,1.4,1.40322580645161,1.41935483870968,1.42258064516129,1.43225806451613,1.44516129032258,1.45161290322581,1.45483870967742,1.4741935483871,1.49354838709677,1.49677419354839,1.51935483870968,1.52903225806452,1.53225806451613,1.53548387096774,1.5258064516129,1.50967741935484,1.49354838709677,1.46774193548387,1.44838709677419,1.41612903225806,1.41290322580645,1.39677419354839,1.38387096774194,1.38709677419355,1.38064516129032,1.37741935483871,1.37741935483871,1.37096774193548,1.36774193548387,1.37096774193548,1.36774193548387,1.3741935483871,1.37096774193548,1.36451612903226,1.36774193548387,1.36451612903226,1.3741935483871,1.36774193548387,1.37096774193548,1.36129032258065,1.37741935483871,1.37741935483871,1.37741935483871,1.38387096774194,1.3741935483871,1.3741935483871,1.3741935483871,1.37096774193548,1.3741935483871,1.3741935483871,1.36774193548387,1.3741935483871,1.3741935483871,1.37096774193548,1.37096774193548,1.37096774193548,1.3741935483871,1.3741935483871,1.37741935483871,1.36774193548387,1.36774193548387,1.37741935483871,1.3741935483871,1.37096774193548,1.36774193548387,1.37096774193548,1.36774193548387,1.37096774193548,1.37741935483871,1.37096774193548,1.3741935483871,1.3741935483871,1.37096774193548,1.3741935483871,1.37096774193548,1.3741935483871,1.3741935483871,1.37096774193548,1.37741935483871,1.37096774193548,1.37096774193548,1.3741935483871,1.3741935483871,1.3741935483871,1.37741935483871,1.3741935483871,1.37741935483871,1.3741935483871,1.3741935483871,1.3741935483871,1.36451612903226,1.37741935483871,1.3741935483871,1.37741935483871,1.3741935483871,1.37741935483871,1.3741935483871,1.38064516129032,1.37741935483871,1.3741935483871,1.37096774193548,1.3741935483871,1.39032258064516,1.38709677419355,1.4,1.41290322580645,1.43225806451613,1.44193548387097,1.44516129032258,1.44516129032258,1.40645161290323,1.39677419354839,1.38064516129032,1.36774193548387,1.36774193548387,1.36774193548387,1.36774193548387,1.35806451612903,1.35483870967742,1.35806451612903,1.36129032258065,1.36451612903226,1.36129032258065,1.35806451612903,1.39032258064516,1.53225806451613,1.80322580645161,2.01290322580645,1.85161290322581,1.50645161290323,1.42258064516129,1.38709677419355,1.37741935483871,1.36774193548387,1.36774193548387,1.36451612903226,1.36774193548387,1.36451612903226,1.36774193548387,1.36451612903226,1.36451612903226,1.36129032258065,1.37096774193548,1.36451612903226,1.36774193548387,1.37096774193548,1.3741935483871,1.37741935483871,1.37741935483871,1.37741935483871,1.38387096774194,1.38709677419355,1.39032258064516,1.39354838709677,1.4,1.40322580645161,1.41290322580645,1.41290322580645,1.41612903225806,1.43225806451613,1.44193548387097,1.45806451612903,1.4741935483871,1.48387096774194,1.49677419354839,1.51612903225806,1.52258064516129,1.53548387096774,1.53870967741935,1.53548387096774,1.52903225806452,1.50967741935484,1.49032258064516,1.46129032258065,1.44516129032258,1.41935483870968,1.40645161290323,1.39677419354839,1.39032258064516,1.38387096774194,1.37096774193548,1.37096774193548,1.3741935483871,1.37096774193548,1.36451612903226,1.36774193548387,1.37096774193548,1.36451612903226,1.36451612903226,1.36774193548387,1.37096774193548,1.36451612903226,1.37096774193548,1.37096774193548,1.36774193548387,1.37741935483871,1.37096774193548,1.37741935483871,1.37741935483871,1.37741935483871,1.37741935483871,1.3741935483871,1.3741935483871,1.37096774193548,1.36774193548387,1.3741935483871,1.37096774193548,1.36774193548387,1.37096774193548,1.37741935483871,1.3741935483871,1.37096774193548,1.36774193548387,1.37096774193548,1.38064516129032,1.36774193548387,1.36774193548387,1.37096774193548,1.36451612903226,1.36774193548387,1.37096774193548,1.37096774193548,1.36774193548387,1.36451612903226,1.3741935483871,1.37741935483871,1.37096774193548,1.37096774193548,1.3741935483871,1.36774193548387,1.36774193548387,1.36774193548387,1.37096774193548,1.37741935483871,1.37741935483871,1.36774193548387,1.36774193548387,1.37096774193548,1.36451612903226,1.3741935483871,1.36774193548387,1.37741935483871,1.3741935483871,1.3741935483871,1.3741935483871,1.37096774193548,1.36774193548387,1.36774193548387,1.3741935483871,1.37741935483871,1.37096774193548,1.3741935483871,1.37741935483871,1.37096774193548,1.37741935483871,1.39354838709677,1.39354838709677,1.40322580645161,1.41935483870968,1.44193548387097,1.44838709677419,1.44516129032258,1.42903225806452,1.4,1.39354838709677,1.36774193548387,1.36451612903226,1.36451612903226,1.35806451612903,1.36451612903226,1.35161290322581,1.35806451612903,1.36451612903226,1.36129032258065,1.36129032258065,1.37096774193548,1.35483870967742,1.47096774193548,1.7,1.96451612903226,2.00645161290323,1.54193548387097,1.43225806451613,1.38709677419355,1.38064516129032,1.37741935483871,1.36774193548387,1.36451612903226,1.35806451612903,1.36129032258065,1.37096774193548,1.36451612903226,1.36774193548387,1.36451612903226,1.36451612903226,1.37096774193548,1.36774193548387,1.37096774193548,1.37741935483871,1.3741935483871,1.37741935483871,1.38064516129032,1.38709677419355,1.39032258064516,1.39032258064516,1.39354838709677,1.39354838709677,1.40645161290323,1.40645161290323,1.41935483870968,1.41935483870968,1.43870967741935,1.44838709677419,1.45483870967742,1.46451612903226,1.48709677419355,1.5,1.51290322580645,1.5258064516129,1.53870967741935,1.53870967741935,1.54193548387097,1.52903225806452,1.51935483870968,1.49032258064516,1.46451612903226,1.44838709677419,1.42258064516129,1.40967741935484,1.39354838709677,1.38387096774194,1.37741935483871,1.37741935483871,1.36774193548387,1.36774193548387,1.35806451612903,1.36774193548387,1.36129032258065,1.36451612903226,1.36774193548387,1.35806451612903,1.36774193548387,1.37096774193548,1.36451612903226,1.3741935483871,1.37741935483871,1.3741935483871,1.38064516129032,1.37741935483871,1.37741935483871,1.37096774193548,1.37741935483871,1.3741935483871,1.3741935483871,1.37096774193548,1.3741935483871,1.3741935483871,1.3741935483871,1.37096774193548,1.3741935483871,1.37096774193548,1.36774193548387,1.36774193548387,1.36774193548387,1.36451612903226,1.37096774193548,1.36451612903226,1.37741935483871,1.37096774193548,1.3741935483871,1.36774193548387,1.37096774193548,1.37096774193548,1.36774193548387,1.36129032258065,1.36774193548387,1.36774193548387,1.37096774193548,1.37096774193548,1.36774193548387,1.37096774193548,1.36774193548387,1.3741935483871,1.37096774193548,1.36774193548387,1.36774193548387,1.36774193548387,1.36774193548387,1.37096774193548,1.37096774193548,1.3741935483871,1.37096774193548,1.36774193548387,1.37096774193548,1.37096774193548,1.37096774193548,1.37096774193548,1.36129032258065,1.37096774193548,1.37096774193548,1.37096774193548,1.37096774193548,1.35806451612903,1.3741935483871,1.3741935483871,1.36774193548387,1.3741935483871,1.38064516129032,1.38387096774194,1.39032258064516,1.39354838709677,1.41290322580645,1.43548387096774,1.44838709677419,1.44193548387097,1.44193548387097,1.41290322580645,1.39677419354839,1.37741935483871,1.36451612903226,1.35806451612903,1.35806451612903,1.36451612903226,1.36129032258065,1.35483870967742,1.35806451612903,1.35806451612903,1.35806451612903,1.36129032258065,1.34838709677419,1.40645161290323,1.57741935483871,1.87096774193548,2.04193548387097,1.74193548387097,1.48387096774194,1.41290322580645,1.39032258064516,1.37741935483871,1.36774193548387,1.36129032258065,1.36129032258065,1.36129032258065,1.37096774193548,1.36451612903226,1.36774193548387,1.36774193548387,1.36451612903226,1.36451612903226,1.3741935483871,1.36774193548387,1.3741935483871,1.3741935483871,1.37741935483871,1.38064516129032,1.38387096774194,1.38387096774194,1.38709677419355,1.39677419354839,1.39677419354839,1.40322580645161,1.40645161290323,1.41290322580645,1.42258064516129,1.42903225806452,1.44193548387097,1.45161290322581,1.45806451612903,1.47741935483871,1.48709677419355,1.50967741935484,1.51935483870968,1.53225806451613,1.53870967741935,1.53870967741935,1.54193548387097,1.5258064516129,1.50967741935484,1.48709677419355,1.45806451612903,1.44516129032258,1.41935483870968,1.40967741935484,1.4,1.38709677419355,1.38387096774194,1.38387096774194,1.38064516129032,1.38387096774194,1.37096774193548,1.38064516129032,1.3741935483871,1.37741935483871,1.3741935483871,1.37096774193548,1.3741935483871,1.37096774193548,1.37741935483871,1.3741935483871,1.38064516129032,1.3741935483871,1.38387096774194,1.38064516129032,1.37741935483871,1.37741935483871,1.38064516129032,1.37741935483871,1.37741935483871,1.38064516129032,1.38064516129032,1.37741935483871,1.3741935483871,1.37741935483871,1.3741935483871,1.37741935483871,1.3741935483871,1.37741935483871,1.38064516129032,1.3741935483871,1.3741935483871,1.37096774193548,1.37741935483871,1.37096774193548,1.37096774193548,1.37096774193548,1.3741935483871,1.37096774193548,1.37096774193548,1.37096774193548,1.37096774193548,1.37096774193548,1.3741935483871,1.3741935483871,1.37096774193548,1.37096774193548,1.36774193548387,1.3741935483871,1.37096774193548,1.36451612903226,1.37741935483871,1.37096774193548,1.36451612903226,1.37096774193548,1.37096774193548,1.37096774193548,1.36774193548387,1.36774193548387,1.37096774193548,1.3741935483871,1.3741935483871,1.3741935483871,1.3741935483871,1.36774193548387,1.36774193548387,1.37096774193548,1.3741935483871,1.3741935483871,1.36774193548387,1.3741935483871,1.37096774193548,1.3741935483871,1.38064516129032,1.39032258064516,1.38709677419355,1.40967741935484,1.43225806451613,1.43870967741935,1.44516129032258,1.43225806451613,1.41935483870968,1.39032258064516,1.38387096774194,1.35806451612903,1.35806451612903,1.35806451612903,1.34838709677419,1.34838709677419,1.34516129032258,1.35161290322581,1.35161290322581,1.35483870967742,1.35161290322581,1.35483870967742,1.35483870967742,1.47741935483871,1.7258064516129,1.98064516129032,1.97741935483871,1.53225806451613,1.42903225806452,1.38064516129032,1.37741935483871,1.36129032258065,1.36129032258065,1.35806451612903,1.35161290322581,1.35161290322581,1.35483870967742,1.35161290322581,1.35161290322581,1.36129032258065,1.35483870967742,1.36129032258065,1.35806451612903,1.36451612903226,1.36129032258065,1.36129032258065,1.36451612903226,1.37096774193548,1.37096774193548,1.3741935483871,1.38064516129032,1.38709677419355,1.38709677419355,1.39354838709677,1.40322580645161,1.40967741935484,1.40967741935484,1.41935483870968,1.43225806451613,1.44516129032258,1.46129032258065,1.48064516129032,1.48709677419355,1.5,1.51935483870968,1.5258064516129,1.52903225806452,1.53225806451613,1.52258064516129,1.50967741935484,1.48387096774194,1.45806451612903,1.44193548387097,1.41290322580645,1.40645161290323,1.39032258064516,1.38387096774194,1.37741935483871,1.36774193548387,1.36451612903226,1.36451612903226,1.36774193548387,1.36129032258065,1.36129032258065,1.35161290322581,1.36129032258065,1.36129032258065,1.35806451612903,1.36129032258065,1.36451612903226,1.37096774193548,1.36774193548387,1.36451612903226,1.37741935483871,1.37096774193548,1.37096774193548,1.37096774193548,1.37096774193548,1.38387096774194,1.37741935483871,1.37741935483871,1.38064516129032,1.38064516129032,1.37741935483871,1.38064516129032,1.38064516129032,1.38709677419355,1.38709677419355,1.38064516129032,1.39032258064516,1.38064516129032,1.38709677419355,1.38387096774194,1.38387096774194,1.38709677419355,1.39354838709677,1.38709677419355,1.39032258064516,1.39354838709677,1.38064516129032,1.38709677419355,1.40322580645161,1.39677419354839,1.39677419354839,1.40645161290323,1.4,1.40322580645161,1.40645161290323,1.40645161290323,1.40967741935484,1.41935483870968,1.41290322580645,1.41935483870968,1.4258064516129,1.41935483870968,1.4258064516129,1.42258064516129,1.42258064516129,1.4258064516129,1.43870967741935
1.3741935483871,1.3741935483871,1.37741935483871,1.36774193548387,1.36451612903226,1.39032258064516,1.37741935483871,1.3741935483871,1.37096774193548,1.3741935483871,1.37741935483871,1.36774193548387,1.37741935483871,1.3741935483871,1.3741935483871,1.3741935483871,1.3741935483871,1.36774193548387,1.40322580645161,1.37741935483871,1.38064516129032,1.36774193548387,1.38064516129032,1.3741935483871,1.37096774193548,1.36129032258065,1.37741935483871,1.3741935483871,1.37741935483871,1.38064516129032,1.36451612903226,1.37096774193548,1.37741935483871,1.3741935483871,1.36774193548387,1.38064516129032,1.39354838709677,1.39354838709677,1.40322580645161,1.42903225806452,1.44193548387097,1.44838709677419,1.44516129032258,1.41935483870968,1.39354838709677,1.39032258064516,1.36774193548387,1.34838709677419,1.36129032258065,1.36451612903226,1.35806451612903,1.35806451612903,1.36129032258065,1.36451612903226,1.35806451612903,1.35806451612903,1.34838709677419,1.38064516129032,1.50645161290323,1.74838709677419,1.96774193548387,1.91935483870968,1.52903225806452,1.43225806451613,1.39032258064516,1.37741935483871,1.35806451612903,1.3741935483871,1.36451612903226,1.36774193548387,1.35806451612903,1.36129032258065,1.36451612903226,1.36129032258065,1.36451612903226,1.36129032258065,1.36129032258065,1.36129032258065,1.3741935483871,1.37096774193548,1.3741935483871,1.3741935483871,1.37741935483871,1.37741935483871,1.38064516129032,1.38387096774194,1.38064516129032,1.40322580645161,1.4,1.40645161290323,1.41290322580645,1.41290322580645,1.4258064516129,1.43225806451613,1.44516129032258,1.45483870967742,1.45806451612903,1.48387096774194,1.5,1.50967741935484,1.51612903225806,1.5258064516129,1.52258064516129,1.51290322580645,1.49354838709677,1.4741935483871,1.44838709677419,1.45161290322581,1.41935483870968,1.40322580645161,1.38709677419355,1.38709677419355,1.37741935483871,1.37741935483871,1.37096774193548,1.37096774193548,1.35483870967742,1.3741935483871,1.3741935483871,1.36129032258065,1.36451612903226,1.36129032258065,1.36774193548387,1.36129032258065,1.36451612903226,1.36774193548387,1.3741935483871,1.36774193548387,1.37741935483871,1.36774193548387,1.37741935483871,1.35806451612903,1.39354838709677,1.3741935483871,1.3741935483871,1.3741935483871,1.36774193548387,1.37741935483871,1.37096774193548,1.3741935483871,1.3741935483871,1.37096774193548,1.37096774193548,1.3741935483871,1.37741935483871,1.36451612903226,1.36774193548387,1.3741935483871,1.37096774193548,1.36774193548387,1.35483870967742,1.37096774193548,1.36129032258065,1.37096774193548,1.3741935483871,1.37096774193548,1.3741935483871,1.36774193548387,1.36129032258065,1.40967741935484,1.38064516129032,1.3741935483871,1.37096774193548,1.36774193548387,1.35806451612903,1.3741935483871,1.36774193548387,1.37096774193548,1.4,1.37741935483871,1.37096774193548,1.3741935483871,1.37096774193548,1.37096774193548,1.37741935483871,1.36774193548387,1.3741935483871,1.36774193548387,1.36129032258065,1.38709677419355,1.37741935483871,1.37741935483871,1.38709677419355,1.39032258064516,1.39354838709677,1.40322580645161,1.42903225806452,1.43870967741935,1.45483870967742,1.44516129032258,1.42258064516129,1.40322580645161,1.3741935483871,1.38064516129032,1.36451612903226,1.36129032258065,1.36451612903226,1.36451612903226,1.35806451612903,1.36129032258065,1.35483870967742,1.34838709677419,1.37096774193548,1.36774193548387,1.36129032258065,1.46774193548387,1.6741935483871,1.94516129032258,2.0258064516129,1.5741935483871,1.44838709677419,1.38709677419355,1.3741935483871,1.36129032258065,1.36774193548387,1.36451612903226,1.36774193548387,1.36129032258065,1.36129032258065,1.35806451612903,1.36451612903226,1.36774193548387,1.35161290322581,1.36774193548387,1.37741935483871,1.37096774193548,1.38064516129032,1.37741935483871,1.38064516129032,1.37741935483871,1.38064516129032,1.37096774193548,1.39677419354839,1.39032258064516,1.39677419354839,1.39677419354839,1.40645161290323,1.40967741935484,1.42258064516129,1.43548387096774,1.43870967741935,1.45161290322581,1.46774193548387,1.46451612903226,1.50967741935484,1.50645161290323,1.51290322580645,1.53225806451613,1.5258064516129,1.53870967741935,1.5258064516129,1.50967741935484,1.48709677419355,1.46451612903226,1.43548387096774,1.45161290322581,1.40967741935484,1.39354838709677,1.38387096774194,1.38709677419355,1.38064516129032,1.37741935483871,1.3741935483871,1.36451612903226,1.35806451612903,1.37741935483871,1.37096774193548,1.37096774193548,1.36774193548387,1.37096774193548,1.36129032258065,1.36774193548387,1.36774193548387,1.3741935483871,1.37096774193548,1.36774193548387,1.35483870967742,1.38064516129032,1.3741935483871,1.3741935483871,1.38064516129032,1.36451612903226,1.3741935483871,1.3741935483871,1.38064516129032,1.36774193548387,1.36129032258065,1.38709677419355,1.37741935483871,1.36774193548387,1.3741935483871,1.3741935483871,1.35483870967742,1.37741935483871,1.37096774193548,1.36774193548387,1.37096774193548,1.36129032258065,1.3741935483871,1.37741935483871,1.36774193548387,1.36774193548387,1.36774193548387,1.36774193548387,1.36774193548387,1.37096774193548,1.37096774193548,1.36129032258065,1.40322580645161,1.37096774193548,1.37096774193548,1.37096774193548,1.36129032258065,1.37096774193548,1.37096774193548,1.37741935483871,1.36774193548387,1.35806451612903,1.37741935483871,1.37096774193548,1.36774193548387,1.37096774193548,1.3741935483871,1.36774193548387,1.3741935483871,1.3741935483871,1.37096774193548,1.37741935483871,1.36451612903226,1.41290322580645,1.3741935483871,1.37096774193548,1.3741935483871,1.38387096774194,1.38064516129032,1.39354838709677,1.40645161290323,1.40967741935484,1.47741935483871,1.45806451612903,1.44516129032258,1.43225806451613,1.40645161290323,1.39032258064516,1.38064516129032,1.35806451612903,1.35161290322581,1.36774193548387,1.36451612903226,1.35806451612903,1.35483870967742,1.35161290322581,1.36451612903226,1.36129032258065,1.35483870967742,1.34838709677419,1.4258064516129,1.62258064516129,1.90967741935484,2.03225806451613,1.66129032258065,1.45806451612903,1.39677419354839,1.39032258064516,1.38064516129032,1.36774193548387,1.36129032258065,1.35483870967742,1.35806451612903,1.36774193548387,1.36129032258065,1.36774193548387,1.36129032258065,1.37096774193548,1.36774193548387,1.35806451612903,1.36129032258065,1.38387096774194,1.37096774193548,1.37741935483871,1.3741935483871,1.38709677419355,1.38064516129032,1.38387096774194,1.39032258064516,1.39677419354839,1.39354838709677,1.41612903225806,1.41290322580645,1.42258064516129,1.42903225806452,1.44193548387097,1.44838709677419,1.45806451612903,1.48064516129032,1.49354838709677,1.49354838709677,1.51612903225806,1.53548387096774,1.53870967741935,1.54838709677419,1.53870967741935,1.52258064516129,1.49354838709677,1.4741935483871,1.44193548387097,1.43548387096774,1.41290322580645,1.4,1.38709677419355,1.38387096774194,1.37741935483871,1.37741935483871,1.3741935483871,1.36774193548387,1.36129032258065,1.35483870967742,1.39677419354839,1.3741935483871,1.36129032258065,1.37096774193548,1.37096774193548,1.37096774193548,1.36451612903226,1.37741935483871,1.3741935483871,1.35806451612903,1.38064516129032,1.38064516129032,1.37096774193548,1.37741935483871,1.3741935483871,1.37096774193548,1.36129032258065,1.38387096774194,1.37096774193548,1.37096774193548,1.38064516129032,1.3741935483871,1.36451612903226,1.37096774193548,1.3741935483871,1.37096774193548,1.3741935483871,1.36129032258065,1.40645161290323,1.3741935483871,1.3741935483871,1.37096774193548,1.37096774193548,1.3741935483871,1.3741935483871,1.36774193548387,1.36774193548387,1.37741935483871,1.35806451612903,1.35161290322581,1.37096774193548,1.37096774193548,1.36774193548387,1.3741935483871,1.37096774193548,1.36774193548387,1.36129032258065,1.36129032258065,1.37096774193548,1.36774193548387,1.36451612903226,1.3741935483871,1.36451612903226,1.3741935483871,1.38064516129032,1.35483870967742,1.39032258064516,1.38064516129032,1.3741935483871,1.3741935483871,1.3741935483871,1.3741935483871,1.36774193548387,1.37741935483871,1.36451612903226,1.36129032258065,1.38709677419355,1.37096774193548,1.37741935483871,1.38709677419355,1.38387096774194,1.38709677419355,1.40322580645161,1.43548387096774,1.43870967741935,1.48064516129032,1.43548387096774,1.41612903225806,1.39354838709677,1.38709677419355,1.36129032258065,1.36451612903226,1.36129032258065,1.36451612903226,1.35483870967742,1.34838709677419,1.34193548387097,1.36774193548387,1.35806451612903,1.36774193548387,1.35483870967742,1.39032258064516,1.53548387096774,1.80967741935484,2.00967741935484,1.83225806451613,1.4741935483871,1.41290322580645,1.38387096774194,1.37741935483871,1.3741935483871,1.36451612903226,1.36451612903226,1.35161290322581,1.36451612903226,1.37096774193548,1.36129032258065,1.36451612903226,1.36129032258065,1.36451612903226,1.36774193548387,1.37096774193548,1.37096774193548,1.3741935483871,1.3741935483871,1.38387096774194,1.3741935483871,1.41612903225806,1.39032258064516,1.39354838709677,1.39677419354839,1.39677419354839,1.40645161290323,1.41935483870968,1.40645161290323,1.44838709677419,1.43870967741935,1.45483870967742,1.46774193548387,1.4741935483871,1.49032258064516,1.50322580645161,1.51935483870968,1.52903225806452,1.53548387096774,1.54193548387097,1.53870967741935,1.51935483870968,1.50967741935484,1.47741935483871,1.45483870967742,1.42903225806452,1.41935483870968,1.39677419354839,1.38064516129032,1.38387096774194,1.3741935483871,1.37096774193548,1.36451612903226,1.36451612903226,1.36451612903226,1.35806451612903,1.36774193548387,1.35806451612903,1.39677419354839,1.36774193548387,1.36774193548387,1.36774193548387,1.37096774193548,1.3741935483871,1.38064516129032,1.37741935483871,1.36451612903226,1.39677419354839,1.38387096774194,1.37741935483871,1.37096774193548,1.3741935483871,1.38064516129032,1.37096774193548,1.37096774193548,1.3741935483871,1.35483870967742,1.41290322580645,1.3741935483871,1.37741935483871,1.37096774193548,1.37096774193548,1.36774193548387,1.3741935483871,1.37096774193548,1.35483870967742,1.36774193548387,1.37741935483871,1.3741935483871,1.36451612903226,1.37096774193548,1.36451612903226,1.3741935483871,1.37096774193548,1.36129032258065,1.37741935483871,1.37096774193548,1.36451612903226,1.36774193548387,1.3741935483871,1.3741935483871,1.37096774193548,1.36451612903226,1.3741935483871,1.36451612903226,1.39677419354839,1.3741935483871,1.37096774193548,1.37096774193548,1.3741935483871,1.37741935483871,1.37096774193548,1.35483870967742,1.39032258064516,1.37741935483871,1.36451612903226,1.3741935483871,1.37741935483871,1.37096774193548,1.3741935483871,1.3741935483871,1.36774193548387,1.36774193548387,1.36129032258065,1.38064516129032,1.38064516129032,1.38387096774194,1.38709677419355,1.39354838709677,1.40645161290323,1.41935483870968,1.44193548387097,1.44838709677419,1.44193548387097,1.41612903225806,1.42903225806452,1.39032258064516,1.37096774193548,1.36774193548387,1.36451612903226,1.35806451612903,1.35806451612903,1.35483870967742,1.34838709677419,1.37096774193548,1.36451612903226,1.36129032258065,1.37096774193548,1.35161290322581,1.43870967741935,1.63548387096774,1.92258064516129,2.01935483870968,1.64193548387097,1.45483870967742,1.39677419354839,1.38387096774194,1.3741935483871,1.36774193548387,1.36774193548387,1.36451612903226,1.35806451612903,1.35483870967742,1.38387096774194,1.36774193548387,1.36774193548387,1.36451612903226,1.36774193548387,1.36451612903226,1.3741935483871,1.36774193548387,1.36129032258065,1.39032258064516,1.38064516129032,1.38387096774194,1.39032258064516,1.38709677419355,1.39354838709677,1.4,1.39354838709677,1.4,1.41290322580645,1.40645161290323,1.44193548387097,1.44193548387097,1.44516129032258,1.45161290322581,1.4741935483871,1.48709677419355,1.50322580645161,1.50645161290323,1.50967741935484,1.53548387096774,1.53548387096774,1.53548387096774,1.51612903225806,1.49677419354839,1.4741935483871,1.45161290322581,1.43225806451613,1.39677419354839,1.40645161290323,1.39354838709677,1.38709677419355,1.37741935483871,1.37096774193548,1.37741935483871,1.3741935483871,1.36451612903226,1.36451612903226,1.36129032258065,1.35483870967742,1.37096774193548,1.36774193548387,1.36774193548387,1.36774193548387,1.36451612903226,1.37096774193548,1.38064516129032,1.36774193548387,1.3741935483871,1.36774193548387,1.38064516129032,1.38064516129032,1.37741935483871,1.3741935483871,1.38064516129032,1.37741935483871,1.37096774193548,1.37741935483871,1.35483870967742,1.40967741935484,1.3741935483871,1.37096774193548,1.36451612903226,1.3741935483871,1.3741935483871,1.36774193548387,1.36774193548387,1.3741935483871,1.36451612903226,1.4,1.38064516129032,1.36774193548387,1.36774193548387,1.36451612903226,1.37096774193548,1.37741935483871,1.37096774193548,1.3741935483871,1.36129032258065,1.35806451612903,1.37096774193548,1.37741935483871,1.36774193548387,1.36774193548387,1.3741935483871,1.3741935483871,1.37096774193548,1.41935483870968,1.38387096774194,1.36774193548387,1.37096774193548,1.37741935483871,1.37096774193548,1.37741935483871,1.3741935483871,1.36774193548387,1.3741935483871,1.3741935483871,1.37741935483871,1.3741935483871,1.36774193548387,1.36774193548387,1.40645161290323,1.37741935483871,1.3741935483871,1.37741935483871,1.37096774193548,1.3741935483871,1.37741935483871,1.39677419354839,1.39354838709677,1.39032258064516,1.4258064516129,1.44838709677419,1.44838709677419,1.45161290322581,1.44193548387097,1.40967741935484,1.39677419354839,1.36774193548387,1.35161290322581,1.3741935483871,1.36451612903226,1.36129032258065,1.35483870967742,1.35806451612903,1.35483870967742,1.35806451612903,1.36129032258065,1.35806451612903,1.35806451612903,1.38709677419355,1.53225806451613,1.79032258064516,2.04193548387097,1.87741935483871,1.5,1.42903225806452,1.39032258064516,1.37741935483871,1.36451612903226,1.35483870967742,1.37096774193548,1.36451612903226,1.36451612903226,1.36451612903226,1.35806451612903,1.36774193548387,1.37096774193548,1.35161290322581,1.40322580645161,1.37096774193548,1.3741935483871,1.3741935483871,1.36774193548387,1.38064516129032,1.37741935483871,1.39032258064516,1.38064516129032,1.39032258064516,1.39032258064516,1.38064516129032,1.40967741935484,1.40967741935484,1.40645161290323,1.41935483870968,1.42903225806452,1.44838709677419,1.45483870967742,1.45806451612903,1.48709677419355,1.48387096774194,1.52903225806452,1.52903225806452,1.51935483870968,1.53870967741935,1.53870967741935,1.5258064516129,1.50322580645161,1.48387096774194,1.46451612903226,1.42258064516129,1.45483870967742,1.40322580645161,1.39032258064516,1.38709677419355,1.37741935483871,1.37741935483871,1.37096774193548,1.36774193548387,1.36774193548387,1.36129032258065,1.36774193548387,1.35806451612903,1.36129032258065,1.35483870967742,1.39032258064516,1.36129032258065,1.36774193548387,1.36451612903226,1.36774193548387,1.37096774193548,1.36774193548387,1.36129032258065,1.38064516129032,1.36774193548387,1.36774193548387,1.38064516129032,1.37096774193548,1.3741935483871,1.3741935483871,1.37096774193548,1.36451612903226,1.37741935483871,1.36774193548387,1.37741935483871,1.36774193548387,1.36774193548387,1.36451612903226,1.37096774193548,1.37096774193548,1.36774193548387,1.36129032258065,1.36129032258065,1.35483870967742,1.38387096774194,1.36774193548387,1.36774193548387,1.36774193548387,1.36774193548387,1.36774193548387,1.36774193548387,1.35161290322581,1.36774193548387,1.37096774193548,1.36774193548387,1.37096774193548,1.35806451612903,1.36774193548387,1.37096774193548,1.36774193548387,1.36129032258065,1.38064516129032,1.3741935483871,1.36451612903226,1.3741935483871,1.36774193548387,1.36774193548387,1.36774193548387,1.3741935483871,1.36774193548387,1.3741935483871,1.36774193548387,1.36129032258065,1.4,1.3741935483871,1.3741935483871,1.36774193548387,1.37741935483871,1.37096774193548,1.37096774193548,1.37741935483871,1.41935483870968,1.39032258064516,1.40322580645161,1.40967741935484,1.43225806451613,1.44516129032258,1.44838709677419,1.44516129032258,1.4,1.40322580645161,1.39032258064516,1.35806451612903,1.36774193548387,1.36451612903226,1.35806451612903,1.35161290322581,1.35806451612903,1.35161290322581,1.35806451612903,1.35161290322581,1.35483870967742,1.4,1.36774193548387,1.49354838709677,1.71290322580645,1.98709677419355,1.99677419354839,1.53548387096774,1.42258064516129,1.38064516129032,1.38709677419355,1.3741935483871,1.36451612903226,1.36451612903226,1.36129032258065,1.36129032258065,1.35806451612903,1.35806451612903,1.35483870967742,1.37096774193548,1.36129032258065,1.37096774193548,1.36774193548387,1.38064516129032,1.37096774193548,1.37741935483871,1.38064516129032,1.38064516129032,1.37741935483871,1.38709677419355,1.38387096774194,1.38709677419355,1.40322580645161,1.40967741935484,1.40967741935484,1.40967741935484,1.43225806451613,1.43548387096774,1.44838709677419,1.45161290322581,1.51290322580645,1.49677419354839,1.50967741935484,1.50645161290323,1.53225806451613,1.53870967741935,1.54838709677419,1.55161290322581,1.53870967741935,1.5258064516129,1.5,1.46774193548387,1.48387096774194,1.42258064516129,1.41612903225806,1.4,1.38709677419355,1.38387096774194,1.38064516129032,1.37741935483871,1.37741935483871,1.3741935483871,1.37096774193548,1.36129032258065,1.37741935483871,1.3741935483871,1.38064516129032,1.36774193548387,1.36451612903226,1.36774193548387,1.36451612903226,1.41290322580645,1.38387096774194,1.37741935483871,1.3741935483871,1.3741935483871,1.38064516129032,1.37096774193548,1.38387096774194,1.3741935483871,1.37741935483871,1.37096774193548,1.36129032258065,1.38064516129032,1.38064516129032,1.38064516129032,1.37741935483871,1.36774193548387,1.3741935483871,1.3741935483871,1.36774193548387,1.36774193548387,1.36129032258065,1.37096774193548,1.38064516129032,1.36774193548387,1.3741935483871,1.3741935483871,1.37096774193548,1.3741935483871,1.37096774193548,1.36451612903226,1.35483870967742,1.36774193548387,1.36129032258065,1.37096774193548,1.37096774193548,1.3741935483871,1.36774193548387,1.37096774193548,1.3741935483871,1.3741935483871,1.36129032258065,1.36774193548387,1.35806451612903,1.37741935483871,1.36451612903226,1.37096774193548,1.37096774193548,1.3741935483871,1.36774193548387,1.36451612903226,1.35806451612903,1.4,1.3741935483871,1.37096774193548,1.36451612903226,1.37096774193548,1.37096774193548,1.35806451612903,1.37096774193548,1.36129032258065,1.40645161290323,1.38709677419355,1.38387096774194,1.38709677419355,1.4,1.41290322580645,1.44193548387097,1.44193548387097,1.43548387096774,1.42903225806452,1.39032258064516,1.39032258064516,1.35806451612903,1.36451612903226,1.36129032258065,1.36774193548387,1.34516129032258,1.35483870967742,1.35483870967742,1.35161290322581,1.34193548387097,1.33870967741935,1.36774193548387,1.33870967741935,1.4258064516129,1.62903225806452,1.90645161290323,2.01935483870968,1.58709677419355,1.42258064516129,1.38709677419355,1.4,1.36451612903226,1.36129032258065,1.35483870967742,1.35483870967742,1.35483870967742,1.35483870967742,1.35806451612903,1.36451612903226,1.35483870967742,1.35161290322581,1.3741935483871,1.35483870967742,1.35161290322581,1.36774193548387,1.36451612903226,1.36774193548387,1.38064516129032,1.36451612903226,1.39032258064516,1.38064516129032,1.38709677419355,1.39677419354839,1.4,1.4,1.40967741935484,1.41612903225806,1.43548387096774,1.4258064516129,1.45483870967742,1.46774193548387,1.48064516129032,1.48709677419355,1.50967741935484,1.5258064516129,1.53548387096774,1.54193548387097,1.53548387096774,1.53225806451613,1.50645161290323,1.51290322580645,1.46774193548387,1.43870967741935,1.41612903225806,1.4,1.38709677419355,1.38387096774194,1.36129032258065,1.36129032258065,1.36451612903226,1.36451612903226,1.36129032258065,1.36451612903226,1.36129032258065,1.35806451612903,1.36451612903226,1.36774193548387,1.36129032258065,1.40645161290323,1.36774193548387,1.3741935483871,1.3741935483871,1.3741935483871,1.3741935483871,1.37741935483871,1.38387096774194,1.37741935483871,1.38387096774194,1.38387096774194,1.36774193548387,1.40967741935484,1.38387096774194,1.38064516129032,1.38064516129032,1.37741935483871,1.37741935483871,1.36774193548387,1.37096774193548,1.38064516129032,1.38064516129032,1.39032258064516,1.38709677419355,1.38064516129032,1.38064516129032,1.38709677419355,1.38387096774194,1.39032258064516,1.38064516129032,1.37741935483871,1.3741935483871,1.39354838709677,1.39354838709677,1.38387096774194,1.39032258064516,1.39677419354839,1.38709677419355,1.4,1.39354838709677,1.38387096774194,1.40322580645161,1.40645161290323,1.4,1.40322580645161,1.40322580645161,1.40967741935484,1.4,1.4,1.39677419354839,1.4258064516129,1.41290322580645,1.40645161290323,1.41290322580645,1.41290322580645,1.41935483870968,1.41612903225806,1.41612903225806,1.42258064516129,1.41612903225806,1.40967741935484,1.46451612903226
