1.51290322580645,1.49677419354839,1.47096774193548,1.44838709677419,1.42258064516129,1.40645161290323,1.39354838709677,1.38387096774194,1.38387096774194,1.37096774193548,1.37741935483871,1.37096774193548,1.38064516129032,1.37741935483871,1.38064516129032,1.37096774193548,1.37741935483871,1.38064516129032,1.38709677419355,1.38387096774194,1.38387096774194,1.38064516129032,1.38064516129032,1.38387096774194,1.38064516129032,1.38387096774194,1.38387096774194,1.38387096774194,1.38064516129032,1.38064516129032,1.39032258064516,1.38387096774194,1.39032258064516,1.39032258064516,1.38387096774194,1.3741935483871,1.38387096774194,1.38387096774194,1.37741935483871,1.37096774193548,1.3741935483871,1.3741935483871,1.3741935483871,1.3741935483871,1.38064516129032,1.3741935483871,1.3741935483871,1.37741935483871,1.3741935483871,1.37741935483871,1.3741935483871,1.3741935483871,1.3741935483871,1.3741935483871,1.36774193548387,1.37096774193548,1.36451612903226,1.36451612903226,1.37096774193548,1.36774193548387,1.37096774193548,1.37096774193548,1.37096774193548,1.38709677419355,1.39354838709677,1.39032258064516,1.41612903225806,1.45483870967742,1.45483870967742,1.44838709677419,1.43870967741935,1.42903225806452,1.42258064516129,1.39354838709677,1.38387096774194,1.37741935483871,1.38064516129032,1.36774193548387,1.36774193548387,1.36129032258065,1.35806451612903,1.32258064516129,1.50322580645161,1.66774193548387,1.74193548387097,1.72903225806452,1.58387096774194,1.45806451612903,1.48709677419355,1.44516129032258,1.38387096774194,1.3741935483871,1.35806451612903,1.35806451612903,1.35806451612903,1.35483870967742,1.35806451612903,1.35806451612903,1.36129032258065,1.36451612903226,1.37096774193548,1.37096774193548,1.3741935483871,1.38064516129032,1.37741935483871,1.38709677419355,1.38387096774194,1.40322580645161,1.41290322580645,1.41612903225806,1.4258064516129,1.44193548387097,1.45806451612903,1.47741935483871,1.48064516129032,1.5,1.5,1.51290322580645,1.51290322580645,1.51290322580645,1.50645161290323,1.48387096774194,1.45806451612903,1.4258064516129,1.41612903225806,1.39354838709677,1.37741935483871,1.37096774193548,1.37741935483871,1.36451612903226,1.36774193548387,1.36129032258065,1.36774193548387,1.3741935483871,1.36774193548387,1.36774193548387,1.37096774193548,1.36774193548387,1.36774193548387,1.37096774193548,1.37096774193548,1.37096774193548,1.38064516129032,1.37096774193548,1.38064516129032,1.37096774193548,1.37741935483871,1.37096774193548,1.3741935483871,1.37741935483871,1.37096774193548,1.3741935483871,1.36774193548387,1.36774193548387,1.37096774193548,1.36451612903226,1.36774193548387,1.36774193548387,1.36774193548387,1.36774193548387,1.36774193548387,1.35806451612903,1.36451612903226,1.36774193548387,1.35806451612903,1.36774193548387,1.36774193548387,1.37096774193548,1.36774193548387,1.36774193548387,1.36129032258065,1.36129032258065,1.35806451612903,1.36129032258065,1.36129032258065,1.35483870967742,1.35806451612903,1.35161290322581,1.35806451612903,1.35483870967742,1.35806451612903,1.35483870967742,1.35806451612903,1.35806451612903,1.36129032258065,1.3741935483871,1.38064516129032,1.37741935483871,1.41935483870968,1.43548387096774,1.42903225806452,1.43548387096774,1.4258064516129,1.41935483870968,1.41290322580645,1.38064516129032,1.36774193548387,1.36129032258065,1.36129032258065,1.35483870967742,1.34838709677419,1.35161290322581,1.32903225806452,1.34193548387097,1.57096774193548,1.73548387096774,1.82258064516129,1.75161290322581,1.54838709677419,1.48709677419355,1.48387096774194,1.41612903225806,1.37096774193548,1.35161290322581,1.36129032258065,1.35161290322581,1.35483870967742,1.34838709677419,1.36129032258065,1.36129032258065,1.36774193548387,1.36129032258065,1.36129032258065,1.37096774193548,1.38064516129032,1.38387096774194,1.39032258064516,1.4,1.40645161290323,1.40967741935484,1.41935483870968,1.42903225806452,1.43870967741935,1.45161290322581,1.46774193548387,1.47741935483871,1.49677419354839,1.50967741935484,1.51612903225806,1.51935483870968,1.51612903225806,1.51612903225806,1.51290322580645,1.49032258064516,1.46451612903226,1.42903225806452,1.41935483870968,1.4,1.39354838709677,1.38709677419355,1.37096774193548,1.37096774193548,1.36774193548387,1.36451612903226,1.36774193548387,1.37096774193548,1.3741935483871,1.36774193548387,1.3741935483871,1.3741935483871,1.38064516129032,1.38064516129032,1.38064516129032,1.38064516129032,1.38064516129032,1.3741935483871,1.37741935483871,1.3741935483871,1.38064516129032,1.3741935483871,1.38387096774194,1.38387096774194,1.3741935483871,1.36774193548387,1.3741935483871,1.36451612903226,1.36774193548387,1.36774193548387,1.36774193548387,1.36451612903226,1.36451612903226,1.36451612903226,1.36129032258065,1.36774193548387,1.36451612903226,1.36129032258065,1.37096774193548,1.36129032258065,1.36774193548387,1.35483870967742,1.36451612903226,1.35806451612903,1.36774193548387,1.35806451612903,1.36451612903226,1.36451612903226,1.36451612903226,1.35806451612903,1.35806451612903,1.35806451612903,1.36129032258065,1.36129032258065,1.35483870967742,1.35806451612903,1.35806451612903,1.36129032258065,1.36451612903226,1.3741935483871,1.3741935483871,1.40967741935484,1.44193548387097,1.43225806451613,1.43548387096774,1.4258064516129,1.41612903225806,1.41935483870968,1.39032258064516,1.3741935483871,1.36774193548387,1.36774193548387,1.35483870967742,1.35161290322581,1.35161290322581,1.33870967741935,1.32903225806452,1.54516129032258,1.72903225806452,1.81612903225806,1.76129032258065,1.56774193548387,1.49032258064516,1.49032258064516,1.42903225806452,1.3741935483871,1.36129032258065,1.35483870967742,1.34516129032258,1.34193548387097,1.34193548387097,1.34838709677419,1.34838709677419,1.35483870967742,1.35483870967742,1.35806451612903,1.36129032258065,1.36129032258065,1.37096774193548,1.37741935483871,1.38387096774194,1.38387096774194,1.40322580645161,1.41612903225806,1.42258064516129,1.43548387096774,1.43870967741935,1.46129032258065,1.48387096774194,1.49677419354839,1.50645161290323,1.51290322580645,1.51935483870968,1.5258064516129,1.52903225806452,1.51290322580645,1.4741935483871,1.45806451612903,1.4258064516129,1.40322580645161,1.39032258064516,1.38387096774194,1.37096774193548,1.37096774193548,1.36451612903226,1.36451612903226,1.36451612903226,1.35806451612903,1.36129032258065,1.36451612903226,1.36451612903226,1.36129032258065,1.37096774193548,1.37741935483871,1.37096774193548,1.37096774193548,1.37096774193548,1.37741935483871,1.37096774193548,1.37741935483871,1.38064516129032,1.37096774193548,1.37096774193548,1.38064516129032,1.36774193548387,1.36774193548387,1.37096774193548,1.37096774193548,1.36451612903226,1.36129032258065,1.36451612903226,1.37096774193548,1.36451612903226,1.36451612903226,1.36451612903226,1.36774193548387,1.36774193548387,1.36451612903226,1.36451612903226,1.36451612903226,1.35806451612903,1.37096774193548,1.36451612903226,1.36451612903226,1.36129032258065,1.36451612903226,1.37096774193548,1.36774193548387,1.36451612903226,1.36451612903226,1.37096774193548,1.36451612903226,1.36451612903226,1.37096774193548,1.36774193548387,1.36774193548387,1.36774193548387,1.38387096774194,1.39032258064516,1.39032258064516,1.43548387096774,1.43870967741935,1.44838709677419,1.44193548387097,1.43225806451613,1.43225806451613,1.41290322580645,1.39354838709677,1.37096774193548,1.38709677419355,1.37096774193548,1.37096774193548,1.35806451612903,1.36129032258065,1.34838709677419,1.39354838709677,1.58387096774194,1.67741935483871,1.75161290322581,1.66451612903226,1.47741935483871,1.46774193548387,1.46129032258065,1.4,1.36451612903226,1.36451612903226,1.36451612903226,1.35483870967742,1.34838709677419,1.36129032258065,1.36129032258065,1.36129032258065,1.36129032258065,1.36774193548387,1.36451612903226,1.37096774193548,1.38709677419355,1.3741935483871,1.39354838709677,1.39032258064516,1.39677419354839,1.40967741935484,1.41935483870968,1.43548387096774,1.43870967741935,1.44838709677419,1.46451612903226,1.4741935483871,1.49032258064516,1.49677419354839,1.51290322580645,1.51290322580645,1.51612903225806,1.50967741935484,1.49677419354839,1.46774193548387,1.43548387096774,1.41935483870968,1.40645161290323,1.39032258064516,1.38064516129032,1.3741935483871,1.37096774193548,1.37096774193548,1.37096774193548,1.37096774193548,1.3741935483871,1.37741935483871,1.37096774193548,1.37096774193548,1.37741935483871,1.38064516129032,1.37741935483871,1.36774193548387,1.3741935483871,1.36774193548387,1.36774193548387,1.3741935483871,1.3741935483871,1.3741935483871,1.3741935483871,1.37741935483871,1.3741935483871,1.37741935483871,1.37741935483871,1.37741935483871,1.36774193548387,1.38064516129032,1.37741935483871,1.36451612903226,1.37096774193548,1.37741935483871,1.37096774193548,1.36774193548387,1.36774193548387,1.37096774193548,1.3741935483871,1.36774193548387,1.36774193548387,1.36129032258065,1.36774193548387,1.36774193548387,1.36129032258065,1.36129032258065,1.36774193548387,1.36451612903226,1.36774193548387,1.36129032258065,1.36129032258065,1.36129032258065,1.36129032258065,1.36451612903226,1.36774193548387,1.37741935483871,1.38387096774194,1.4,1.43548387096774,1.43870967741935,1.43548387096774,1.43225806451613,1.42258064516129,1.41935483870968,1.39032258064516,1.37741935483871,1.37096774193548,1.37096774193548,1.36774193548387,1.36129032258065,1.35161290322581,1.35483870967742,1.30322580645161,1.49354838709677,1.67096774193548,1.74516129032258,1.73870967741935,1.60967741935484,1.45161290322581,1.47741935483871,1.44193548387097,1.38064516129032,1.37741935483871,1.36451612903226,1.35161290322581,1.35483870967742,1.35161290322581,1.35161290322581,1.35806451612903,1.34838709677419,1.36129032258065,1.36451612903226,1.36451612903226,1.36451612903226,1.36451612903226,1.37741935483871,1.37096774193548,1.38387096774194,1.39354838709677,1.40322580645161,1.41612903225806,1.4258064516129,1.44193548387097,1.45161290322581,1.46451612903226,1.4741935483871,1.49677419354839,1.51290322580645,1.51290322580645,1.50645161290323,1.51290322580645,1.5,1.46774193548387,1.44516129032258,1.42258064516129,1.41290322580645,1.39354838709677,1.3741935483871,1.3741935483871,1.3741935483871,1.36129032258065,1.37096774193548,1.36129032258065,1.35806451612903,1.3741935483871,1.37096774193548,1.37741935483871,1.37741935483871,1.36451612903226,1.37741935483871,1.37741935483871,1.36774193548387,1.38064516129032,1.37741935483871,1.36774193548387,1.38064516129032,1.37741935483871,1.37096774193548,1.38387096774194,1.37741935483871,1.38064516129032,1.37096774193548,1.37096774193548,1.3741935483871,1.36774193548387,1.3741935483871,1.36451612903226,1.36451612903226,1.3741935483871,1.36129032258065,1.36774193548387,1.36451612903226,1.36774193548387,1.36774193548387,1.36774193548387,1.36774193548387,1.35806451612903,1.36451612903226,1.36774193548387,1.36451612903226,1.35806451612903,1.36451612903226,1.35806451612903,1.36774193548387,1.35806451612903,1.36129032258065,1.35806451612903,1.36774193548387,1.36774193548387,1.36129032258065,1.36129032258065,1.35806451612903,1.37096774193548,1.36451612903226,1.38709677419355,1.38387096774194,1.4,1.44516129032258,1.44838709677419,1.44838709677419,1.44838709677419,1.43225806451613,1.41935483870968,1.42258064516129,1.38709677419355,1.3741935483871,1.3741935483871,1.36774193548387,1.36129032258065,1.35161290322581,1.34193548387097,1.31612903225806,1.39677419354839,1.63548387096774,1.76129032258065,1.81612903225806,1.71935483870968,1.5,1.50967741935484,1.47741935483871,1.41935483870968,1.3741935483871,1.36451612903226,1.36129032258065,1.35483870967742,1.35483870967742,1.35806451612903,1.35806451612903,1.35483870967742,1.35806451612903,1.35483870967742,1.35806451612903,1.36451612903226,1.36451612903226,1.3741935483871,1.3741935483871,1.38064516129032,1.39677419354839,1.4,1.40967741935484,1.4258064516129,1.43225806451613,1.45161290322581,1.46451612903226,1.48709677419355,1.49032258064516,1.50967741935484,1.50967741935484,1.51290322580645,1.51612903225806,1.51290322580645,1.49354838709677,1.46774193548387,1.44193548387097,1.41612903225806,1.39677419354839,1.38709677419355,1.3741935483871,1.36451612903226,1.36774193548387,1.37096774193548,1.37096774193548,1.36774193548387,1.36774193548387,1.37096774193548,1.36451612903226,1.37741935483871,1.37096774193548,1.3741935483871,1.3741935483871,1.38064516129032,1.3741935483871,1.38064516129032,1.36774193548387,1.38064516129032,1.37096774193548,1.38387096774194,1.38064516129032,1.38064516129032,1.37741935483871,1.36774193548387,1.3741935483871,1.3741935483871,1.36774193548387,1.36774193548387,1.3741935483871,1.36129032258065,1.36451612903226,1.36129032258065,1.37096774193548,1.36129032258065,1.36774193548387,1.36774193548387,1.37096774193548,1.36774193548387,1.36451612903226,1.37096774193548,1.37096774193548,1.36451612903226,1.36451612903226,1.36451612903226,1.36774193548387,1.36451612903226,1.36774193548387,1.36451612903226,1.35806451612903,1.36451612903226,1.36451612903226,1.37096774193548,1.36451612903226,1.37096774193548,1.35806451612903,1.36451612903226,1.35806451612903,1.36774193548387,1.36774193548387,1.38387096774194,1.38064516129032,1.39677419354839,1.44193548387097,1.44516129032258,1.43548387096774,1.44193548387097,1.42258064516129,1.41935483870968,1.40322580645161,1.38064516129032,1.36774193548387,1.37096774193548,1.35806451612903,1.35806451612903,1.34838709677419,1.35161290322581,1.31612903225806,1.42903225806452,1.66129032258065,1.76774193548387,1.82258064516129,1.68709677419355,1.47741935483871,1.49677419354839,1.48064516129032,1.39354838709677,1.37096774193548,1.35483870967742,1.35483870967742,1.34516129032258,1.35161290322581,1.35161290322581,1.35483870967742,1.35161290322581,1.35806451612903,1.36129032258065,1.36129032258065,1.37096774193548,1.37096774193548,1.37741935483871,1.37741935483871,1.39354838709677,1.39354838709677,1.40322580645161,1.42258064516129,1.4258064516129,1.44193548387097,1.46129032258065,1.46774193548387,1.49032258064516,1.50322580645161,1.51290322580645,1.52258064516129,1.52903225806452,1.5258064516129,1.51290322580645,1.49032258064516,1.46129032258065,1.44193548387097,1.41612903225806,1.39354838709677,1.38387096774194,1.3741935483871,1.36451612903226,1.36451612903226,1.36129032258065,1.36129032258065,1.36451612903226,1.36451612903226,1.36129032258065,1.35806451612903,1.35806451612903,1.37096774193548,1.36129032258065,1.37096774193548,1.3741935483871,1.3741935483871,1.3741935483871,1.37096774193548,1.38064516129032,1.38064516129032,1.3741935483871,1.3741935483871,1.37096774193548,1.37096774193548,1.37096774193548,1.36451612903226,1.38064516129032,1.37741935483871,1.37096774193548,1.36451612903226,1.36774193548387,1.37096774193548,1.35483870967742,1.36129032258065,1.36129032258065,1.36129032258065,1.35806451612903,1.36451612903226,1.36129032258065,1.36451612903226,1.36774193548387,1.36451612903226,1.36451612903226,1.36774193548387,1.36451612903226,1.36129032258065,1.35806451612903,1.36451612903226,1.36451612903226,1.36774193548387,1.36774193548387,1.36774193548387,1.36451612903226,1.36451612903226,1.36774193548387,1.36129032258065,1.35806451612903,1.36451612903226,1.37096774193548,1.37096774193548,1.38709677419355,1.38709677419355,1.42258064516129,1.43548387096774,1.43870967741935,1.43870967741935,1.4258064516129,1.41290322580645,1.41290322580645,1.38709677419355,1.37096774193548,1.38064516129032,1.37096774193548,1.36451612903226,1.35806451612903,1.36129032258065,1.33548387096774,1.37741935483871,1.56774193548387,1.70645161290323,1.78387096774194,1.71290322580645,1.5,1.46774193548387,1.48387096774194,1.41612903225806,1.37741935483871,1.35806451612903,1.36774193548387,1.35806451612903,1.35806451612903,1.35806451612903,1.36451612903226,1.35806451612903,1.36451612903226,1.37096774193548,1.3741935483871,1.36774193548387,1.3741935483871,1.38387096774194,1.38709677419355,1.39677419354839,1.40322580645161,1.41290322580645,1.42258064516129,1.4258064516129,1.44838709677419,1.45483870967742,1.47096774193548,1.47741935483871,1.49032258064516,1.50645161290323,1.51612903225806,1.52258064516129,1.51612903225806,1.51935483870968,1.49677419354839,1.47741935483871,1.45483870967742,1.4258064516129,1.4,1.39677419354839,1.38064516129032,1.37096774193548,1.3741935483871,1.36774193548387,1.35806451612903,1.37096774193548,1.35806451612903,1.36451612903226,1.3741935483871,1.36774193548387,1.36774193548387,1.36774193548387,1.37096774193548,1.37096774193548,1.3741935483871,1.36774193548387,1.3741935483871,1.3741935483871,1.36774193548387,1.36451612903226,1.36774193548387,1.37096774193548,1.37096774193548,1.36774193548387,1.37741935483871,1.36774193548387,1.37096774193548,1.37096774193548,1.37741935483871,1.36774193548387,1.36129032258065,1.36129032258065,1.36129032258065,1.36451612903226,1.36129032258065,1.36129032258065,1.35806451612903,1.36129032258065,1.36129032258065,1.36774193548387,1.36774193548387,1.36774193548387,1.36129032258065,1.37096774193548,1.36451612903226,1.36774193548387,1.3741935483871,1.36451612903226,1.36451612903226,1.37096774193548,1.36129032258065,1.36451612903226,1.3741935483871,1.37096774193548,1.38709677419355,1.38064516129032,1.41935483870968,1.43870967741935,1.43225806451613,1.43548387096774,1.42903225806452,1.41612903225806,1.42258064516129,1.38709677419355,1.37096774193548,1.37096774193548,1.37741935483871,1.3741935483871,1.35806451612903,1.35806451612903,1.35483870967742,1.32903225806452,1.51290322580645,1.65483870967742,1.71612903225806,1.70645161290323,1.55483870967742,1.45483870967742,1.46774193548387,1.42258064516129,1.37741935483871,1.37096774193548,1.37096774193548,1.36774193548387,1.36129032258065,1.36129032258065,1.35806451612903,1.36774193548387,1.36129032258065,1.37096774193548,1.36774193548387,1.37096774193548,1.3741935483871,1.38709677419355,1.39032258064516,1.39032258064516,1.39354838709677,1.41290322580645,1.40967741935484,1.43225806451613,1.4258064516129,1.44838709677419,1.46774193548387,1.47096774193548,1.49032258064516,1.49354838709677,1.50322580645161,1.50967741935484,1.51935483870968,1.50967741935484,1.50322580645161,1.47096774193548,1.44838709677419,1.42258064516129,1.40322580645161,1.39032258064516,1.38064516129032,1.37741935483871,1.3741935483871,1.37096774193548,1.3741935483871,1.37741935483871,1.37096774193548,1.3741935483871,1.3741935483871,1.3741935483871,1.36774193548387,1.37741935483871,1.38064516129032,1.37096774193548,1.37741935483871,1.38064516129032,1.37096774193548,1.38064516129032,1.37096774193548,1.3741935483871,1.37741935483871,1.37741935483871,1.3741935483871,1.3741935483871,1.3741935483871,1.37741935483871,1.37096774193548,1.3741935483871,1.37096774193548,1.36451612903226,1.37096774193548,1.37096774193548,1.3741935483871,1.36451612903226,1.36774193548387,1.37741935483871,1.36451612903226,1.36451612903226,1.36129032258065,1.36129032258065,1.36129032258065,1.36451612903226,1.35806451612903,1.35806451612903,1.35806451612903,1.36774193548387,1.36129032258065,1.36129032258065,1.35806451612903,1.36129032258065,1.36129032258065,1.36451612903226,1.36451612903226,1.36451612903226,1.37096774193548,1.38064516129032,1.37741935483871,1.39354838709677,1.43548387096774,1.43870967741935,1.43225806451613,1.43870967741935,1.43548387096774,1.41935483870968,1.40967741935484,1.37096774193548,1.36129032258065,1.36774193548387,1.36129032258065,1.35483870967742,1.34838709677419,1.34516129032258,1.31612903225806,1.40645161290323,1.63870967741935,1.73225806451613,1.79677419354839,1.69354838709677,1.48709677419355,1.5,1.47096774193548,1.4,1.35806451612903,1.35806451612903,1.35483870967742,1.34838709677419,1.35161290322581,1.34838709677419,1.35161290322581,1.35161290322581,1.34516129032258,1.35161290322581,1.35161290322581,1.35806451612903,1.35806451612903,1.36451612903226,1.36774193548387,1.3741935483871,1.38064516129032,1.38709677419355,1.4,1.40645161290323,1.4258064516129,1.44193548387097,1.45483870967742,1.46451612903226,1.48387096774194,1.49354838709677,1.50322580645161,1.51612903225806,1.50645161290323,1.50322580645161,1.48064516129032,1.45483870967742,1.42258064516129,1.40645161290323,1.39032258064516,1.38064516129032,1.3741935483871,1.36451612903226,1.36774193548387,1.36451612903226,1.35806451612903,1.36451612903226,1.35806451612903,1.37096774193548,1.36774193548387,1.36774193548387,1.36129032258065,1.36451612903226,1.36774193548387,1.37096774193548,1.3741935483871,1.3741935483871,1.3741935483871,1.37096774193548,1.38387096774194,1.36774193548387,1.37741935483871,1.38387096774194,1.38709677419355,1.39032258064516,1.38387096774194,1.38709677419355,1.39354838709677,1.39354838709677,1.39032258064516,1.39032258064516,1.40322580645161,1.39677419354839,1.39677419354839,1.39677419354839,1.4,1.39677419354839,1.40967741935484,1.39677419354839,1.40967741935484,1.4,1.40645161290323,1.40967741935484,1.40645161290323,1.41935483870968,1.41935483870968,1.41612903225806,1.4258064516129,1.41612903225806,1.42903225806452,1.4258064516129
1.47741935483871,1.50322580645161,1.51612903225806,1.53870967741935,1.54838709677419,1.58387096774194,1.58387096774194,1.58387096774194,1.5741935483871,1.53548387096774,1.49354838709677,1.45483870967742,1.42258064516129,1.39677419354839,1.38387096774194,1.3741935483871,1.36774193548387,1.35806451612903,1.35161290322581,1.35806451612903,1.35806451612903,1.36451612903226,1.36451612903226,1.36129032258065,1.36451612903226,1.36129032258065,1.35161290322581,1.36774193548387,1.3741935483871,1.3741935483871,1.37096774193548,1.3741935483871,1.36774193548387,1.37096774193548,1.38064516129032,1.36129032258065,1.37096774193548,1.36774193548387,1.36774193548387,1.36451612903226,1.3741935483871,1.36451612903226,1.36774193548387,1.35483870967742,1.36774193548387,1.35806451612903,1.36129032258065,1.36129032258065,1.35806451612903,1.36129032258065,1.35161290322581,1.35806451612903,1.36129032258065,1.36129032258065,1.36129032258065,1.36129032258065,1.36129032258065,1.36129032258065,1.36451612903226,1.35806451612903,1.35806451612903,1.35806451612903,1.35806451612903,1.37096774193548,1.37096774193548,1.35483870967742,1.35483870967742,1.36774193548387,1.37096774193548,1.36129032258065,1.36129032258065,1.35806451612903,1.36129032258065,1.36129032258065,1.36129032258065,1.36451612903226,1.36129032258065,1.36451612903226,1.36451612903226,1.36129032258065,1.36451612903226,1.37096774193548,1.3741935483871,1.38387096774194,1.39354838709677,1.39354838709677,1.45161290322581,1.43870967741935,1.44516129032258,1.43870967741935,1.43548387096774,1.42258064516129,1.40322580645161,1.36774193548387,1.3741935483871,1.36774193548387,1.35161290322581,1.36451612903226,1.35483870967742,1.35806451612903,1.33225806451613,1.40967741935484,1.59677419354839,1.70322580645161,1.74838709677419,1.63870967741935,1.44193548387097,1.48064516129032,1.45806451612903,1.39677419354839,1.36451612903226,1.37096774193548,1.35483870967742,1.36451612903226,1.36451612903226,1.36129032258065,1.35161290322581,1.35483870967742,1.36451612903226,1.36774193548387,1.3741935483871,1.37741935483871,1.38064516129032,1.39032258064516,1.39677419354839,1.40645161290323,1.39677419354839,1.40967741935484,1.43225806451613,1.43870967741935,1.45483870967742,1.46129032258065,1.48064516129032,1.5,1.51612903225806,1.5258064516129,1.56129032258065,1.5741935483871,1.58709677419355,1.58709677419355,1.58387096774194,1.56451612903226,1.52903225806452,1.47741935483871,1.45806451612903,1.4258064516129,1.4,1.39677419354839,1.38709677419355,1.37741935483871,1.36774193548387,1.3741935483871,1.37741935483871,1.36451612903226,1.36451612903226,1.36774193548387,1.37096774193548,1.36129032258065,1.3741935483871,1.37741935483871,1.36451612903226,1.37741935483871,1.37096774193548,1.38064516129032,1.37096774193548,1.3741935483871,1.36451612903226,1.3741935483871,1.36129032258065,1.36129032258065,1.36774193548387,1.36129032258065,1.35806451612903,1.36129032258065,1.37096774193548,1.36129032258065,1.36129032258065,1.36129032258065,1.35161290322581,1.36129032258065,1.36129032258065,1.36129032258065,1.36451612903226,1.36129032258065,1.35483870967742,1.36129032258065,1.35483870967742,1.36129032258065,1.36451612903226,1.34516129032258,1.35161290322581,1.35806451612903,1.35483870967742,1.35161290322581,1.34838709677419,1.35161290322581,1.35806451612903,1.34516129032258,1.35806451612903,1.35806451612903,1.35806451612903,1.35806451612903,1.35806451612903,1.35806451612903,1.35483870967742,1.36129032258065,1.35806451612903,1.35806451612903,1.35806451612903,1.35806451612903,1.37096774193548,1.36774193548387,1.36774193548387,1.38387096774194,1.37741935483871,1.40967741935484,1.43870967741935,1.43225806451613,1.42903225806452,1.42903225806452,1.40967741935484,1.41935483870968,1.38064516129032,1.37096774193548,1.3741935483871,1.36451612903226,1.35161290322581,1.35161290322581,1.35161290322581,1.35161290322581,1.33548387096774,1.51290322580645,1.67741935483871,1.75806451612903,1.71612903225806,1.5258064516129,1.47096774193548,1.48064516129032,1.42258064516129,1.37096774193548,1.3741935483871,1.35806451612903,1.35806451612903,1.35161290322581,1.35806451612903,1.35806451612903,1.36129032258065,1.35483870967742,1.36774193548387,1.3741935483871,1.38064516129032,1.38064516129032,1.38064516129032,1.39032258064516,1.4,1.4,1.40967741935484,1.4258064516129,1.43225806451613,1.44193548387097,1.45161290322581,1.46129032258065,1.48709677419355,1.50322580645161,1.51935483870968,1.54193548387097,1.54838709677419,1.5741935483871,1.57741935483871,1.57741935483871,1.57096774193548,1.53225806451613,1.5,1.46129032258065,1.43548387096774,1.40322580645161,1.39032258064516,1.38387096774194,1.36774193548387,1.36451612903226,1.36774193548387,1.36774193548387,1.37741935483871,1.36774193548387,1.36129032258065,1.3741935483871,1.37741935483871,1.36451612903226,1.37096774193548,1.37096774193548,1.37096774193548,1.36451612903226,1.3741935483871,1.37096774193548,1.37096774193548,1.37741935483871,1.36129032258065,1.37096774193548,1.37096774193548,1.37096774193548,1.36774193548387,1.37741935483871,1.36774193548387,1.36774193548387,1.36451612903226,1.36774193548387,1.36774193548387,1.36774193548387,1.36451612903226,1.36451612903226,1.36129032258065,1.36129032258065,1.36451612903226,1.36129032258065,1.36129032258065,1.36451612903226,1.36451612903226,1.36774193548387,1.35806451612903,1.36451612903226,1.36129032258065,1.36774193548387,1.35806451612903,1.36451612903226,1.36129032258065,1.36451612903226,1.36451612903226,1.35806451612903,1.35483870967742,1.35806451612903,1.36129032258065,1.36129032258065,1.36451612903226,1.35806451612903,1.36451612903226,1.35806451612903,1.35806451612903,1.36451612903226,1.35806451612903,1.36129032258065,1.35483870967742,1.35806451612903,1.35806451612903,1.35806451612903,1.36129032258065,1.3741935483871,1.37741935483871,1.37741935483871,1.40645161290323,1.44516129032258,1.44193548387097,1.43225806451613,1.43225806451613,1.4258064516129,1.40967741935484,1.38064516129032,1.36451612903226,1.37096774193548,1.38064516129032,1.36129032258065,1.35806451612903,1.35161290322581,1.35806451612903,1.31612903225806,1.45483870967742,1.67096774193548,1.76774193548387,1.78064516129032,1.64193548387097,1.45483870967742,1.5,1.45483870967742,1.39677419354839,1.37096774193548,1.36451612903226,1.36451612903226,1.36451612903226,1.35806451612903,1.35806451612903,1.35483870967742,1.35806451612903,1.35161290322581,1.36451612903226,1.36451612903226,1.3741935483871,1.37096774193548,1.38709677419355,1.39032258064516,1.38709677419355,1.39354838709677,1.41612903225806,1.4258064516129,1.43225806451613,1.44838709677419,1.45483870967742,1.47741935483871,1.5,1.51290322580645,1.53548387096774,1.55806451612903,1.56774193548387,1.58064516129032,1.58387096774194,1.57741935483871,1.55161290322581,1.51290322580645,1.4741935483871,1.44193548387097,1.40645161290323,1.4,1.37741935483871,1.37096774193548,1.35806451612903,1.36129032258065,1.36129032258065,1.36129032258065,1.36451612903226,1.36129032258065,1.36451612903226,1.36451612903226,1.36774193548387,1.36129032258065,1.37096774193548,1.36774193548387,1.36451612903226,1.37741935483871,1.3741935483871,1.37741935483871,1.3741935483871,1.36774193548387,1.3741935483871,1.36774193548387,1.3741935483871,1.3741935483871,1.37741935483871,1.36451612903226,1.36774193548387,1.36451612903226,1.36451612903226,1.36774193548387,1.35806451612903,1.36774193548387,1.36451612903226,1.36451612903226,1.36451612903226,1.35161290322581,1.35806451612903,1.35483870967742,1.36129032258065,1.35483870967742,1.35806451612903,1.3741935483871,1.35806451612903,1.35806451612903,1.36129032258065,1.35483870967742,1.35806451612903,1.36451612903226,1.36774193548387,1.36129032258065,1.36451612903226,1.36774193548387,1.35483870967742,1.36129032258065,1.36774193548387,1.36129032258065,1.35806451612903,1.35483870967742,1.35806451612903,1.35806451612903,1.36129032258065,1.36129032258065,1.35806451612903,1.36451612903226,1.36451612903226,1.35483870967742,1.36451612903226,1.37096774193548,1.37741935483871,1.37096774193548,1.39677419354839,1.44516129032258,1.44516129032258,1.43548387096774,1.43225806451613,1.42903225806452,1.4258064516129,1.38709677419355,1.36451612903226,1.36129032258065,1.3741935483871,1.35161290322581,1.35161290322581,1.35161290322581,1.35483870967742,1.31612903225806,1.44838709677419,1.63548387096774,1.71935483870968,1.72903225806452,1.60967741935484,1.41935483870968,1.47741935483871,1.43870967741935,1.39354838709677,1.36774193548387,1.36451612903226,1.36451612903226,1.35806451612903,1.35806451612903,1.35483870967742,1.36129032258065,1.36129032258065,1.3741935483871,1.3741935483871,1.37096774193548,1.36774193548387,1.3741935483871,1.38387096774194,1.40645161290323,1.4,1.41290322580645,1.41290322580645,1.43548387096774,1.44193548387097,1.44838709677419,1.46129032258065,1.48709677419355,1.49354838709677,1.51935483870968,1.53870967741935,1.56129032258065,1.57096774193548,1.58064516129032,1.58709677419355,1.58387096774194,1.55161290322581,1.51612903225806,1.48387096774194,1.44516129032258,1.41612903225806,1.4,1.38709677419355,1.37096774193548,1.37096774193548,1.37096774193548,1.37096774193548,1.37096774193548,1.36129032258065,1.36129032258065,1.36451612903226,1.36451612903226,1.3741935483871,1.3741935483871,1.3741935483871,1.36774193548387,1.3741935483871,1.37741935483871,1.37096774193548,1.37096774193548,1.37741935483871,1.37741935483871,1.37096774193548,1.36451612903226,1.36774193548387,1.38064516129032,1.36451612903226,1.36129032258065,1.36774193548387,1.36774193548387,1.36774193548387,1.37096774193548,1.36451612903226,1.36774193548387,1.36451612903226,1.35483870967742,1.35483870967742,1.35483870967742,1.36774193548387,1.35806451612903,1.35806451612903,1.36451612903226,1.35806451612903,1.35806451612903,1.35483870967742,1.35483870967742,1.36451612903226,1.35806451612903,1.36451612903226,1.35483870967742,1.35806451612903,1.35806451612903,1.35806451612903,1.35161290322581,1.35806451612903,1.35161290322581,1.35806451612903,1.35483870967742,1.35483870967742,1.35161290322581,1.35806451612903,1.35806451612903,1.35161290322581,1.35806451612903,1.37741935483871,1.3741935483871,1.37741935483871,1.41935483870968,1.42258064516129,1.43870967741935,1.43870967741935,1.41935483870968,1.41290322580645,1.39677419354839,1.36774193548387,1.36129032258065,1.36451612903226,1.36129032258065,1.35806451612903,1.35806451612903,1.35161290322581,1.33870967741935,1.38387096774194,1.55806451612903,1.6741935483871,1.73548387096774,1.67096774193548,1.47096774193548,1.48064516129032,1.45806451612903,1.42258064516129,1.3741935483871,1.37741935483871,1.36129032258065,1.36129032258065,1.35483870967742,1.35806451612903,1.35483870967742,1.35483870967742,1.35806451612903,1.3741935483871,1.37096774193548,1.37741935483871,1.38387096774194,1.3741935483871,1.39354838709677,1.39677419354839,1.39354838709677,1.41290322580645,1.40967741935484,1.43225806451613,1.43548387096774,1.45483870967742,1.4741935483871,1.49032258064516,1.49677419354839,1.51935483870968,1.53870967741935,1.55806451612903,1.56451612903226,1.58064516129032,1.56451612903226,1.55483870967742,1.53225806451613,1.48709677419355,1.44838709677419,1.41612903225806,1.39677419354839,1.38387096774194,1.3741935483871,1.36451612903226,1.36451612903226,1.36451612903226,1.36129032258065,1.36129032258065,1.36129032258065,1.36129032258065,1.36129032258065,1.36129032258065,1.36129032258065,1.37741935483871,1.3741935483871,1.36774193548387,1.36774193548387,1.3741935483871,1.37096774193548,1.37741935483871,1.38709677419355,1.37096774193548,1.37096774193548,1.36774193548387,1.36774193548387,1.37096774193548,1.36451612903226,1.3741935483871,1.36451612903226,1.3741935483871,1.36129032258065,1.37096774193548,1.36774193548387,1.36774193548387,1.36451612903226,1.35806451612903,1.37096774193548,1.35483870967742,1.36129032258065,1.36774193548387,1.36451612903226,1.35806451612903,1.36774193548387,1.36774193548387,1.37096774193548,1.35483870967742,1.36129032258065,1.36451612903226,1.37096774193548,1.36451612903226,1.35806451612903,1.36129032258065,1.36129032258065,1.35483870967742,1.35806451612903,1.36451612903226,1.36774193548387,1.35161290322581,1.35483870967742,1.35806451612903,1.35806451612903,1.35806451612903,1.34838709677419,1.35806451612903,1.36129032258065,1.36129032258065,1.36451612903226,1.37741935483871,1.38387096774194,1.38387096774194,1.40967741935484,1.44838709677419,1.44193548387097,1.44516129032258,1.4258064516129,1.4258064516129,1.41612903225806,1.38709677419355,1.36774193548387,1.36129032258065,1.37096774193548,1.36129032258065,1.34838709677419,1.36129032258065,1.34516129032258,1.30967741935484,1.5,1.69677419354839,1.78387096774194,1.76129032258065,1.6,1.47096774193548,1.49354838709677,1.44516129032258,1.38387096774194,1.37096774193548,1.37741935483871,1.36129032258065,1.36129032258065,1.35483870967742,1.35483870967742,1.36451612903226,1.35483870967742,1.35806451612903,1.37096774193548,1.36774193548387,1.3741935483871,1.37741935483871,1.37741935483871,1.38709677419355,1.4,1.40967741935484,1.41612903225806,1.4258064516129,1.42903225806452,1.44193548387097,1.46129032258065,1.48387096774194,1.49677419354839,1.51935483870968,1.53548387096774,1.55161290322581,1.56774193548387,1.58387096774194,1.58709677419355,1.56774193548387,1.54516129032258,1.51290322580645,1.47096774193548,1.43225806451613,1.40967741935484,1.39032258064516,1.38064516129032,1.37096774193548,1.36451612903226,1.36129032258065,1.36451612903226,1.36451612903226,1.36451612903226,1.35806451612903,1.36451612903226,1.35806451612903,1.35806451612903,1.36774193548387,1.36774193548387,1.37741935483871,1.37741935483871,1.36774193548387,1.37096774193548,1.3741935483871,1.37741935483871,1.37096774193548,1.3741935483871,1.36774193548387,1.36774193548387,1.35806451612903,1.36774193548387,1.35483870967742,1.35806451612903,1.36774193548387,1.36774193548387,1.35806451612903,1.36774193548387,1.35806451612903,1.35483870967742,1.35806451612903,1.36129032258065,1.35806451612903,1.35806451612903,1.35806451612903,1.35161290322581,1.35806451612903,1.35161290322581,1.35806451612903,1.35161290322581,1.35483870967742,1.36129032258065,1.34838709677419,1.34838709677419,1.35806451612903,1.35161290322581,1.35161290322581,1.35161290322581,1.35483870967742,1.35161290322581,1.35806451612903,1.35161290322581,1.35806451612903,1.35806451612903,1.36129032258065,1.35483870967742,1.35161290322581,1.35806451612903,1.35483870967742,1.36129032258065,1.36451612903226,1.35483870967742,1.35483870967742,1.36451612903226,1.37096774193548,1.38709677419355,1.38709677419355,1.38709677419355,1.43225806451613,1.44838709677419,1.44193548387097,1.44193548387097,1.44193548387097,1.41935483870968,1.40967741935484,1.38387096774194,1.36129032258065,1.3741935483871,1.35806451612903,1.36129032258065,1.35483870967742,1.35161290322581,1.33225806451613,1.39677419354839,1.62258064516129,1.75483870967742,1.80967741935484,1.69354838709677,1.48064516129032,1.49354838709677,1.47096774193548,1.4,1.37741935483871,1.36451612903226,1.35806451612903,1.34838709677419,1.35483870967742,1.36451612903226,1.35806451612903,1.35806451612903,1.35806451612903,1.35806451612903,1.36129032258065,1.36774193548387,1.37096774193548,1.38064516129032,1.38709677419355,1.39354838709677,1.39354838709677,1.40967741935484,1.41612903225806,1.43548387096774,1.44516129032258,1.45483870967742,1.47096774193548,1.48387096774194,1.50645161290323,1.53870967741935,1.55161290322581,1.57741935483871,1.58387096774194,1.6,1.58709677419355,1.56129032258065,1.5258064516129,1.49032258064516,1.44193548387097,1.4258064516129,1.40322580645161,1.38064516129032,1.36451612903226,1.3741935483871,1.36451612903226,1.36129032258065,1.36129032258065,1.36451612903226,1.36451612903226,1.36129032258065,1.36451612903226,1.36451612903226,1.36451612903226,1.37096774193548,1.3741935483871,1.36774193548387,1.37741935483871,1.36129032258065,1.3741935483871,1.36129032258065,1.3741935483871,1.38064516129032,1.36774193548387,1.36774193548387,1.36774193548387,1.36774193548387,1.36774193548387,1.3741935483871,1.3741935483871,1.3741935483871,1.36774193548387,1.3741935483871,1.36774193548387,1.36774193548387,1.3741935483871,1.36774193548387,1.36774193548387,1.36451612903226,1.36129032258065,1.36451612903226,1.36129032258065,1.36129032258065,1.36451612903226,1.36129032258065,1.35483870967742,1.35161290322581,1.35806451612903,1.35806451612903,1.35483870967742,1.34838709677419,1.35806451612903,1.35483870967742,1.35483870967742,1.35483870967742,1.36451612903226,1.35161290322581,1.35483870967742,1.36774193548387,1.36129032258065,1.36129032258065,1.36129032258065,1.36451612903226,1.36451612903226,1.35806451612903,1.36129032258065,1.35483870967742,1.37096774193548,1.3741935483871,1.38387096774194,1.37741935483871,1.41935483870968,1.44193548387097,1.43225806451613,1.42903225806452,1.4258064516129,1.41290322580645,1.40322580645161,1.36774193548387,1.35483870967742,1.36451612903226,1.35161290322581,1.35161290322581,1.34516129032258,1.34516129032258,1.34516129032258,1.33548387096774,1.51935483870968,1.68064516129032,1.74516129032258,1.69677419354839,1.51290322580645,1.45161290322581,1.46774193548387,1.42258064516129,1.37096774193548,1.36129032258065,1.35806451612903,1.35483870967742,1.35483870967742,1.36451612903226,1.35483870967742,1.34838709677419,1.36451612903226,1.36129032258065,1.36451612903226,1.36451612903226,1.37096774193548,1.38064516129032,1.39354838709677,1.39354838709677,1.40645161290323,1.40322580645161,1.40967741935484,1.44193548387097,1.44838709677419,1.45483870967742,1.46774193548387,1.49032258064516,1.50967741935484,1.53225806451613,1.55483870967742,1.56129032258065,1.5741935483871,1.57741935483871,1.58387096774194,1.57096774193548,1.53225806451613,1.49677419354839,1.46451612903226,1.42903225806452,1.41290322580645,1.39354838709677,1.38387096774194,1.38064516129032,1.37096774193548,1.3741935483871,1.36774193548387,1.36774193548387,1.36774193548387,1.36451612903226,1.36774193548387,1.37741935483871,1.3741935483871,1.37741935483871,1.37741935483871,1.38387096774194,1.38064516129032,1.38387096774194,1.38064516129032,1.3741935483871,1.3741935483871,1.38064516129032,1.3741935483871,1.37096774193548,1.3741935483871,1.3741935483871,1.37741935483871,1.37741935483871,1.3741935483871,1.37741935483871,1.3741935483871,1.37741935483871,1.37096774193548,1.3741935483871,1.3741935483871,1.37096774193548,1.37096774193548,1.36129032258065,1.37096774193548,1.36129032258065,1.37096774193548,1.36129032258065,1.36774193548387,1.36129032258065,1.36774193548387,1.36129032258065,1.36774193548387,1.36129032258065,1.35806451612903,1.36774193548387,1.36129032258065,1.35806451612903,1.35806451612903,1.35806451612903,1.36129032258065,1.36129032258065,1.37096774193548,1.35806451612903,1.35806451612903,1.36129032258065,1.36129032258065,1.35483870967742,1.36129032258065,1.36774193548387,1.3741935483871,1.37741935483871,1.3741935483871,1.40645161290323,1.43870967741935,1.4258064516129,1.42258064516129,1.41935483870968,1.40645161290323,1.4,1.3741935483871,1.35483870967742,1.36129032258065,1.34193548387097,1.34838709677419,1.33870967741935,1.33870967741935,1.3258064516129,1.36129032258065,1.56129032258065,1.6741935483871,1.73548387096774,1.66129032258065,1.45483870967742,1.46451612903226,1.44838709677419,1.4,1.35806451612903,1.35161290322581,1.34838709677419,1.34516129032258,1.33548387096774,1.35483870967742,1.34838709677419,1.34838709677419,1.34516129032258,1.34838709677419,1.36129032258065,1.36451612903226,1.36774193548387,1.3741935483871,1.38709677419355,1.37741935483871,1.39032258064516,1.39354838709677,1.40967741935484,1.41612903225806,1.4258064516129,1.43870967741935,1.45483870967742,1.47096774193548,1.49032258064516,1.51935483870968,1.53225806451613,1.54838709677419,1.54516129032258,1.56451612903226,1.56129032258065,1.54838709677419,1.50967741935484,1.47096774193548,1.44193548387097,1.40645161290323,1.39677419354839,1.38387096774194,1.37741935483871,1.37096774193548,1.35483870967742,1.36774193548387,1.36774193548387,1.36129032258065,1.36451612903226,1.37096774193548,1.35806451612903,1.37096774193548,1.36129032258065,1.3741935483871,1.37096774193548,1.36774193548387,1.37096774193548,1.3741935483871,1.37741935483871,1.37096774193548,1.38064516129032,1.36774193548387,1.37741935483871,1.3741935483871,1.38387096774194,1.3741935483871,1.3741935483871,1.38064516129032,1.3741935483871,1.38064516129032,1.38709677419355,1.38387096774194,1.39032258064516,1.39032258064516,1.38064516129032,1.38064516129032,1.38064516129032,1.38387096774194,1.38064516129032,1.38387096774194,1.38387096774194,1.38709677419355,1.39032258064516,1.39032258064516,1.39677419354839,1.39032258064516,1.39354838709677,1.39354838709677,1.39677419354839,1.40322580645161,1.40645161290323,1.40645161290323,1.40322580645161,1.41290322580645,1.40967741935484,1.41612903225806,1.41935483870968,1.41935483870968,1.42258064516129,1.4258064516129,1.42903225806452,1.42903225806452,1.43225806451613
1.30322580645161,1.46774193548387,1.64516129032258,1.70645161290323,1.71612903225806,1.55161290322581,1.45161290322581,1.45483870967742,1.41612903225806,1.37096774193548,1.35483870967742,1.35483870967742,1.33870967741935,1.35161290322581,1.34838709677419,1.34838709677419,1.36129032258065,1.35806451612903,1.35483870967742,1.36129032258065,1.35806451612903,1.36129032258065,1.37096774193548,1.36451612903226,1.38387096774194,1.40645161290323,1.40322580645161,1.40322580645161,1.42258064516129,1.43870967741935,1.45161290322581,1.4741935483871,1.49032258064516,1.51290322580645,1.52258064516129,1.53548387096774,1.55806451612903,1.54193548387097,1.53225806451613,1.51935483870968,1.47096774193548,1.45161290322581,1.43870967741935,1.4,1.38387096774194,1.3741935483871,1.37096774193548,1.35806451612903,1.36129032258065,1.35806451612903,1.34838709677419,1.35806451612903,1.35483870967742,1.36451612903226,1.36451612903226,1.35483870967742,1.36451612903226,1.37096774193548,1.36451612903226,1.37096774193548,1.38387096774194,1.34838709677419,1.37096774193548,1.38064516129032,1.36774193548387,1.38064516129032,1.36451612903226,1.36451612903226,1.36774193548387,1.37096774193548,1.36451612903226,1.37096774193548,1.36129032258065,1.35806451612903,1.36129032258065,1.36451612903226,1.36774193548387,1.36451612903226,1.36451612903226,1.36129032258065,1.36451612903226,1.38064516129032,1.37096774193548,1.36451612903226,1.3741935483871,1.35806451612903,1.36774193548387,1.36774193548387,1.36774193548387,1.37096774193548,1.36129032258065,1.36774193548387,1.37096774193548,1.35161290322581,1.36451612903226,1.36774193548387,1.36774193548387,1.35483870967742,1.3741935483871,1.36774193548387,1.37096774193548,1.36774193548387,1.38387096774194,1.39354838709677,1.39354838709677,1.39032258064516,1.43548387096774,1.44516129032258,1.43548387096774,1.42903225806452,1.42903225806452,1.42258064516129,1.38387096774194,1.38709677419355,1.38709677419355,1.38064516129032,1.36129032258065,1.36129032258065,1.35483870967742,1.36129032258065,1.35483870967742,1.35483870967742,1.50967741935484,1.61612903225806,1.69032258064516,1.67096774193548,1.51290322580645,1.4741935483871,1.44838709677419,1.40967741935484,1.38064516129032,1.37096774193548,1.37096774193548,1.36451612903226,1.36451612903226,1.35483870967742,1.36451612903226,1.36451612903226,1.37096774193548,1.37096774193548,1.36129032258065,1.38064516129032,1.38387096774194,1.38387096774194,1.39354838709677,1.40967741935484,1.40967741935484,1.40967741935484,1.43548387096774,1.43548387096774,1.45483870967742,1.47096774193548,1.47741935483871,1.5,1.51612903225806,1.53870967741935,1.55806451612903,1.57741935483871,1.56129032258065,1.56129032258065,1.53548387096774,1.48709677419355,1.46451612903226,1.43225806451613,1.40322580645161,1.40322580645161,1.3741935483871,1.38387096774194,1.36451612903226,1.3741935483871,1.37741935483871,1.36129032258065,1.37096774193548,1.35806451612903,1.35161290322581,1.3741935483871,1.38064516129032,1.37096774193548,1.37096774193548,1.37096774193548,1.3741935483871,1.35806451612903,1.3741935483871,1.36774193548387,1.3741935483871,1.35483870967742,1.37096774193548,1.38064516129032,1.36774193548387,1.3741935483871,1.35483870967742,1.36774193548387,1.35806451612903,1.36774193548387,1.36774193548387,1.36774193548387,1.36451612903226,1.35806451612903,1.36774193548387,1.35161290322581,1.36774193548387,1.35806451612903,1.35161290322581,1.36451612903226,1.36451612903226,1.3741935483871,1.35161290322581,1.36774193548387,1.3741935483871,1.36774193548387,1.36774193548387,1.36451612903226,1.35806451612903,1.37096774193548,1.3741935483871,1.35806451612903,1.36774193548387,1.37096774193548,1.35806451612903,1.35806451612903,1.35161290322581,1.35806451612903,1.35483870967742,1.36451612903226,1.35483870967742,1.36451612903226,1.36774193548387,1.3741935483871,1.37741935483871,1.39677419354839,1.44838709677419,1.44516129032258,1.43870967741935,1.4258064516129,1.41935483870968,1.40967741935484,1.40967741935484,1.35806451612903,1.35483870967742,1.33548387096774,1.34838709677419,1.35161290322581,1.34516129032258,1.35161290322581,1.32903225806452,1.31612903225806,1.51612903225806,1.69032258064516,1.77741935483871,1.73870967741935,1.55806451612903,1.49677419354839,1.48709677419355,1.41935483870968,1.38064516129032,1.36774193548387,1.35806451612903,1.35161290322581,1.35806451612903,1.35806451612903,1.35806451612903,1.36451612903226,1.34193548387097,1.36451612903226,1.36451612903226,1.36451612903226,1.38064516129032,1.38064516129032,1.39677419354839,1.39677419354839,1.41612903225806,1.41935483870968,1.41935483870968,1.43225806451613,1.44838709677419,1.46774193548387,1.49677419354839,1.49677419354839,1.52258064516129,1.54516129032258,1.55806451612903,1.56774193548387,1.57741935483871,1.54516129032258,1.54516129032258,1.5,1.47096774193548,1.43225806451613,1.40967741935484,1.40322580645161,1.38064516129032,1.36451612903226,1.37096774193548,1.36451612903226,1.36451612903226,1.36129032258065,1.37741935483871,1.37096774193548,1.37096774193548,1.35806451612903,1.37096774193548,1.37096774193548,1.36451612903226,1.38064516129032,1.37096774193548,1.3741935483871,1.37096774193548,1.38709677419355,1.37096774193548,1.37096774193548,1.36451612903226,1.36774193548387,1.36129032258065,1.35483870967742,1.36451612903226,1.37096774193548,1.36129032258065,1.37096774193548,1.3741935483871,1.3741935483871,1.36451612903226,1.35806451612903,1.36774193548387,1.37096774193548,1.35806451612903,1.36451612903226,1.3741935483871,1.37096774193548,1.36451612903226,1.37096774193548,1.36129032258065,1.36129032258065,1.37096774193548,1.36774193548387,1.35483870967742,1.35483870967742,1.36774193548387,1.33870967741935,1.35806451612903,1.36774193548387,1.35806451612903,1.33225806451613,1.37096774193548,1.35806451612903,1.35806451612903,1.37096774193548,1.35806451612903,1.36129032258065,1.36129032258065,1.36129032258065,1.3741935483871,1.39032258064516,1.38387096774194,1.4,1.44516129032258,1.45161290322581,1.43225806451613,1.43548387096774,1.42903225806452,1.42258064516129,1.39032258064516,1.36129032258065,1.37741935483871,1.36451612903226,1.34838709677419,1.34838709677419,1.33870967741935,1.34516129032258,1.31612903225806,1.41290322580645,1.6,1.69677419354839,1.77096774193548,1.6741935483871,1.4741935483871,1.49677419354839,1.45161290322581,1.39032258064516,1.36774193548387,1.3741935483871,1.36129032258065,1.36129032258065,1.34516129032258,1.35161290322581,1.36129032258065,1.35161290322581,1.36451612903226,1.35483870967742,1.36774193548387,1.37096774193548,1.36774193548387,1.36451612903226,1.37741935483871,1.39354838709677,1.40322580645161,1.40322580645161,1.41290322580645,1.43870967741935,1.44838709677419,1.46129032258065,1.48064516129032,1.50645161290323,1.51612903225806,1.53548387096774,1.56129032258065,1.56129032258065,1.55483870967742,1.53870967741935,1.5,1.49032258064516,1.43870967741935,1.40967741935484,1.40322580645161,1.38387096774194,1.38064516129032,1.35806451612903,1.36451612903226,1.3741935483871,1.35161290322581,1.3741935483871,1.36129032258065,1.36451612903226,1.36451612903226,1.36451612903226,1.37096774193548,1.36774193548387,1.36451612903226,1.36451612903226,1.38064516129032,1.38709677419355,1.37096774193548,1.37096774193548,1.37741935483871,1.37741935483871,1.38709677419355,1.3741935483871,1.37096774193548,1.38064516129032,1.38064516129032,1.37096774193548,1.37096774193548,1.37096774193548,1.37096774193548,1.36451612903226,1.36451612903226,1.35483870967742,1.37096774193548,1.36451612903226,1.36451612903226,1.35483870967742,1.35483870967742,1.3741935483871,1.36451612903226,1.36451612903226,1.36451612903226,1.36451612903226,1.37096774193548,1.35806451612903,1.36451612903226,1.36451612903226,1.37096774193548,1.37741935483871,1.3741935483871,1.37096774193548,1.3741935483871,1.36451612903226,1.34838709677419,1.37741935483871,1.3741935483871,1.37741935483871,1.40322580645161,1.39677419354839,1.4258064516129,1.44193548387097,1.43548387096774,1.43870967741935,1.43870967741935,1.41612903225806,1.42258064516129,1.39032258064516,1.37096774193548,1.37741935483871,1.37096774193548,1.36129032258065,1.36129032258065,1.36774193548387,1.35483870967742,1.30645161290323,1.46451612903226,1.6,1.65161290322581,1.6741935483871,1.55161290322581,1.44193548387097,1.4741935483871,1.42258064516129,1.37741935483871,1.36129032258065,1.3741935483871,1.35806451612903,1.36129032258065,1.36129032258065,1.36774193548387,1.36774193548387,1.37096774193548,1.37096774193548,1.36774193548387,1.37096774193548,1.38387096774194,1.39354838709677,1.37741935483871,1.4,1.4,1.41612903225806,1.41612903225806,1.4258064516129,1.43870967741935,1.45161290322581,1.4741935483871,1.49032258064516,1.50967741935484,1.51290322580645,1.52903225806452,1.53870967741935,1.56451612903226,1.54838709677419,1.51935483870968,1.48387096774194,1.44516129032258,1.43225806451613,1.4,1.38709677419355,1.37741935483871,1.36451612903226,1.36451612903226,1.35806451612903,1.37096774193548,1.37096774193548,1.36774193548387,1.36451612903226,1.37096774193548,1.37741935483871,1.3741935483871,1.3741935483871,1.3741935483871,1.37741935483871,1.37741935483871,1.37741935483871,1.37741935483871,1.37096774193548,1.38709677419355,1.37096774193548,1.38064516129032,1.36774193548387,1.37096774193548,1.3741935483871,1.36774193548387,1.37096774193548,1.37096774193548,1.35806451612903,1.37096774193548,1.35806451612903,1.36451612903226,1.36774193548387,1.36129032258065,1.38064516129032,1.35806451612903,1.36129032258065,1.35806451612903,1.36774193548387,1.35806451612903,1.34838709677419,1.37096774193548,1.35161290322581,1.36129032258065,1.36451612903226,1.35806451612903,1.37096774193548,1.35806451612903,1.35806451612903,1.36774193548387,1.35161290322581,1.35806451612903,1.35161290322581,1.36774193548387,1.36774193548387,1.36451612903226,1.36129032258065,1.3741935483871,1.35161290322581,1.3741935483871,1.38709677419355,1.39032258064516,1.39677419354839,1.46129032258065,1.43870967741935,1.44516129032258,1.44516129032258,1.42903225806452,1.41290322580645,1.38709677419355,1.37741935483871,1.35483870967742,1.37096774193548,1.34838709677419,1.36451612903226,1.35483870967742,1.35161290322581,1.3258064516129,1.37741935483871,1.5741935483871,1.68387096774194,1.76129032258065,1.68709677419355,1.49032258064516,1.50645161290323,1.47741935483871,1.40322580645161,1.36451612903226,1.37096774193548,1.34838709677419,1.34838709677419,1.34838709677419,1.35806451612903,1.3741935483871,1.36451612903226,1.35161290322581,1.36451612903226,1.37741935483871,1.3741935483871,1.38064516129032,1.38387096774194,1.38064516129032,1.38709677419355,1.41290322580645,1.41290322580645,1.41612903225806,1.43870967741935,1.44193548387097,1.46129032258065,1.48709677419355,1.50645161290323,1.51935483870968,1.54838709677419,1.55806451612903,1.56451612903226,1.56451612903226,1.54838709677419,1.51935483870968,1.4741935483871,1.46451612903226,1.41935483870968,1.39032258064516,1.39032258064516,1.37096774193548,1.36451612903226,1.36451612903226,1.35483870967742,1.36451612903226,1.36451612903226,1.36774193548387,1.37096774193548,1.36774193548387,1.38387096774194,1.37096774193548,1.37741935483871,1.36451612903226,1.36774193548387,1.36451612903226,1.36451612903226,1.38064516129032,1.37741935483871,1.3741935483871,1.37741935483871,1.37741935483871,1.37096774193548,1.3741935483871,1.3741935483871,1.36774193548387,1.37741935483871,1.3741935483871,1.37096774193548,1.36774193548387,1.37096774193548,1.35483870967742,1.36129032258065,1.36774193548387,1.36774193548387,1.36774193548387,1.3741935483871,1.37096774193548,1.35483870967742,1.37096774193548,1.36129032258065,1.37741935483871,1.37741935483871,1.37741935483871,1.36451612903226,1.36451612903226,1.36129032258065,1.36451612903226,1.36774193548387,1.36451612903226,1.35161290322581,1.36451612903226,1.36774193548387,1.34838709677419,1.37096774193548,1.35161290322581,1.35161290322581,1.35161290322581,1.34516129032258,1.35161290322581,1.35161290322581,1.36451612903226,1.37741935483871,1.38064516129032,1.39677419354839,1.43548387096774,1.44193548387097,1.4258064516129,1.43548387096774,1.4258064516129,1.40645161290323,1.4,1.3741935483871,1.35161290322581,1.35161290322581,1.35161290322581,1.35161290322581,1.33870967741935,1.34193548387097,1.32258064516129,1.33870967741935,1.51935483870968,1.69677419354839,1.76451612903226,1.73548387096774,1.54193548387097,1.50967741935484,1.48064516129032,1.42258064516129,1.37096774193548,1.36129032258065,1.36129032258065,1.35806451612903,1.36129032258065,1.35806451612903,1.34838709677419,1.36129032258065,1.35483870967742,1.35161290322581,1.35483870967742,1.37096774193548,1.38064516129032,1.37741935483871,1.39354838709677,1.4,1.4,1.40967741935484,1.41612903225806,1.43548387096774,1.45161290322581,1.46129032258065,1.49032258064516,1.50322580645161,1.53225806451613,1.55161290322581,1.54838709677419,1.58709677419355,1.56774193548387,1.56774193548387,1.52903225806452,1.49677419354839,1.46451612903226,1.41612903225806,1.39354838709677,1.38709677419355,1.37096774193548,1.36774193548387,1.34838709677419,1.34516129032258,1.35806451612903,1.34838709677419,1.35161290322581,1.36451612903226,1.34838709677419,1.35806451612903,1.37096774193548,1.36451612903226,1.36451612903226,1.36129032258065,1.38064516129032,1.38064516129032,1.36774193548387,1.38064516129032,1.36451612903226,1.37096774193548,1.38387096774194,1.3741935483871,1.3741935483871,1.37096774193548,1.36451612903226,1.37096774193548,1.38064516129032,1.3741935483871,1.37096774193548,1.38709677419355,1.38709677419355,1.38064516129032,1.38064516129032,1.35806451612903,1.38064516129032,1.3741935483871,1.36451612903226,1.36774193548387,1.35483870967742,1.36774193548387,1.37096774193548,1.36451612903226,1.37741935483871,1.38387096774194,1.36451612903226,1.35483870967742,1.36451612903226,1.36451612903226,1.36774193548387,1.36451612903226,1.37096774193548,1.37096774193548,1.34516129032258,1.35483870967742,1.37096774193548,1.36774193548387,1.35483870967742,1.37096774193548,1.37096774193548,1.3741935483871,1.39032258064516,1.37741935483871,1.40645161290323,1.44838709677419,1.44193548387097,1.4258064516129,1.42903225806452,1.4258064516129,1.40645161290323,1.38064516129032,1.38064516129032,1.36774193548387,1.36451612903226,1.36774193548387,1.36129032258065,1.34193548387097,1.35806451612903,1.33870967741935,1.39032258064516,1.54193548387097,1.63225806451613,1.69677419354839,1.65161290322581,1.45161290322581,1.48064516129032,1.45806451612903,1.38709677419355,1.36774193548387,1.38709677419355,1.36774193548387,1.36774193548387,1.36129032258065,1.35806451612903,1.3741935483871,1.36774193548387,1.36129032258065,1.35806451612903,1.3741935483871,1.38387096774194,1.38387096774194,1.38709677419355,1.39677419354839,1.40322580645161,1.41935483870968,1.41612903225806,1.42903225806452,1.43548387096774,1.44838709677419,1.47096774193548,1.48709677419355,1.5,1.51290322580645,1.53225806451613,1.54516129032258,1.56774193548387,1.55483870967742,1.54516129032258,1.50322580645161,1.48064516129032,1.44838709677419,1.40645161290323,1.4,1.39354838709677,1.37741935483871,1.3741935483871,1.35806451612903,1.36451612903226,1.36774193548387,1.36451612903226,1.36774193548387,1.36129032258065,1.36451612903226,1.37741935483871,1.36129032258065,1.38064516129032,1.36451612903226,1.36774193548387,1.37741935483871,1.36774193548387,1.36774193548387,1.3741935483871,1.37741935483871,1.37096774193548,1.39032258064516,1.3741935483871,1.35806451612903,1.38709677419355,1.3741935483871,1.36451612903226,1.36451612903226,1.36129032258065,1.36451612903226,1.36451612903226,1.37096774193548,1.36774193548387,1.36451612903226,1.36774193548387,1.36451612903226,1.35806451612903,1.36451612903226,1.35483870967742,1.37096774193548,1.35161290322581,1.35806451612903,1.36451612903226,1.36451612903226,1.37096774193548,1.37096774193548,1.35483870967742,1.36129032258065,1.36451612903226,1.36451612903226,1.35806451612903,1.35483870967742,1.35806451612903,1.36129032258065,1.34516129032258,1.38387096774194,1.37741935483871,1.39354838709677,1.38387096774194,1.39032258064516,1.44193548387097,1.44193548387097,1.41935483870968,1.43548387096774,1.42258064516129,1.41290322580645,1.38064516129032,1.36774193548387,1.36774193548387,1.36774193548387,1.35806451612903,1.36129032258065,1.34193548387097,1.35483870967742,1.33548387096774,1.35161290322581,1.55483870967742,1.65161290322581,1.72258064516129,1.68064516129032,1.49677419354839,1.5,1.47096774193548,1.40967741935484,1.37096774193548,1.37096774193548,1.35483870967742,1.36129032258065,1.35483870967742,1.36774193548387,1.35483870967742,1.35806451612903,1.34838709677419,1.35806451612903,1.36774193548387,1.37096774193548,1.37096774193548,1.38387096774194,1.39677419354839,1.40967741935484,1.40645161290323,1.41612903225806,1.43225806451613,1.43225806451613,1.45161290322581,1.46774193548387,1.48064516129032,1.49677419354839,1.52903225806452,1.54838709677419,1.56774193548387,1.57096774193548,1.57096774193548,1.56451612903226,1.51935483870968,1.48709677419355,1.46129032258065,1.4258064516129,1.41290322580645,1.38387096774194,1.38387096774194,1.38387096774194,1.37741935483871,1.3741935483871,1.36129032258065,1.35483870967742,1.36451612903226,1.37741935483871,1.36774193548387,1.37741935483871,1.3741935483871,1.35483870967742,1.36774193548387,1.37096774193548,1.35161290322581,1.35806451612903,1.37096774193548,1.36129032258065,1.37096774193548,1.36129032258065,1.38064516129032,1.36774193548387,1.3741935483871,1.36129032258065,1.36129032258065,1.35483870967742,1.36451612903226,1.35806451612903,1.35806451612903,1.36451612903226,1.3741935483871,1.36451612903226,1.35161290322581,1.35806451612903,1.36451612903226,1.36451612903226,1.36451612903226,1.35806451612903,1.35161290322581,1.36451612903226,1.3741935483871,1.37096774193548,1.37096774193548,1.37096774193548,1.36774193548387,1.36774193548387,1.35806451612903,1.36774193548387,1.36774193548387,1.36774193548387,1.35483870967742,1.36129032258065,1.3741935483871,1.35161290322581,1.35806451612903,1.35161290322581,1.36451612903226,1.35161290322581,1.36451612903226,1.36774193548387,1.3741935483871,1.36774193548387,1.39354838709677,1.40645161290323,1.43870967741935,1.45161290322581,1.42258064516129,1.43548387096774,1.40967741935484,1.40645161290323,1.40645161290323,1.3741935483871,1.35483870967742,1.36129032258065,1.34838709677419,1.34516129032258,1.34516129032258,1.33870967741935,1.33870967741935,1.33870967741935,1.52903225806452,1.68387096774194,1.75483870967742,1.72903225806452,1.52903225806452,1.49354838709677,1.4741935483871,1.41935483870968,1.37096774193548,1.35483870967742,1.35806451612903,1.36129032258065,1.36129032258065,1.35161290322581,1.34193548387097,1.34838709677419,1.35806451612903,1.36129032258065,1.36451612903226,1.37096774193548,1.38064516129032,1.38387096774194,1.38709677419355,1.39677419354839,1.39677419354839,1.42258064516129,1.41935483870968,1.43548387096774,1.46129032258065,1.46129032258065,1.48709677419355,1.50967741935484,1.51935483870968,1.54193548387097,1.55161290322581,1.57741935483871,1.56451612903226,1.55806451612903,1.52903225806452,1.48064516129032,1.45483870967742,1.4258064516129,1.39354838709677,1.39354838709677,1.38064516129032,1.36774193548387,1.37741935483871,1.37096774193548,1.36451612903226,1.3741935483871,1.36451612903226,1.37096774193548,1.36774193548387,1.37096774193548,1.37096774193548,1.36451612903226,1.3741935483871,1.35806451612903,1.38064516129032,1.38709677419355,1.37096774193548,1.37096774193548,1.36774193548387,1.37741935483871,1.37741935483871,1.38064516129032,1.38064516129032,1.38709677419355,1.37741935483871,1.37741935483871,1.37741935483871,1.37096774193548,1.3741935483871,1.39354838709677,1.36451612903226,1.37096774193548,1.36451612903226,1.36451612903226,1.38064516129032,1.36451612903226,1.3741935483871,1.38709677419355,1.37741935483871,1.38064516129032,1.38064516129032,1.3741935483871,1.37741935483871,1.3741935483871,1.37741935483871,1.36451612903226,1.36451612903226,1.33548387096774,1.36451612903226,1.36451612903226,1.35806451612903,1.36451612903226,1.36774193548387,1.35806451612903,1.37096774193548,1.37096774193548,1.36129032258065,1.37096774193548,1.36129032258065,1.36451612903226,1.36774193548387,1.39677419354839,1.39032258064516,1.39677419354839,1.44193548387097,1.45161290322581,1.44516129032258,1.44516129032258,1.44193548387097,1.42258064516129,1.41612903225806,1.36774193548387,1.37741935483871,1.38064516129032,1.36451612903226,1.35806451612903,1.35806451612903,1.36129032258065,1.36451612903226,1.34193548387097,1.51290322580645,1.69354838709677,1.76451612903226,1.75483870967742,1.56129032258065,1.48064516129032,1.49677419354839,1.43548387096774,1.36774193548387,1.36774193548387,1.36774193548387,1.36451612903226,1.34838709677419,1.35806451612903,1.36129032258065,1.35161290322581,1.35483870967742,1.34838709677419,1.35806451612903,1.3741935483871,1.35483870967742,1.36129032258065,1.36451612903226,1.36451612903226,1.36774193548387,1.39354838709677
1.38709677419355,1.39032258064516,1.38387096774194,1.38709677419355,1.38387096774194,1.38709677419355,1.39032258064516,1.38064516129032,1.39354838709677,1.39032258064516,1.4,1.39677419354839,1.39354838709677,1.39677419354839,1.4,1.4,1.39354838709677,1.39354838709677,1.39354838709677,1.38709677419355,1.39354838709677,1.39354838709677,1.38387096774194,1.38387096774194,1.38387096774194,1.38387096774194,1.38709677419355,1.37741935483871,1.38064516129032,1.3741935483871,1.36774193548387,1.3741935483871,1.37741935483871,1.3741935483871,1.3741935483871,1.38064516129032,1.3741935483871,1.36774193548387,1.37096774193548,1.3741935483871,1.36129032258065,1.35806451612903,1.36129032258065,1.36451612903226,1.36129032258065,1.35806451612903,1.36451612903226,1.36451612903226,1.37096774193548,1.35806451612903,1.36451612903226,1.36451612903226,1.36451612903226,1.36451612903226,1.3741935483871,1.36129032258065,1.36451612903226,1.3741935483871,1.36451612903226,1.36451612903226,1.36451612903226,1.36451612903226,1.3741935483871,1.3741935483871,1.3741935483871,1.3741935483871,1.3741935483871,1.36774193548387,1.37096774193548,1.37096774193548,1.37096774193548,1.37741935483871,1.36774193548387,1.37741935483871,1.38064516129032,1.37096774193548,1.3741935483871,1.38064516129032,1.38064516129032,1.38709677419355,1.39354838709677,1.39354838709677,1.39354838709677,1.43225806451613,1.45161290322581,1.44516129032258,1.43870967741935,1.43870967741935,1.43225806451613,1.42258064516129,1.39677419354839,1.38387096774194,1.38064516129032,1.37741935483871,1.3741935483871,1.37096774193548,1.36129032258065,1.36129032258065,1.35161290322581,1.35483870967742,1.30967741935484,1.44516129032258,1.6258064516129,1.69677419354839,1.74838709677419,1.6258064516129,1.46774193548387,1.50322580645161,1.46451612903226,1.40967741935484,1.38387096774194,1.38387096774194,1.36774193548387,1.36774193548387,1.36774193548387,1.35806451612903,1.35806451612903,1.35806451612903,1.35806451612903,1.35483870967742,1.36774193548387,1.36129032258065,1.36129032258065,1.3741935483871,1.37741935483871,1.38387096774194,1.38387096774194,1.39677419354839,1.39677419354839,1.41935483870968,1.42258064516129,1.43225806451613,1.43548387096774,1.46129032258065,1.4741935483871,1.49677419354839,1.51612903225806,1.52903225806452,1.55161290322581,1.56774193548387,1.59354838709677,1.60645161290323,1.61290322580645,1.60322580645161,1.5741935483871,1.54516129032258,1.50645161290323,1.46451612903226,1.43870967741935,1.41612903225806,1.40322580645161,1.39354838709677,1.38387096774194,1.38387096774194,1.38387096774194,1.37741935483871,1.37741935483871,1.3741935483871,1.37741935483871,1.37741935483871,1.37096774193548,1.37741935483871,1.37741935483871,1.37741935483871,1.37741935483871,1.3741935483871,1.3741935483871,1.3741935483871,1.37741935483871,1.37741935483871,1.37741935483871,1.37741935483871,1.37741935483871,1.36774193548387,1.38064516129032,1.37096774193548,1.3741935483871,1.36774193548387,1.36774193548387,1.36451612903226,1.36774193548387,1.36774193548387,1.37096774193548,1.36451612903226,1.37096774193548,1.36774193548387,1.36774193548387,1.3741935483871,1.36129032258065,1.36774193548387,1.36451612903226,1.36129032258065,1.36451612903226,1.36774193548387,1.35483870967742,1.35806451612903,1.36451612903226,1.35483870967742,1.35806451612903,1.35806451612903,1.35806451612903,1.35806451612903,1.35806451612903,1.35806451612903,1.35806451612903,1.35161290322581,1.35483870967742,1.35483870967742,1.35806451612903,1.35483870967742,1.36129032258065,1.35806451612903,1.35161290322581,1.35806451612903,1.35806451612903,1.35483870967742,1.35806451612903,1.36129032258065,1.36129032258065,1.35806451612903,1.36451612903226,1.35806451612903,1.36129032258065,1.35806451612903,1.35806451612903,1.35483870967742,1.36451612903226,1.35483870967742,1.35806451612903,1.35806451612903,1.35806451612903,1.35806451612903,1.36129032258065,1.36451612903226,1.3741935483871,1.38387096774194,1.3741935483871,1.40645161290323,1.44193548387097,1.4258064516129,1.4258064516129,1.42903225806452,1.40967741935484,1.40322580645161,1.39032258064516,1.37096774193548,1.37096774193548,1.37096774193548,1.36451612903226,1.36129032258065,1.34838709677419,1.33548387096774,1.34838709677419,1.33870967741935,1.31935483870968,1.37096774193548,1.55806451612903,1.67096774193548,1.75161290322581,1.69032258064516,1.51290322580645,1.50322580645161,1.49354838709677,1.43225806451613,1.38709677419355,1.38064516129032,1.37096774193548,1.37096774193548,1.37096774193548,1.37096774193548,1.37096774193548,1.36451612903226,1.38064516129032,1.36774193548387,1.3741935483871,1.37096774193548,1.38064516129032,1.38064516129032,1.38709677419355,1.39677419354839,1.39677419354839,1.40322580645161,1.41290322580645,1.41612903225806,1.4258064516129,1.43870967741935,1.44193548387097,1.46451612903226,1.47741935483871,1.49354838709677,1.50967741935484,1.5258064516129,1.54516129032258,1.56129032258065,1.58387096774194,1.59354838709677,1.59677419354839,1.59677419354839,1.57096774193548,1.55483870967742,1.50645161290323,1.46451612903226,1.43225806451613,1.40967741935484,1.38709677419355,1.38064516129032,1.3741935483871,1.37096774193548,1.37096774193548,1.37096774193548,1.38064516129032,1.37741935483871,1.38709677419355,1.37096774193548,1.37096774193548,1.36451612903226,1.37096774193548,1.37096774193548,1.37096774193548,1.37096774193548,1.37741935483871,1.37096774193548,1.36774193548387,1.37741935483871,1.37096774193548,1.37741935483871,1.37741935483871,1.36774193548387,1.36774193548387,1.37096774193548,1.37741935483871,1.38387096774194,1.37096774193548,1.37741935483871,1.37096774193548,1.37741935483871,1.37096774193548,1.37096774193548,1.36451612903226,1.37096774193548,1.36774193548387,1.38064516129032,1.37096774193548,1.37096774193548,1.37096774193548,1.36451612903226,1.37741935483871,1.36129032258065,1.37096774193548,1.37096774193548,1.36774193548387,1.36451612903226,1.38064516129032,1.37741935483871,1.37741935483871,1.36774193548387,1.37096774193548,1.37741935483871,1.37096774193548,1.36451612903226,1.37741935483871,1.37096774193548,1.37096774193548,1.38064516129032,1.37096774193548,1.36774193548387,1.37096774193548,1.37096774193548,1.37096774193548,1.37096774193548,1.37096774193548,1.36451612903226,1.36774193548387,1.36451612903226,1.36774193548387,1.36774193548387,1.37096774193548,1.36451612903226,1.36774193548387,1.36451612903226,1.36451612903226,1.36451612903226,1.37096774193548,1.36451612903226,1.3741935483871,1.38387096774194,1.38709677419355,1.38709677419355,1.40967741935484,1.43870967741935,1.43225806451613,1.43225806451613,1.43225806451613,1.41612903225806,1.4,1.39354838709677,1.3741935483871,1.3741935483871,1.3741935483871,1.35806451612903,1.36129032258065,1.35161290322581,1.35483870967742,1.34838709677419,1.35806451612903,1.33225806451613,1.38387096774194,1.53548387096774,1.63225806451613,1.69677419354839,1.64516129032258,1.46129032258065,1.4741935483871,1.46451612903226,1.42258064516129,1.39032258064516,1.3741935483871,1.37096774193548,1.36774193548387,1.36451612903226,1.35806451612903,1.36129032258065,1.36129032258065,1.36451612903226,1.36451612903226,1.36774193548387,1.3741935483871,1.3741935483871,1.38387096774194,1.38709677419355,1.38387096774194,1.39032258064516,1.39677419354839,1.41290322580645,1.41612903225806,1.41935483870968,1.42903225806452,1.4258064516129,1.44193548387097,1.46451612903226,1.46774193548387,1.48709677419355,1.51612903225806,1.53225806451613,1.55483870967742,1.56451612903226,1.58064516129032,1.58709677419355,1.58064516129032,1.56774193548387,1.5258064516129,1.5,1.45483870967742,1.43548387096774,1.40322580645161,1.4,1.38709677419355,1.38387096774194,1.37741935483871,1.37741935483871,1.3741935483871,1.37096774193548,1.37741935483871,1.37741935483871,1.37741935483871,1.37741935483871,1.37741935483871,1.37741935483871,1.37741935483871,1.3741935483871,1.36774193548387,1.3741935483871,1.38387096774194,1.38387096774194,1.37741935483871,1.37741935483871,1.37096774193548,1.38387096774194,1.38064516129032,1.37096774193548,1.38387096774194,1.3741935483871,1.36774193548387,1.36774193548387,1.36774193548387,1.3741935483871,1.36774193548387,1.37096774193548,1.36774193548387,1.3741935483871,1.37096774193548,1.37096774193548,1.36129032258065,1.36451612903226,1.36451612903226,1.35483870967742,1.36129032258065,1.36451612903226,1.36451612903226,1.36451612903226,1.36451612903226,1.35806451612903,1.36129032258065,1.36451612903226,1.36451612903226,1.36451612903226,1.37096774193548,1.37096774193548,1.36451612903226,1.37096774193548,1.36774193548387,1.36451612903226,1.3741935483871,1.37096774193548,1.36774193548387,1.3741935483871,1.37096774193548,1.37741935483871,1.37741935483871,1.3741935483871,1.3741935483871,1.36451612903226,1.3741935483871,1.36451612903226,1.37096774193548,1.37096774193548,1.37096774193548,1.37096774193548,1.37096774193548,1.37096774193548,1.37096774193548,1.36774193548387,1.37741935483871,1.37096774193548,1.37096774193548,1.3741935483871,1.37096774193548,1.36451612903226,1.37096774193548,1.38064516129032,1.38387096774194,1.38709677419355,1.38709677419355,1.41612903225806,1.44193548387097,1.42903225806452,1.43870967741935,1.42258064516129,1.42258064516129,1.4,1.39354838709677,1.37096774193548,1.3741935483871,1.37096774193548,1.36129032258065,1.36129032258065,1.35161290322581,1.35483870967742,1.35806451612903,1.35483870967742,1.31290322580645,1.4258064516129,1.6,1.6741935483871,1.74838709677419,1.64193548387097,1.48064516129032,1.50322580645161,1.48709677419355,1.41612903225806,1.39032258064516,1.38709677419355,1.3741935483871,1.37096774193548,1.37741935483871,1.37741935483871,1.36774193548387,1.36774193548387,1.37096774193548,1.37741935483871,1.37741935483871,1.37741935483871,1.38387096774194,1.38387096774194,1.39354838709677,1.39677419354839,1.40322580645161,1.41612903225806,1.41612903225806,1.4258064516129,1.43548387096774,1.44838709677419,1.45483870967742,1.46129032258065,1.47741935483871,1.49354838709677,1.51290322580645,1.53225806451613,1.54838709677419,1.58064516129032,1.58387096774194,1.60322580645161,1.60645161290323,1.6,1.57741935483871,1.55483870967742,1.50322580645161,1.46774193548387,1.43548387096774,1.41290322580645,1.4,1.39032258064516,1.38387096774194,1.3741935483871,1.37096774193548,1.36774193548387,1.36774193548387,1.36774193548387,1.37096774193548,1.36774193548387,1.37096774193548,1.36451612903226,1.36774193548387,1.36129032258065,1.36774193548387,1.36774193548387,1.37741935483871,1.37741935483871,1.37741935483871,1.36774193548387,1.37741935483871,1.37096774193548,1.37096774193548,1.38387096774194,1.3741935483871,1.38064516129032,1.37741935483871,1.3741935483871,1.36774193548387,1.37096774193548,1.36129032258065,1.36451612903226,1.36451612903226,1.35806451612903,1.35483870967742,1.35483870967742,1.35806451612903,1.35483870967742,1.36129032258065,1.36451612903226,1.35483870967742,1.35161290322581,1.35483870967742,1.35483870967742,1.35806451612903,1.35806451612903,1.35806451612903,1.35806451612903,1.35161290322581,1.36451612903226,1.35806451612903,1.36129032258065,1.36451612903226,1.36451612903226,1.36774193548387,1.36451612903226,1.36451612903226,1.36129032258065,1.36451612903226,1.36451612903226,1.36129032258065,1.36451612903226,1.36129032258065,1.35806451612903,1.36451612903226,1.35806451612903,1.36129032258065,1.35483870967742,1.35806451612903,1.35483870967742,1.35806451612903,1.35806451612903,1.34838709677419,1.35806451612903,1.34838709677419,1.35483870967742,1.35806451612903,1.35483870967742,1.34838709677419,1.35806451612903,1.35806451612903,1.36451612903226,1.35806451612903,1.35161290322581,1.36451612903226,1.36451612903226,1.38064516129032,1.36451612903226,1.38709677419355,1.4258064516129,1.41935483870968,1.41935483870968,1.4258064516129,1.41612903225806,1.4,1.38709677419355,1.3741935483871,1.36774193548387,1.37096774193548,1.36451612903226,1.35161290322581,1.34838709677419,1.34838709677419,1.34838709677419,1.34838709677419,1.31935483870968,1.37741935483871,1.54516129032258,1.66451612903226,1.75161290322581,1.69677419354839,1.50645161290323,1.50645161290323,1.48387096774194,1.42903225806452,1.38387096774194,1.37741935483871,1.37096774193548,1.37741935483871,1.37096774193548,1.37741935483871,1.3741935483871,1.37741935483871,1.37741935483871,1.3741935483871,1.38387096774194,1.38387096774194,1.38709677419355,1.39032258064516,1.39354838709677,1.40645161290323,1.42258064516129,1.4258064516129,1.42903225806452,1.43548387096774,1.44193548387097,1.45161290322581,1.45483870967742,1.46451612903226,1.48064516129032,1.5,1.50967741935484,1.54193548387097,1.55806451612903,1.57741935483871,1.59354838709677,1.60322580645161,1.60645161290323,1.61290322580645,1.59032258064516,1.56129032258065,1.51612903225806,1.48387096774194,1.45806451612903,1.41935483870968,1.40322580645161,1.39032258064516,1.38064516129032,1.37741935483871,1.3741935483871,1.3741935483871,1.3741935483871,1.3741935483871,1.36451612903226,1.3741935483871,1.3741935483871,1.3741935483871,1.36451612903226,1.3741935483871,1.3741935483871,1.3741935483871,1.3741935483871,1.3741935483871,1.37096774193548,1.37741935483871,1.38064516129032,1.38709677419355,1.38064516129032,1.38064516129032,1.38387096774194,1.38064516129032,1.37741935483871,1.37096774193548,1.37096774193548,1.37096774193548,1.37096774193548,1.37096774193548,1.37096774193548,1.36451612903226,1.36774193548387,1.36129032258065,1.37096774193548,1.36451612903226,1.3741935483871,1.37096774193548,1.36774193548387,1.37096774193548,1.37096774193548,1.36129032258065,1.36451612903226,1.36129032258065,1.36129032258065,1.36451612903226,1.36451612903226,1.36451612903226,1.36129032258065,1.36129032258065,1.36451612903226,1.36451612903226,1.36451612903226,1.36451612903226,1.36451612903226,1.35806451612903,1.36774193548387,1.35806451612903,1.35483870967742,1.36451612903226,1.36451612903226,1.35806451612903,1.36451612903226,1.35483870967742,1.35483870967742,1.36129032258065,1.35483870967742,1.35806451612903,1.36129032258065,1.36129032258065,1.36129032258065,1.36129032258065,1.36129032258065,1.36129032258065,1.35806451612903,1.35806451612903,1.35483870967742,1.36129032258065,1.36451612903226,1.37096774193548,1.36451612903226,1.35483870967742,1.37096774193548,1.36451612903226,1.38387096774194,1.37741935483871,1.37741935483871,1.40645161290323,1.42903225806452,1.42903225806452,1.42903225806452,1.42258064516129,1.41935483870968,1.40967741935484,1.39032258064516,1.38387096774194,1.37741935483871,1.38064516129032,1.37741935483871,1.36451612903226,1.35806451612903,1.36129032258065,1.34838709677419,1.35483870967742,1.31935483870968,1.40645161290323,1.57741935483871,1.68387096774194,1.76129032258065,1.67741935483871,1.48709677419355,1.50967741935484,1.48064516129032,1.43225806451613,1.37741935483871,1.37741935483871,1.36774193548387,1.37096774193548,1.36774193548387,1.36774193548387,1.37741935483871,1.3741935483871,1.3741935483871,1.37741935483871,1.3741935483871,1.3741935483871,1.37741935483871,1.38064516129032,1.38064516129032,1.39677419354839,1.38709677419355,1.39677419354839,1.40967741935484,1.40967741935484,1.41935483870968,1.43225806451613,1.44193548387097,1.45483870967742,1.46451612903226,1.49032258064516,1.50322580645161,1.5258064516129,1.54516129032258,1.56774193548387,1.58709677419355,1.6,1.61290322580645,1.60645161290323,1.59354838709677,1.56774193548387,1.51935483870968,1.48064516129032,1.44838709677419,1.42258064516129,1.4,1.39032258064516,1.37741935483871,1.38064516129032,1.37096774193548,1.38064516129032,1.37741935483871,1.37741935483871,1.37096774193548,1.37096774193548,1.36451612903226,1.36451612903226,1.3741935483871,1.3741935483871,1.36774193548387,1.36774193548387,1.37741935483871,1.36129032258065,1.37096774193548,1.36129032258065,1.36774193548387,1.37096774193548,1.3741935483871,1.37096774193548,1.37741935483871,1.37096774193548,1.3741935483871,1.36451612903226,1.36451612903226,1.36451612903226,1.36774193548387,1.36451612903226,1.3741935483871,1.35806451612903,1.35806451612903,1.35483870967742,1.35806451612903,1.35806451612903,1.35483870967742,1.35806451612903,1.35483870967742,1.36129032258065,1.35161290322581,1.35806451612903,1.35806451612903,1.35806451612903,1.35483870967742,1.35806451612903,1.35161290322581,1.35161290322581,1.35483870967742,1.36451612903226,1.36451612903226,1.36451612903226,1.36129032258065,1.35806451612903,1.35806451612903,1.35806451612903,1.35806451612903,1.36451612903226,1.36129032258065,1.36451612903226,1.35806451612903,1.36129032258065,1.35806451612903,1.35806451612903,1.36129032258065,1.36129032258065,1.36129032258065,1.36451612903226,1.36774193548387,1.36451612903226,1.36129032258065,1.36451612903226,1.36129032258065,1.36451612903226,1.36451612903226,1.35483870967742,1.37096774193548,1.36451612903226,1.35806451612903,1.35806451612903,1.36129032258065,1.36774193548387,1.3741935483871,1.37741935483871,1.37741935483871,1.40322580645161,1.43870967741935,1.4258064516129,1.4258064516129,1.41935483870968,1.41290322580645,1.39677419354839,1.39032258064516,1.37096774193548,1.36774193548387,1.37096774193548,1.36451612903226,1.36451612903226,1.34838709677419,1.35161290322581,1.33870967741935,1.33870967741935,1.31290322580645,1.4,1.58064516129032,1.66774193548387,1.75161290322581,1.65161290322581,1.4741935483871,1.49677419354839,1.48387096774194,1.41290322580645,1.38709677419355,1.38064516129032,1.37741935483871,1.3741935483871,1.3741935483871,1.36451612903226,1.37096774193548,1.36774193548387,1.3741935483871,1.3741935483871,1.37741935483871,1.39032258064516,1.38064516129032,1.38064516129032,1.39032258064516,1.39032258064516,1.4,1.40322580645161,1.41935483870968,1.41935483870968,1.43225806451613,1.43548387096774,1.44516129032258,1.46129032258065,1.4741935483871,1.49354838709677,1.51612903225806,1.53548387096774,1.54838709677419,1.57741935483871,1.59354838709677,1.60322580645161,1.60645161290323,1.61612903225806,1.58709677419355,1.54838709677419,1.51612903225806,1.47741935483871,1.44516129032258,1.42258064516129,1.4,1.38064516129032,1.37741935483871,1.37741935483871,1.37096774193548,1.37096774193548,1.3741935483871,1.37741935483871,1.38064516129032,1.37096774193548,1.37096774193548,1.37096774193548,1.3741935483871,1.37741935483871,1.3741935483871,1.38064516129032,1.38064516129032,1.38387096774194,1.38064516129032,1.38387096774194,1.38064516129032,1.39032258064516,1.38064516129032,1.3741935483871,1.38387096774194,1.3741935483871,1.38709677419355,1.3741935483871,1.39032258064516,1.38387096774194,1.38387096774194,1.3741935483871,1.3741935483871,1.3741935483871,1.38387096774194,1.38387096774194,1.37741935483871,1.37741935483871,1.38064516129032,1.3741935483871,1.36774193548387,1.3741935483871,1.37096774193548,1.38387096774194,1.3741935483871,1.3741935483871,1.36451612903226,1.3741935483871,1.37096774193548,1.3741935483871,1.36451612903226,1.38064516129032,1.3741935483871,1.37096774193548,1.36451612903226,1.3741935483871,1.36451612903226,1.36451612903226,1.36451612903226,1.37096774193548,1.36451612903226,1.36451612903226,1.36774193548387,1.37096774193548,1.36774193548387,1.36129032258065,1.37096774193548,1.36774193548387,1.36774193548387,1.36451612903226,1.36774193548387,1.36774193548387,1.3741935483871,1.3741935483871,1.36451612903226,1.36451612903226,1.3741935483871,1.38387096774194,1.39354838709677,1.37741935483871,1.41290322580645,1.42903225806452,1.4258064516129,1.42903225806452,1.42258064516129,1.42258064516129,1.40322580645161,1.38064516129032,1.37096774193548,1.37096774193548,1.37096774193548,1.36451612903226,1.35806451612903,1.36129032258065,1.35161290322581,1.35161290322581,1.34516129032258,1.31290322580645,1.40967741935484,1.55161290322581,1.61612903225806,1.65806451612903,1.56774193548387,1.41290322580645,1.45806451612903,1.4258064516129,1.38064516129032,1.36451612903226,1.36774193548387,1.35483870967742,1.35806451612903,1.35483870967742,1.35483870967742,1.34838709677419,1.34516129032258,1.35161290322581,1.35806451612903,1.35806451612903,1.35806451612903,1.36451612903226,1.36451612903226,1.37096774193548,1.37096774193548,1.3741935483871,1.37741935483871,1.38387096774194,1.39032258064516,1.39677419354839,1.41290322580645,1.41612903225806,1.43548387096774,1.44193548387097,1.46451612903226,1.48064516129032,1.50322580645161,1.52258064516129,1.53548387096774,1.55483870967742,1.56129032258065,1.57741935483871,1.55483870967742,1.53548387096774,1.50322580645161,1.46451612903226,1.42903225806452,1.40645161290323,1.38709677419355,1.37096774193548,1.36451612903226,1.36451612903226,1.35806451612903,1.35483870967742,1.34838709677419,1.36129032258065,1.35806451612903,1.36451612903226,1.35806451612903,1.36451612903226,1.36129032258065,1.37096774193548,1.37096774193548,1.38064516129032,1.38064516129032,1.37741935483871,1.38064516129032,1.38387096774194,1.3741935483871,1.38064516129032,1.38709677419355,1.38709677419355,1.39032258064516,1.39354838709677,1.38709677419355,1.4,1.40967741935484
1.53225806451613,1.54516129032258,1.56129032258065,1.56129032258065,1.55806451612903,1.52903225806452,1.5,1.46451612903226,1.4258064516129,1.40645161290323,1.38064516129032,1.37096774193548,1.36774193548387,1.34516129032258,1.34838709677419,1.35483870967742,1.34838709677419,1.35161290322581,1.35161290322581,1.36774193548387,1.34838709677419,1.36129032258065,1.35806451612903,1.34516129032258,1.35806451612903,1.35806451612903,1.36129032258065,1.36451612903226,1.36129032258065,1.36774193548387,1.36774193548387,1.36774193548387,1.3741935483871,1.36129032258065,1.36129032258065,1.36129032258065,1.37741935483871,1.36451612903226,1.37096774193548,1.37096774193548,1.3741935483871,1.37096774193548,1.36129032258065,1.37096774193548,1.37741935483871,1.3741935483871,1.37741935483871,1.37096774193548,1.37096774193548,1.3741935483871,1.37096774193548,1.38387096774194,1.3741935483871,1.3741935483871,1.3741935483871,1.3741935483871,1.37741935483871,1.37741935483871,1.37096774193548,1.37741935483871,1.37741935483871,1.37741935483871,1.3741935483871,1.3741935483871,1.38064516129032,1.36774193548387,1.37741935483871,1.37096774193548,1.36774193548387,1.37741935483871,1.36774193548387,1.36451612903226,1.36774193548387,1.36451612903226,1.36451612903226,1.37741935483871,1.37741935483871,1.3741935483871,1.36451612903226,1.36774193548387,1.36774193548387,1.37096774193548,1.3741935483871,1.35806451612903,1.3741935483871,1.3741935483871,1.37096774193548,1.3741935483871,1.3741935483871,1.38387096774194,1.38709677419355,1.39032258064516,1.41612903225806,1.43870967741935,1.43870967741935,1.44193548387097,1.43548387096774,1.43225806451613,1.41612903225806,1.42258064516129,1.39354838709677,1.3741935483871,1.38064516129032,1.37096774193548,1.3741935483871,1.36129032258065,1.36774193548387,1.36129032258065,1.36451612903226,1.32258064516129,1.44193548387097,1.6,1.64838709677419,1.72258064516129,1.62903225806452,1.47096774193548,1.48709677419355,1.47741935483871,1.41935483870968,1.39677419354839,1.38387096774194,1.38064516129032,1.38387096774194,1.37741935483871,1.38064516129032,1.3741935483871,1.3741935483871,1.37741935483871,1.37741935483871,1.3741935483871,1.38064516129032,1.3741935483871,1.38387096774194,1.38709677419355,1.39677419354839,1.4,1.4,1.40322580645161,1.41290322580645,1.4258064516129,1.43225806451613,1.45161290322581,1.45806451612903,1.4741935483871,1.48709677419355,1.50967741935484,1.52903225806452,1.54838709677419,1.55806451612903,1.56451612903226,1.56451612903226,1.55483870967742,1.53225806451613,1.50967741935484,1.47741935483871,1.44516129032258,1.42258064516129,1.39354838709677,1.39032258064516,1.38709677419355,1.3741935483871,1.38064516129032,1.37741935483871,1.3741935483871,1.37096774193548,1.37096774193548,1.37741935483871,1.37096774193548,1.37096774193548,1.37096774193548,1.3741935483871,1.37096774193548,1.37741935483871,1.3741935483871,1.37741935483871,1.37741935483871,1.37741935483871,1.37741935483871,1.38064516129032,1.38064516129032,1.38064516129032,1.37741935483871,1.38387096774194,1.37096774193548,1.37741935483871,1.38064516129032,1.37741935483871,1.38387096774194,1.37741935483871,1.3741935483871,1.37741935483871,1.3741935483871,1.36774193548387,1.37741935483871,1.37741935483871,1.37741935483871,1.3741935483871,1.37096774193548,1.37096774193548,1.37741935483871,1.36129032258065,1.3741935483871,1.37741935483871,1.36129032258065,1.37096774193548,1.37096774193548,1.3741935483871,1.36129032258065,1.36129032258065,1.36774193548387,1.36774193548387,1.37096774193548,1.36129032258065,1.35806451612903,1.35806451612903,1.36451612903226,1.35483870967742,1.36451612903226,1.36774193548387,1.36129032258065,1.36451612903226,1.36451612903226,1.36451612903226,1.35806451612903,1.36129032258065,1.35161290322581,1.36129032258065,1.36129032258065,1.36451612903226,1.35806451612903,1.35806451612903,1.36129032258065,1.36129032258065,1.37096774193548,1.38709677419355,1.38064516129032,1.39354838709677,1.4258064516129,1.43548387096774,1.4258064516129,1.4258064516129,1.41290322580645,1.41290322580645,1.40322580645161,1.38387096774194,1.36774193548387,1.36774193548387,1.36774193548387,1.36129032258065,1.35161290322581,1.34193548387097,1.35161290322581,1.35483870967742,1.3258064516129,1.38064516129032,1.55806451612903,1.66774193548387,1.74193548387097,1.68709677419355,1.51612903225806,1.49354838709677,1.47741935483871,1.43225806451613,1.38064516129032,1.38064516129032,1.3741935483871,1.36451612903226,1.36451612903226,1.36129032258065,1.36774193548387,1.37096774193548,1.36774193548387,1.36774193548387,1.37096774193548,1.3741935483871,1.3741935483871,1.37741935483871,1.39032258064516,1.39032258064516,1.4,1.40322580645161,1.40645161290323,1.41612903225806,1.42258064516129,1.43548387096774,1.43225806451613,1.46129032258065,1.47741935483871,1.49354838709677,1.50967741935484,1.52903225806452,1.54193548387097,1.56451612903226,1.57096774193548,1.57096774193548,1.56774193548387,1.55161290322581,1.51935483870968,1.48709677419355,1.44838709677419,1.41935483870968,1.4,1.38387096774194,1.3741935483871,1.3741935483871,1.36774193548387,1.36774193548387,1.36129032258065,1.36129032258065,1.36129032258065,1.36129032258065,1.36129032258065,1.35483870967742,1.37096774193548,1.37741935483871,1.37096774193548,1.37096774193548,1.36774193548387,1.3741935483871,1.36451612903226,1.37096774193548,1.3741935483871,1.38064516129032,1.37741935483871,1.37096774193548,1.36451612903226,1.38064516129032,1.38064516129032,1.38064516129032,1.38064516129032,1.38387096774194,1.3741935483871,1.3741935483871,1.3741935483871,1.37096774193548,1.3741935483871,1.3741935483871,1.3741935483871,1.36451612903226,1.37096774193548,1.37096774193548,1.35806451612903,1.36129032258065,1.36774193548387,1.37741935483871,1.36774193548387,1.37096774193548,1.37096774193548,1.37741935483871,1.36774193548387,1.3741935483871,1.36774193548387,1.36129032258065,1.37096774193548,1.37096774193548,1.3741935483871,1.37096774193548,1.36129032258065,1.37096774193548,1.37096774193548,1.37096774193548,1.3741935483871,1.3741935483871,1.37096774193548,1.36774193548387,1.37096774193548,1.35806451612903,1.37096774193548,1.3741935483871,1.37096774193548,1.37741935483871,1.36451612903226,1.37741935483871,1.36451612903226,1.37096774193548,1.37096774193548,1.37096774193548,1.37096774193548,1.37096774193548,1.36774193548387,1.37096774193548,1.37096774193548,1.36451612903226,1.37741935483871,1.39032258064516,1.38709677419355,1.39032258064516,1.41612903225806,1.43870967741935,1.43225806451613,1.43870967741935,1.4258064516129,1.41612903225806,1.40967741935484,1.40645161290323,1.38387096774194,1.36451612903226,1.37741935483871,1.37096774193548,1.37096774193548,1.36129032258065,1.36129032258065,1.35483870967742,1.34516129032258,1.30322580645161,1.47741935483871,1.65483870967742,1.72903225806452,1.75483870967742,1.6258064516129,1.48387096774194,1.51290322580645,1.4741935483871,1.40967741935484,1.37741935483871,1.3741935483871,1.37096774193548,1.36451612903226,1.35806451612903,1.36774193548387,1.35483870967742,1.36774193548387,1.36129032258065,1.37096774193548,1.37096774193548,1.37741935483871,1.38387096774194,1.37741935483871,1.37741935483871,1.38387096774194,1.39354838709677,1.40645161290323,1.41612903225806,1.41612903225806,1.42903225806452,1.43225806451613,1.45161290322581,1.46774193548387,1.48064516129032,1.50322580645161,1.5258064516129,1.54193548387097,1.55806451612903,1.57096774193548,1.57741935483871,1.58387096774194,1.57096774193548,1.54516129032258,1.50645161290323,1.46129032258065,1.44193548387097,1.42258064516129,1.40645161290323,1.39032258064516,1.3741935483871,1.3741935483871,1.3741935483871,1.37096774193548,1.36774193548387,1.3741935483871,1.37096774193548,1.37096774193548,1.36129032258065,1.37096774193548,1.3741935483871,1.36451612903226,1.3741935483871,1.37741935483871,1.37741935483871,1.37741935483871,1.38064516129032,1.36774193548387,1.37096774193548,1.37096774193548,1.37096774193548,1.37096774193548,1.37096774193548,1.3741935483871,1.38064516129032,1.37741935483871,1.37741935483871,1.38064516129032,1.37741935483871,1.37096774193548,1.3741935483871,1.3741935483871,1.3741935483871,1.36774193548387,1.36451612903226,1.36451612903226,1.37096774193548,1.36774193548387,1.37096774193548,1.3741935483871,1.36774193548387,1.36774193548387,1.3741935483871,1.37096774193548,1.3741935483871,1.35806451612903,1.35806451612903,1.36774193548387,1.36451612903226,1.36451612903226,1.36451612903226,1.35483870967742,1.36129032258065,1.36451612903226,1.36129032258065,1.34838709677419,1.36451612903226,1.36774193548387,1.36129032258065,1.36451612903226,1.36451612903226,1.36451612903226,1.36774193548387,1.36774193548387,1.37096774193548,1.37096774193548,1.36451612903226,1.36774193548387,1.36774193548387,1.37741935483871,1.36774193548387,1.37096774193548,1.36129032258065,1.37096774193548,1.37741935483871,1.37096774193548,1.37741935483871,1.36774193548387,1.36774193548387,1.36129032258065,1.36451612903226,1.3741935483871,1.38387096774194,1.38387096774194,1.38387096774194,1.40322580645161,1.44193548387097,1.43870967741935,1.43225806451613,1.43870967741935,1.4258064516129,1.41290322580645,1.41612903225806,1.39354838709677,1.3741935483871,1.38064516129032,1.3741935483871,1.35806451612903,1.36451612903226,1.36129032258065,1.36129032258065,1.34516129032258,1.32903225806452,1.39032258064516,1.55483870967742,1.65161290322581,1.73225806451613,1.67096774193548,1.50967741935484,1.49354838709677,1.48709677419355,1.43548387096774,1.39032258064516,1.38709677419355,1.3741935483871,1.38064516129032,1.37096774193548,1.37096774193548,1.37741935483871,1.3741935483871,1.37741935483871,1.37741935483871,1.38387096774194,1.38064516129032,1.3741935483871,1.38387096774194,1.4,1.39032258064516,1.39354838709677,1.40322580645161,1.41290322580645,1.41290322580645,1.42903225806452,1.43548387096774,1.44838709677419,1.46451612903226,1.48064516129032,1.48709677419355,1.50967741935484,1.53225806451613,1.54193548387097,1.55483870967742,1.56774193548387,1.57096774193548,1.55806451612903,1.54838709677419,1.52258064516129,1.48064516129032,1.45806451612903,1.42258064516129,1.4,1.39354838709677,1.38064516129032,1.38064516129032,1.37096774193548,1.36774193548387,1.37741935483871,1.3741935483871,1.37096774193548,1.37741935483871,1.37741935483871,1.37741935483871,1.3741935483871,1.36774193548387,1.36774193548387,1.37741935483871,1.36774193548387,1.36451612903226,1.36129032258065,1.36451612903226,1.36774193548387,1.37096774193548,1.36774193548387,1.36774193548387,1.36451612903226,1.36774193548387,1.36774193548387,1.36774193548387,1.36774193548387,1.36774193548387,1.36129032258065,1.35806451612903,1.36774193548387,1.37096774193548,1.3741935483871,1.37096774193548,1.3741935483871,1.37096774193548,1.36451612903226,1.37096774193548,1.37096774193548,1.36451612903226,1.36129032258065,1.36774193548387,1.36774193548387,1.36451612903226,1.36451612903226,1.35806451612903,1.36451612903226,1.36451612903226,1.36451612903226,1.36129032258065,1.36451612903226,1.36451612903226,1.36451612903226,1.36451612903226,1.36129032258065,1.36129032258065,1.36129032258065,1.36451612903226,1.36451612903226,1.35806451612903,1.36451612903226,1.36451612903226,1.36451612903226,1.36774193548387,1.36451612903226,1.36451612903226,1.36129032258065,1.36451612903226,1.36451612903226,1.36451612903226,1.36774193548387,1.35806451612903,1.36774193548387,1.36451612903226,1.3741935483871,1.36774193548387,1.38709677419355,1.39677419354839,1.39677419354839,1.42258064516129,1.44516129032258,1.44193548387097,1.44516129032258,1.44516129032258,1.4258064516129,1.41935483870968,1.4,1.37741935483871,1.37741935483871,1.37741935483871,1.36451612903226,1.36774193548387,1.36129032258065,1.35161290322581,1.35806451612903,1.33870967741935,1.36129032258065,1.51612903225806,1.64838709677419,1.7258064516129,1.70967741935484,1.56129032258065,1.48064516129032,1.49032258064516,1.45806451612903,1.39032258064516,1.39032258064516,1.38387096774194,1.38387096774194,1.3741935483871,1.3741935483871,1.38064516129032,1.36774193548387,1.37741935483871,1.38064516129032,1.38064516129032,1.37741935483871,1.38064516129032,1.38387096774194,1.38709677419355,1.39354838709677,1.39677419354839,1.40645161290323,1.40645161290323,1.41612903225806,1.41612903225806,1.4258064516129,1.44193548387097,1.45483870967742,1.46774193548387,1.48387096774194,1.5,1.52258064516129,1.53548387096774,1.55483870967742,1.55806451612903,1.57741935483871,1.57096774193548,1.56129032258065,1.52903225806452,1.5,1.45161290322581,1.43225806451613,1.40967741935484,1.38709677419355,1.38064516129032,1.3741935483871,1.37096774193548,1.36451612903226,1.35161290322581,1.36129032258065,1.36129032258065,1.35806451612903,1.35806451612903,1.35806451612903,1.36774193548387,1.35806451612903,1.36774193548387,1.36451612903226,1.36774193548387,1.36774193548387,1.36451612903226,1.37096774193548,1.37096774193548,1.36774193548387,1.36774193548387,1.3741935483871,1.37096774193548,1.38064516129032,1.3741935483871,1.37741935483871,1.37096774193548,1.37096774193548,1.36774193548387,1.36774193548387,1.3741935483871,1.36774193548387,1.36774193548387,1.3741935483871,1.36451612903226,1.36774193548387,1.36451612903226,1.35483870967742,1.36129032258065,1.37741935483871,1.36451612903226,1.37096774193548,1.37096774193548,1.3741935483871,1.3741935483871,1.3741935483871,1.36129032258065,1.36129032258065,1.36129032258065,1.36129032258065,1.36774193548387,1.36129032258065,1.36774193548387,1.36774193548387,1.36129032258065,1.37096774193548,1.36129032258065,1.36451612903226,1.36451612903226,1.35483870967742,1.36451612903226,1.35483870967742,1.36451612903226,1.36451612903226,1.36451612903226,1.36451612903226,1.36774193548387,1.36774193548387,1.36774193548387,1.37096774193548,1.36774193548387,1.37096774193548,1.3741935483871,1.37096774193548,1.37096774193548,1.37096774193548,1.37741935483871,1.37096774193548,1.37741935483871,1.38064516129032,1.38387096774194,1.38387096774194,1.40645161290323,1.44838709677419,1.42903225806452,1.43548387096774,1.42903225806452,1.43870967741935,1.41935483870968,1.41612903225806,1.38709677419355,1.37741935483871,1.38709677419355,1.37096774193548,1.36774193548387,1.35806451612903,1.36129032258065,1.35483870967742,1.36129032258065,1.32258064516129,1.4258064516129,1.60967741935484,1.69032258064516,1.77096774193548,1.68064516129032,1.51290322580645,1.51612903225806,1.48709677419355,1.43225806451613,1.39354838709677,1.38387096774194,1.3741935483871,1.37096774193548,1.3741935483871,1.36774193548387,1.36774193548387,1.37096774193548,1.36774193548387,1.3741935483871,1.3741935483871,1.3741935483871,1.38064516129032,1.38064516129032,1.38709677419355,1.39354838709677,1.40645161290323,1.40322580645161,1.40967741935484,1.41935483870968,1.4258064516129,1.43225806451613,1.44838709677419,1.45161290322581,1.47741935483871,1.49354838709677,1.50645161290323,1.53225806451613,1.53870967741935,1.56451612903226,1.56774193548387,1.5741935483871,1.55806451612903,1.54516129032258,1.50967741935484,1.4741935483871,1.44516129032258,1.41935483870968,1.4,1.37741935483871,1.3741935483871,1.36774193548387,1.36129032258065,1.36129032258065,1.35806451612903,1.35483870967742,1.35806451612903,1.36129032258065,1.36451612903226,1.36451612903226,1.36129032258065,1.36129032258065,1.36774193548387,1.37096774193548,1.37096774193548,1.36774193548387,1.36451612903226,1.37096774193548,1.37096774193548,1.3741935483871,1.37741935483871,1.3741935483871,1.3741935483871,1.3741935483871,1.38064516129032,1.36774193548387,1.37096774193548,1.36774193548387,1.36451612903226,1.37096774193548,1.38064516129032,1.38064516129032,1.37096774193548,1.37096774193548,1.37096774193548,1.36451612903226,1.36774193548387,1.3741935483871,1.36129032258065,1.37096774193548,1.36129032258065,1.37096774193548,1.37096774193548,1.36129032258065,1.36451612903226,1.36129032258065,1.36774193548387,1.36774193548387,1.36451612903226,1.37096774193548,1.36774193548387,1.36774193548387,1.36129032258065,1.36774193548387,1.36451612903226,1.36451612903226,1.36451612903226,1.36774193548387,1.36774193548387,1.35806451612903,1.36129032258065,1.35161290322581,1.35806451612903,1.36451612903226,1.35806451612903,1.3741935483871,1.36129032258065,1.36451612903226,1.36451612903226,1.36451612903226,1.36774193548387,1.36451612903226,1.36129032258065,1.3741935483871,1.35806451612903,1.38064516129032,1.37741935483871,1.37096774193548,1.38709677419355,1.38709677419355,1.38709677419355,1.39677419354839,1.42903225806452,1.43870967741935,1.42903225806452,1.43548387096774,1.4258064516129,1.41935483870968,1.42258064516129,1.39032258064516,1.38387096774194,1.38064516129032,1.37741935483871,1.37096774193548,1.37741935483871,1.36774193548387,1.36129032258065,1.36451612903226,1.35161290322581,1.34838709677419,1.50322580645161,1.64193548387097,1.70322580645161,1.7,1.55483870967742,1.46451612903226,1.48709677419355,1.44838709677419,1.40322580645161,1.38387096774194,1.38064516129032,1.38064516129032,1.38387096774194,1.38064516129032,1.38064516129032,1.38387096774194,1.38064516129032,1.38387096774194,1.39032258064516,1.39032258064516,1.38709677419355,1.39677419354839,1.39677419354839,1.38709677419355,1.40645161290323,1.40967741935484,1.41612903225806,1.41612903225806,1.42258064516129,1.43225806451613,1.43870967741935,1.45161290322581,1.46774193548387,1.49677419354839,1.50645161290323,1.52903225806452,1.53548387096774,1.55483870967742,1.56774193548387,1.56774193548387,1.57096774193548,1.55161290322581,1.5258064516129,1.49354838709677,1.45483870967742,1.43548387096774,1.41290322580645,1.39032258064516,1.38709677419355,1.3741935483871,1.36774193548387,1.37741935483871,1.36774193548387,1.36451612903226,1.35806451612903,1.35806451612903,1.36451612903226,1.35161290322581,1.36451612903226,1.36774193548387,1.37096774193548,1.37096774193548,1.36774193548387,1.37096774193548,1.37096774193548,1.36774193548387,1.37096774193548,1.37096774193548,1.37096774193548,1.37741935483871,1.38064516129032,1.37741935483871,1.3741935483871,1.3741935483871,1.37741935483871,1.37096774193548,1.37096774193548,1.3741935483871,1.36774193548387,1.37096774193548,1.36774193548387,1.36774193548387,1.37096774193548,1.37096774193548,1.35806451612903,1.36451612903226,1.3741935483871,1.3741935483871,1.36774193548387,1.36774193548387,1.36451612903226,1.36774193548387,1.37096774193548,1.3741935483871,1.36451612903226,1.36129032258065,1.37096774193548,1.36129032258065,1.37096774193548,1.3741935483871,1.36129032258065,1.36774193548387,1.36129032258065,1.36451612903226,1.36129032258065,1.36129032258065,1.35806451612903,1.36774193548387,1.35161290322581,1.35806451612903,1.36451612903226,1.35806451612903,1.36129032258065,1.36451612903226,1.36129032258065,1.36774193548387,1.36451612903226,1.36774193548387,1.37096774193548,1.36774193548387,1.3741935483871,1.37741935483871,1.38387096774194,1.38709677419355,1.39677419354839,1.43548387096774,1.43870967741935,1.42903225806452,1.43225806451613,1.41612903225806,1.41290322580645,1.40967741935484,1.38064516129032,1.36774193548387,1.38064516129032,1.36774193548387,1.36774193548387,1.35806451612903,1.35806451612903,1.35483870967742,1.35161290322581,1.31935483870968,1.42258064516129,1.59677419354839,1.65806451612903,1.73225806451613,1.65161290322581,1.47741935483871,1.49032258064516,1.48387096774194,1.41935483870968,1.38064516129032,1.3741935483871,1.3741935483871,1.3741935483871,1.36774193548387,1.35806451612903,1.37096774193548,1.37096774193548,1.36774193548387,1.3741935483871,1.36774193548387,1.36774193548387,1.3741935483871,1.37741935483871,1.37096774193548,1.38064516129032,1.38387096774194,1.39354838709677,1.4,1.4,1.41290322580645,1.41935483870968,1.43870967741935,1.43870967741935,1.46774193548387,1.48387096774194,1.5,1.52258064516129,1.53225806451613,1.54838709677419,1.55806451612903,1.56129032258065,1.55161290322581,1.52903225806452,1.49032258064516,1.45806451612903,1.42903225806452,1.40645161290323,1.3741935483871,1.36129032258065,1.35806451612903,1.36129032258065,1.35161290322581,1.35161290322581,1.35483870967742,1.35483870967742,1.35483870967742,1.35806451612903,1.35161290322581,1.35483870967742,1.36129032258065,1.35483870967742,1.36129032258065,1.35806451612903,1.36129032258065,1.35483870967742,1.36774193548387,1.35806451612903,1.36451612903226,1.36129032258065,1.36451612903226,1.37096774193548,1.36129032258065,1.37096774193548,1.37096774193548,1.3741935483871,1.37741935483871,1.38064516129032,1.3741935483871,1.3741935483871,1.37741935483871,1.37741935483871,1.38064516129032,1.37741935483871,1.38709677419355,1.38709677419355,1.39354838709677,1.38709677419355,1.39677419354839,1.39677419354839,1.39354838709677,1.39677419354839,1.4,1.4,1.39354838709677,1.4,1.40645161290323,1.39677419354839,1.41612903225806,1.41935483870968,1.41612903225806,1.42903225806452,1.42903225806452,1.42258064516129,1.4258064516129,1.42903225806452,1.43548387096774,1.43870967741935,1.43548387096774
