1.42903225806452,1.36129032258065,1.33225806451613,1.33548387096774,1.33225806451613,1.31935483870968,1.32903225806452,1.36451612903226,1.35161290322581,1.33548387096774,1.36129032258065,1.35483870967742,1.27741935483871,1.26129032258065,1.57096774193548,2.11290322580645,2.39354838709677,2.11290322580645,1.56451612903226,1.26451612903226,1.25161290322581,1.2741935483871,1.26451612903226,1.24838709677419,1.25806451612903,1.28064516129032,1.31612903225806,1.37741935483871,1.41290322580645,1.42903225806452,1.4258064516129,1.39677419354839,1.38709677419355,1.38064516129032,1.39354838709677,1.4258064516129,1.43548387096774,1.43870967741935,1.43870967741935,1.45161290322581,1.46774193548387,1.46774193548387,1.4741935483871,1.4741935483871,1.48064516129032,1.47096774193548,1.43225806451613,1.39677419354839,1.35161290322581,1.32258064516129,1.30645161290323,1.28064516129032,1.26451612903226,1.26451612903226,1.28709677419355,1.3,1.29032258064516,1.29677419354839,1.29354838709677,1.29032258064516,1.30645161290323,1.31935483870968,1.32903225806452,1.31612903225806,1.32903225806452,1.34516129032258,1.33548387096774,1.3258064516129,1.32258064516129,1.34193548387097,1.35806451612903,1.33870967741935,1.33870967741935,1.34516129032258,1.35806451612903,1.37096774193548,1.36451612903226,1.36774193548387,1.3741935483871,1.39354838709677,1.40322580645161,1.40322580645161,1.44193548387097,1.46451612903226,1.44838709677419,1.40645161290323,1.36774193548387,1.36451612903226,1.37096774193548,1.38064516129032,1.37096774193548,1.35483870967742,1.36774193548387,1.4,1.43870967741935,1.43225806451613,1.33870967741935,1.31612903225806,1.55806451612903,2.02903225806452,2.31935483870968,2.1,1.64516129032258,1.35161290322581,1.3,1.3258064516129,1.33225806451613,1.33870967741935,1.31935483870968,1.32258064516129,1.35161290322581,1.34516129032258,1.33870967741935,1.34193548387097,1.36451612903226,1.38064516129032,1.37096774193548,1.37096774193548,1.37741935483871,1.40645161290323,1.42258064516129,1.41612903225806,1.43870967741935,1.46774193548387,1.50645161290323,1.52903225806452,1.52258064516129,1.5258064516129,1.51935483870968,1.5,1.47096774193548,1.41290322580645,1.35806451612903,1.30645161290323,1.28387096774194,1.2741935483871,1.25483870967742,1.26129032258065,1.26451612903226,1.26451612903226,1.26451612903226,1.2741935483871,1.30322580645161,1.30322580645161,1.29677419354839,1.30322580645161,1.30967741935484,1.32258064516129,1.31612903225806,1.32903225806452,1.34193548387097,1.3258064516129,1.33548387096774,1.34516129032258,1.33548387096774,1.3258064516129,1.34838709677419,1.4,1.40645161290323,1.3741935483871,1.35806451612903,1.36129032258065,1.37741935483871,1.37096774193548,1.35806451612903,1.36774193548387,1.38387096774194,1.41290322580645,1.43225806451613,1.45161290322581,1.46129032258065,1.44193548387097,1.41612903225806,1.38064516129032,1.37741935483871,1.38709677419355,1.37741935483871,1.37096774193548,1.37096774193548,1.38387096774194,1.39032258064516,1.38387096774194,1.34193548387097,1.28709677419355,1.48387096774194,2.01612903225806,2.45806451612903,2.34838709677419,1.82258064516129,1.40967741935484,1.28064516129032,1.26774193548387,1.27096774193548,1.26129032258065,1.25806451612903,1.25806451612903,1.26451612903226,1.28064516129032,1.28064516129032,1.29354838709677,1.3258064516129,1.34193548387097,1.34516129032258,1.34193548387097,1.35806451612903,1.38064516129032,1.39677419354839,1.40967741935484,1.40645161290323,1.43870967741935,1.48387096774194,1.49354838709677,1.51935483870968,1.53548387096774,1.53870967741935,1.51612903225806,1.47741935483871,1.46774193548387,1.42903225806452,1.35806451612903,1.31935483870968,1.30967741935484,1.31935483870968,1.30645161290323,1.29354838709677,1.3,1.29677419354839,1.31612903225806,1.34516129032258,1.35161290322581,1.32903225806452,1.31935483870968,1.35806451612903,1.37096774193548,1.36451612903226,1.36129032258065,1.35161290322581,1.36774193548387,1.37096774193548,1.36129032258065,1.36129032258065,1.36129032258065,1.36451612903226,1.35483870967742,1.36129032258065,1.38064516129032,1.38064516129032,1.38064516129032,1.38064516129032,1.38709677419355,1.39032258064516,1.38387096774194,1.39354838709677,1.38387096774194,1.38387096774194,1.42903225806452,1.46774193548387,1.48709677419355,1.45806451612903,1.41290322580645,1.39032258064516,1.38064516129032,1.37741935483871,1.37096774193548,1.38709677419355,1.39354838709677,1.36451612903226,1.37096774193548,1.39677419354839,1.36451612903226,1.27096774193548,1.34516129032258,1.80322580645161,2.34193548387097,2.42903225806452,2,1.50967741935484,1.30322580645161,1.28387096774194,1.27741935483871,1.26129032258065,1.25483870967742,1.27741935483871,1.28387096774194,1.29354838709677,1.30967741935484,1.31935483870968,1.34516129032258,1.34838709677419,1.33225806451613,1.31612903225806,1.31612903225806,1.35806451612903,1.3741935483871,1.39032258064516,1.43225806451613,1.45483870967742,1.46451612903226,1.46129032258065,1.47741935483871,1.50322580645161,1.50322580645161,1.50645161290323,1.49677419354839,1.47741935483871,1.42903225806452,1.35161290322581,1.3258064516129,1.32258064516129,1.3,1.28387096774194,1.28387096774194,1.29354838709677,1.29677419354839,1.32258064516129,1.34193548387097,1.32903225806452,1.32903225806452,1.32903225806452,1.32258064516129,1.32258064516129,1.33225806451613,1.33870967741935,1.31935483870968,1.31935483870968,1.33225806451613,1.33548387096774,1.34838709677419,1.34516129032258,1.33870967741935,1.34838709677419,1.34193548387097,1.34838709677419,1.35161290322581,1.36774193548387,1.37741935483871,1.35806451612903,1.35806451612903,1.3741935483871,1.41290322580645,1.44193548387097,1.43548387096774,1.41935483870968,1.39032258064516,1.36774193548387,1.35806451612903,1.34193548387097,1.34516129032258,1.34193548387097,1.33870967741935,1.34193548387097,1.35161290322581,1.38064516129032,1.35806451612903,1.26774193548387,1.24516129032258,1.47741935483871,1.96774193548387,2.29354838709677,2.09354838709677,1.59677419354839,1.27096774193548,1.23870967741935,1.27096774193548,1.26129032258065,1.24838709677419,1.26129032258065,1.29354838709677,1.29354838709677,1.29032258064516,1.29032258064516,1.28387096774194,1.29032258064516,1.3,1.31935483870968,1.34516129032258,1.36129032258065,1.38709677419355,1.40645161290323,1.43225806451613,1.44516129032258,1.44838709677419,1.48387096774194,1.50967741935484,1.52258064516129,1.53225806451613,1.5258064516129,1.51612903225806,1.47096774193548,1.41935483870968,1.39354838709677,1.36451612903226,1.33225806451613,1.30322580645161,1.30645161290323,1.32258064516129,1.31290322580645,1.31935483870968,1.33548387096774,1.35161290322581,1.35161290322581,1.34193548387097,1.36774193548387,1.38387096774194,1.37096774193548,1.35806451612903,1.36129032258065,1.39677419354839,1.40645161290323,1.4,1.41290322580645,1.42903225806452,1.43870967741935,1.41935483870968,1.40967741935484,1.41612903225806,1.40645161290323,1.40322580645161,1.39354838709677,1.40967741935484,1.44516129032258,1.44516129032258,1.43870967741935,1.44193548387097,1.48064516129032,1.51935483870968,1.51290322580645,1.48709677419355,1.44838709677419,1.42258064516129,1.41612903225806,1.40645161290323,1.40967741935484,1.4,1.4,1.41290322580645,1.42258064516129,1.44516129032258,1.41612903225806,1.3258064516129,1.3,1.55161290322581,2.08709677419355,2.44516129032258,2.24193548387097,1.70645161290323,1.34516129032258,1.28064516129032,1.27741935483871,1.24838709677419,1.24516129032258,1.25483870967742,1.27741935483871,1.2741935483871,1.2741935483871,1.29677419354839,1.30967741935484,1.31935483870968,1.31612903225806,1.31612903225806,1.32903225806452,1.33870967741935,1.36774193548387,1.37096774193548,1.37096774193548,1.39032258064516,1.42258064516129,1.46451612903226,1.48064516129032,1.49032258064516,1.50322580645161,1.49354838709677,1.49677419354839,1.47741935483871,1.4258064516129,1.36129032258065,1.31290322580645,1.30967741935484,1.29677419354839,1.28387096774194,1.28709677419355,1.29032258064516,1.30645161290323,1.29677419354839,1.29354838709677,1.30322580645161,1.3,1.31290322580645,1.3258064516129,1.32903225806452,1.33548387096774,1.33225806451613,1.33225806451613,1.33225806451613,1.34516129032258,1.35806451612903,1.35161290322581,1.36129032258065,1.35483870967742,1.34193548387097,1.34838709677419,1.34193548387097,1.33225806451613,1.33870967741935,1.36129032258065,1.3741935483871,1.35806451612903,1.37096774193548,1.37741935483871,1.37741935483871,1.37741935483871,1.36774193548387,1.39354838709677,1.42903225806452,1.45161290322581,1.46129032258065,1.42903225806452,1.38709677419355,1.35483870967742,1.35483870967742,1.36774193548387,1.35806451612903,1.34838709677419,1.35483870967742,1.37096774193548,1.3741935483871,1.34838709677419,1.30645161290323,1.24516129032258,1.4,1.90645161290323,2.38064516129032,2.32903225806452,1.8258064516129,1.4,1.26774193548387,1.25483870967742,1.25161290322581,1.24193548387097,1.24838709677419,1.25483870967742,1.26451612903226,1.29354838709677,1.29354838709677,1.2741935483871,1.28709677419355,1.30322580645161,1.31935483870968,1.31612903225806,1.33870967741935,1.38387096774194,1.39354838709677,1.4,1.42258064516129,1.45806451612903,1.49354838709677,1.50645161290323,1.51290322580645,1.50322580645161,1.53548387096774,1.56774193548387,1.52258064516129,1.47096774193548,1.42903225806452,1.38064516129032,1.35483870967742,1.34516129032258,1.34193548387097,1.30967741935484,1.29354838709677,1.31290322580645,1.33548387096774,1.34516129032258,1.33548387096774,1.33870967741935,1.35806451612903,1.36774193548387,1.38064516129032,1.38064516129032,1.3741935483871,1.37096774193548,1.37096774193548,1.38064516129032,1.3741935483871,1.38387096774194,1.4,1.38387096774194,1.36774193548387,1.35806451612903,1.36451612903226,1.38709677419355,1.38064516129032,1.3741935483871,1.3741935483871,1.38064516129032,1.38709677419355,1.37096774193548,1.37096774193548,1.3741935483871,1.38387096774194,1.39677419354839,1.38709677419355,1.38387096774194,1.39677419354839,1.43548387096774,1.47741935483871,1.48064516129032,1.45806451612903,1.41935483870968,1.38709677419355,1.36129032258065,1.34516129032258,1.38064516129032,1.4,1.38709677419355,1.37096774193548,1.36774193548387,1.38387096774194,1.32903225806452,1.24838709677419,1.36774193548387,1.81612903225806,2.33548387096774,2.39354838709677,1.94516129032258,1.47096774193548,1.28064516129032,1.29032258064516,1.28387096774194,1.24838709677419,1.23870967741935,1.25806451612903,1.3,1.29354838709677,1.2741935483871,1.29354838709677,1.31935483870968,1.33548387096774,1.3258064516129,1.33225806451613,1.35806451612903,1.36129032258065,1.37741935483871,1.39354838709677,1.41290322580645,1.44193548387097,1.46774193548387,1.49354838709677,1.49677419354839,1.50645161290323,1.51612903225806,1.50645161290323,1.49354838709677,1.45806451612903,1.40645161290323,1.36774193548387,1.33548387096774,1.3258064516129,1.31290322580645,1.30645161290323,1.28709677419355,1.2741935483871,1.29032258064516,1.28709677419355,1.29032258064516,1.31612903225806,1.31935483870968,1.31612903225806,1.31935483870968,1.33225806451613,1.34838709677419,1.34516129032258,1.33548387096774,1.3258064516129,1.33548387096774,1.34838709677419,1.34838709677419,1.34516129032258,1.3258064516129,1.32258064516129,1.32903225806452,1.32903225806452,1.35161290322581,1.37096774193548,1.36774193548387,1.35161290322581,1.33225806451613,1.34516129032258,1.36129032258065,1.36774193548387,1.36451612903226,1.34516129032258,1.35161290322581,1.37741935483871,1.40645161290323,1.43548387096774,1.45806451612903,1.47741935483871,1.45806451612903,1.40967741935484,1.38064516129032,1.37096774193548,1.38709677419355,1.38387096774194,1.3741935483871,1.36774193548387,1.36774193548387,1.39677419354839,1.40967741935484,1.34516129032258,1.26774193548387,1.41612903225806,1.92903225806452,2.41612903225806,2.3741935483871,1.88064516129032,1.44193548387097,1.30322580645161,1.29354838709677,1.28387096774194,1.28064516129032,1.28387096774194,1.29677419354839,1.28387096774194,1.28387096774194,1.31612903225806,1.33225806451613,1.33548387096774,1.33548387096774,1.35483870967742,1.3741935483871,1.37741935483871,1.39354838709677,1.40322580645161,1.40967741935484,1.44516129032258,1.48387096774194,1.51935483870968,1.53870967741935,1.56451612903226,1.59354838709677,1.58387096774194,1.54838709677419,1.50967741935484,1.5,1.48064516129032,1.41612903225806,1.36451612903226,1.34193548387097,1.34838709677419,1.35483870967742,1.33225806451613,1.33870967741935,1.34838709677419,1.34193548387097,1.35161290322581,1.35161290322581,1.36451612903226,1.38064516129032,1.39032258064516,1.38709677419355,1.3741935483871,1.39032258064516,1.40322580645161,1.39677419354839,1.39032258064516,1.38064516129032,1.38709677419355,1.38064516129032,1.38709677419355,1.39677419354839,1.38709677419355,1.38064516129032,1.35806451612903,1.36129032258065,1.38064516129032,1.3741935483871,1.38064516129032,1.38709677419355,1.38064516129032,1.39354838709677,1.40322580645161,1.40645161290323,1.38387096774194,1.37096774193548,1.37741935483871,1.37096774193548,1.36774193548387,1.34516129032258,1.31612903225806,1.31290322580645,1.30967741935484,1.31612903225806,1.32903225806452,1.33225806451613,1.32258064516129,1.31612903225806,1.34516129032258,1.33548387096774,1.24193548387097,1.19677419354839,1.42258064516129,1.94516129032258,2.31290322580645,2.13548387096774,1.63548387096774,1.28064516129032,1.21935483870968,1.24516129032258,1.24516129032258,1.23548387096774,1.24193548387097,1.26774193548387,1.28387096774194,1.29677419354839,1.30322580645161,1.30645161290323,1.32903225806452,1.33870967741935,1.33870967741935,1.34516129032258,1.35161290322581,1.37096774193548,1.39354838709677,1.42903225806452,1.45806451612903,1.46774193548387,1.5,1.53548387096774,1.55806451612903,1.55483870967742,1.53225806451613,1.5258064516129,1.5,1.45483870967742,1.41612903225806,1.3741935483871,1.35806451612903,1.32258064516129,1.28709677419355,1.29032258064516,1.3,1.31935483870968,1.31935483870968,1.30967741935484,1.31290322580645,1.30645161290323,1.31935483870968,1.32903225806452,1.31612903225806,1.31290322580645,1.32903225806452,1.35161290322581,1.34516129032258,1.33548387096774,1.33225806451613,1.32258064516129,1.34193548387097,1.34516129032258,1.32258064516129,1.31290322580645,1.32258064516129,1.35161290322581,1.35161290322581,1.33870967741935,1.35161290322581,1.3741935483871,1.41290322580645,1.42258064516129,1.41290322580645,1.39677419354839,1.37096774193548,1.35483870967742,1.32258064516129,1.31290322580645,1.33225806451613,1.35483870967742,1.36774193548387,1.34516129032258,1.3258064516129,1.34193548387097,1.35161290322581,1.30645161290323,1.24516129032258,1.40645161290323,1.83225806451613,2.13870967741935,2.00967741935484,1.58387096774194,1.26774193548387,1.21612903225806,1.26774193548387,1.31612903225806,1.30967741935484,1.29354838709677,1.29354838709677,1.30645161290323,1.34838709677419,1.35483870967742,1.32903225806452,1.33548387096774,1.36451612903226,1.39677419354839,1.40645161290323,1.41290322580645,1.43548387096774,1.44838709677419,1.47741935483871,1.50645161290323,1.5258064516129,1.55161290322581,1.56451612903226,1.58064516129032,1.58387096774194,1.58387096774194,1.58064516129032,1.53548387096774,1.48709677419355,1.43548387096774,1.39354838709677,1.36451612903226,1.35806451612903,1.37741935483871,1.37096774193548,1.36129032258065,1.3741935483871,1.36774193548387,1.36129032258065,1.36774193548387,1.4,1.4258064516129,1.41612903225806,1.42903225806452,1.43548387096774,1.42258064516129,1.4258064516129,1.43225806451613,1.44516129032258,1.43548387096774,1.41612903225806,1.41290322580645,1.40967741935484,1.40967741935484,1.4,1.40322580645161,1.40967741935484,1.40322580645161,1.4,1.40645161290323,1.42903225806452,1.46774193548387,1.4741935483871,1.46774193548387,1.43870967741935,1.40645161290323,1.38387096774194,1.35161290322581,1.34838709677419,1.36451612903226,1.38709677419355,1.38709677419355,1.35161290322581,1.34838709677419,1.3741935483871,1.35483870967742,1.27096774193548,1.29032258064516,1.65161290322581,2.17741935483871,2.39032258064516,2.05161290322581,1.52903225806452,1.27096774193548,1.24193548387097,1.25161290322581,1.24516129032258,1.22903225806452,1.25161290322581,1.27096774193548,1.26774193548387,1.27741935483871,1.28064516129032,1.3,1.30967741935484,1.30645161290323,1.31290322580645,1.3258064516129,1.34838709677419,1.35806451612903,1.38064516129032,1.4258064516129,1.46451612903226,1.49032258064516,1.49677419354839,1.50967741935484,1.53870967741935,1.53225806451613,1.5258064516129,1.51612903225806,1.48709677419355,1.43225806451613,1.35806451612903,1.33548387096774,1.32903225806452,1.30967741935484,1.28709677419355,1.27741935483871,1.29354838709677,1.30645161290323,1.3,1.28709677419355,1.2741935483871,1.29354838709677,1.31290322580645,1.31290322580645,1.32258064516129,1.33225806451613,1.34193548387097,1.33548387096774,1.32903225806452,1.33548387096774,1.33225806451613,1.33870967741935,1.32258064516129,1.30967741935484,1.33225806451613,1.34516129032258,1.34516129032258,1.32903225806452,1.3258064516129,1.33870967741935,1.35483870967742,1.3741935483871,1.34838709677419,1.34193548387097,1.37741935483871,1.40967741935484,1.43548387096774,1.42903225806452,1.41290322580645,1.40645161290323,1.37741935483871,1.35161290322581,1.34516129032258,1.36129032258065,1.37096774193548,1.35806451612903,1.36129032258065,1.35161290322581,1.35161290322581,1.36774193548387,1.31290322580645,1.27096774193548,1.48387096774194,2.00322580645161,2.4258064516129,2.28709677419355,1.76774193548387,1.35161290322581,1.22903225806452,1.25161290322581,1.25806451612903,1.26451612903226,1.25483870967742,1.24838709677419,1.27096774193548,1.28064516129032,1.28709677419355,1.29032258064516,1.30645161290323,1.32258064516129,1.31612903225806,1.31935483870968,1.32903225806452,1.35806451612903,1.39354838709677,1.40645161290323,1.42903225806452,1.45161290322581,1.4741935483871,1.49032258064516,1.48709677419355,1.51935483870968,1.53870967741935,1.51290322580645,1.47741935483871,1.44516129032258,1.41290322580645,1.35483870967742,1.31935483870968,1.31290322580645,1.29032258064516,1.28709677419355,1.29354838709677,1.29677419354839,1.30322580645161,1.30322580645161,1.33225806451613,1.34838709677419,1.33870967741935,1.33870967741935,1.34838709677419,1.36129032258065,1.34516129032258,1.33870967741935,1.36129032258065,1.35483870967742,1.35161290322581,1.35161290322581,1.36129032258065,1.3741935483871,1.36774193548387,1.38064516129032,1.3741935483871,1.34838709677419,1.34516129032258,1.35483870967742,1.37096774193548,1.3741935483871,1.38064516129032,1.38064516129032,1.36451612903226,1.37741935483871,1.38709677419355,1.39354838709677,1.40322580645161,1.40645161290323,1.44193548387097,1.47096774193548,1.49032258064516,1.49032258064516,1.44193548387097,1.40322580645161,1.38064516129032,1.37741935483871,1.39677419354839,1.40645161290323,1.41290322580645,1.39032258064516,1.36774193548387,1.37741935483871,1.4,1.39677419354839,1.30967741935484,1.34193548387097,1.74193548387097,2.30322580645161,2.47741935483871,2.06451612903226,1.53548387096774,1.31935483870968,1.30645161290323,1.29032258064516,1.25806451612903,1.27096774193548,1.30322580645161,1.29677419354839,1.29354838709677,1.3,1.30645161290323,1.32258064516129,1.33225806451613,1.35161290322581,1.34193548387097,1.34516129032258,1.38387096774194,1.40322580645161,1.41612903225806,1.42258064516129,1.44838709677419,1.49032258064516,1.51935483870968,1.53870967741935,1.53870967741935,1.52903225806452,1.54193548387097,1.53870967741935,1.50967741935484,1.45161290322581,1.40967741935484,1.39032258064516,1.36129032258065,1.34838709677419,1.33548387096774,1.32903225806452,1.32903225806452,1.32903225806452,1.34193548387097,1.34838709677419,1.35806451612903,1.37096774193548,1.35483870967742,1.35483870967742,1.3741935483871,1.39677419354839,1.40322580645161,1.38064516129032,1.36774193548387,1.36774193548387,1.38064516129032,1.39354838709677,1.37741935483871,1.38064516129032,1.39032258064516,1.38064516129032,1.36774193548387,1.35806451612903,1.36451612903226,1.36129032258065,1.36774193548387,1.37741935483871,1.37096774193548,1.37741935483871,1.37741935483871,1.3741935483871,1.38064516129032,1.37096774193548,1.37096774193548,1.35806451612903,1.35161290322581,1.3741935483871,1.3741935483871,1.37741935483871,1.36451612903226,1.33870967741935,1.35483870967742,1.39354838709677,1.4258064516129,1.41612903225806,1.40322580645161,1.4,1.35806451612903,1.31612903225806,1.30322580645161,1.31290322580645,1.31612903225806,1.29354838709677,1.29354838709677,1.28387096774194,1.27741935483871,1.26774193548387,1.19032258064516,1.12903225806452,1.29677419354839,1.79354838709677,2.25161290322581,2.16129032258065,1.65161290322581,1.20967741935484,1.06774193548387
1.32258064516129,1.32903225806452,1.32903225806452,1.30967741935484,1.30322580645161,1.30967741935484,1.3,1.31290322580645,1.3258064516129,1.3258064516129,1.32903225806452,1.33225806451613,1.36451612903226,1.37096774193548,1.36774193548387,1.38709677419355,1.40322580645161,1.43225806451613,1.47096774193548,1.49354838709677,1.51290322580645,1.5258064516129,1.56451612903226,1.57741935483871,1.5741935483871,1.56774193548387,1.51935483870968,1.45806451612903,1.40967741935484,1.38709677419355,1.36129032258065,1.3258064516129,1.32903225806452,1.33548387096774,1.3258064516129,1.3258064516129,1.31935483870968,1.33870967741935,1.34838709677419,1.34838709677419,1.36451612903226,1.3741935483871,1.39032258064516,1.39354838709677,1.38709677419355,1.39677419354839,1.39032258064516,1.39032258064516,1.38709677419355,1.38064516129032,1.36774193548387,1.34193548387097,1.34193548387097,1.34516129032258,1.35483870967742,1.36774193548387,1.35161290322581,1.34193548387097,1.34193548387097,1.33870967741935,1.35161290322581,1.34838709677419,1.34516129032258,1.33225806451613,1.3258064516129,1.33548387096774,1.3258064516129,1.34193548387097,1.36774193548387,1.3741935483871,1.36451612903226,1.35483870967742,1.38709677419355,1.42258064516129,1.45161290322581,1.45806451612903,1.42903225806452,1.40322580645161,1.38387096774194,1.36774193548387,1.3741935483871,1.37741935483871,1.38387096774194,1.37096774193548,1.36451612903226,1.37096774193548,1.37741935483871,1.39354838709677,1.32903225806452,1.25483870967742,1.44516129032258,1.92903225806452,2.31290322580645,2.15483870967742,1.65806451612903,1.34193548387097,1.26774193548387,1.27741935483871,1.27741935483871,1.28064516129032,1.3,1.3,1.30645161290323,1.31612903225806,1.32903225806452,1.33870967741935,1.32903225806452,1.33870967741935,1.35161290322581,1.37096774193548,1.39032258064516,1.38387096774194,1.39677419354839,1.41612903225806,1.44838709677419,1.49032258064516,1.50967741935484,1.52903225806452,1.52258064516129,1.51935483870968,1.54516129032258,1.54838709677419,1.52258064516129,1.46451612903226,1.41612903225806,1.39032258064516,1.35806451612903,1.32903225806452,1.30645161290323,1.29677419354839,1.30645161290323,1.31612903225806,1.32903225806452,1.31290322580645,1.29354838709677,1.30645161290323,1.32258064516129,1.33225806451613,1.33870967741935,1.35483870967742,1.37096774193548,1.37096774193548,1.39354838709677,1.40967741935484,1.40322580645161,1.4,1.38387096774194,1.38387096774194,1.36774193548387,1.35806451612903,1.36774193548387,1.34516129032258,1.33225806451613,1.34193548387097,1.36451612903226,1.37741935483871,1.35483870967742,1.35161290322581,1.37096774193548,1.40645161290323,1.42903225806452,1.40322580645161,1.4,1.40322580645161,1.40322580645161,1.41290322580645,1.40967741935484,1.41935483870968,1.42903225806452,1.44838709677419,1.4741935483871,1.48064516129032,1.46129032258065,1.42258064516129,1.39354838709677,1.39354838709677,1.39677419354839,1.40322580645161,1.39032258064516,1.38387096774194,1.39032258064516,1.37741935483871,1.39677419354839,1.40322580645161,1.33225806451613,1.29032258064516,1.5258064516129,2.04838709677419,2.39354838709677,2.18709677419355,1.68064516129032,1.33548387096774,1.26774193548387,1.28064516129032,1.27741935483871,1.28387096774194,1.27741935483871,1.26774193548387,1.2741935483871,1.3,1.30967741935484,1.29354838709677,1.32258064516129,1.34838709677419,1.35806451612903,1.36129032258065,1.36129032258065,1.38709677419355,1.40967741935484,1.43225806451613,1.45161290322581,1.45483870967742,1.48064516129032,1.50967741935484,1.53225806451613,1.53870967741935,1.52258064516129,1.52258064516129,1.5,1.45806451612903,1.41612903225806,1.36129032258065,1.32903225806452,1.30645161290323,1.29354838709677,1.29677419354839,1.29354838709677,1.29354838709677,1.29032258064516,1.29677419354839,1.31290322580645,1.30967741935484,1.31612903225806,1.31290322580645,1.31290322580645,1.33225806451613,1.33548387096774,1.32903225806452,1.32903225806452,1.34193548387097,1.35483870967742,1.35161290322581,1.35161290322581,1.33870967741935,1.33225806451613,1.33870967741935,1.3258064516129,1.33548387096774,1.35806451612903,1.36774193548387,1.35161290322581,1.33870967741935,1.35806451612903,1.36129032258065,1.35161290322581,1.35483870967742,1.35161290322581,1.36129032258065,1.38064516129032,1.37741935483871,1.36129032258065,1.35161290322581,1.37741935483871,1.39354838709677,1.39354838709677,1.40322580645161,1.39354838709677,1.4,1.40645161290323,1.42258064516129,1.44838709677419,1.46129032258065,1.46129032258065,1.43225806451613,1.39677419354839,1.38064516129032,1.3741935483871,1.38387096774194,1.37741935483871,1.35806451612903,1.35483870967742,1.36451612903226,1.39677419354839,1.38064516129032,1.28709677419355,1.27741935483871,1.58387096774194,2.15483870967742,2.44838709677419,2.14516129032258,1.6258064516129,1.32903225806452,1.28709677419355,1.27741935483871,1.24838709677419,1.23870967741935,1.25161290322581,1.29032258064516,1.30645161290323,1.30322580645161,1.30645161290323,1.30967741935484,1.3258064516129,1.3258064516129,1.31612903225806,1.32258064516129,1.34838709677419,1.39354838709677,1.40967741935484,1.40967741935484,1.42258064516129,1.44838709677419,1.49677419354839,1.52258064516129,1.5258064516129,1.52903225806452,1.53548387096774,1.53870967741935,1.5,1.45161290322581,1.41612903225806,1.36451612903226,1.33225806451613,1.31612903225806,1.30645161290323,1.30322580645161,1.3,1.31290322580645,1.31290322580645,1.30322580645161,1.30645161290323,1.30967741935484,1.32903225806452,1.34193548387097,1.34838709677419,1.35483870967742,1.34516129032258,1.34838709677419,1.34838709677419,1.35483870967742,1.36129032258065,1.35483870967742,1.35806451612903,1.36451612903226,1.36774193548387,1.37096774193548,1.36129032258065,1.36451612903226,1.37096774193548,1.3741935483871,1.37096774193548,1.3741935483871,1.4,1.4,1.38709677419355,1.39677419354839,1.39354838709677,1.39677419354839,1.40645161290323,1.40967741935484,1.41290322580645,1.40645161290323,1.41612903225806,1.40645161290323,1.4,1.43225806451613,1.44838709677419,1.45161290322581,1.44193548387097,1.43225806451613,1.44193548387097,1.45161290322581,1.46774193548387,1.45806451612903,1.42903225806452,1.4,1.37096774193548,1.38387096774194,1.39677419354839,1.39354838709677,1.39677419354839,1.40322580645161,1.41612903225806,1.41290322580645,1.35161290322581,1.2741935483871,1.4,1.85806451612903,2.33225806451613,2.35483870967742,1.9,1.42258064516129,1.25806451612903,1.28064516129032,1.2741935483871,1.24193548387097,1.24838709677419,1.29354838709677,1.29677419354839,1.27741935483871,1.27741935483871,1.27741935483871,1.28387096774194,1.30322580645161,1.3258064516129,1.33870967741935,1.33225806451613,1.35806451612903,1.38387096774194,1.40645161290323,1.43225806451613,1.44838709677419,1.47741935483871,1.50322580645161,1.51935483870968,1.52258064516129,1.53548387096774,1.56451612903226,1.53548387096774,1.46774193548387,1.4258064516129,1.37741935483871,1.34516129032258,1.31935483870968,1.28709677419355,1.27096774193548,1.27096774193548,1.3,1.31612903225806,1.3,1.28709677419355,1.29354838709677,1.31935483870968,1.30967741935484,1.30322580645161,1.33548387096774,1.34838709677419,1.34838709677419,1.33870967741935,1.33548387096774,1.34516129032258,1.34193548387097,1.34516129032258,1.34193548387097,1.33225806451613,1.34516129032258,1.35161290322581,1.36129032258065,1.35161290322581,1.34193548387097,1.35483870967742,1.35483870967742,1.35161290322581,1.34193548387097,1.35806451612903,1.38387096774194,1.36451612903226,1.35161290322581,1.35161290322581,1.36129032258065,1.39032258064516,1.38387096774194,1.36129032258065,1.35483870967742,1.39032258064516,1.44193548387097,1.45483870967742,1.45483870967742,1.44516129032258,1.41290322580645,1.38387096774194,1.36774193548387,1.37741935483871,1.38387096774194,1.38064516129032,1.37741935483871,1.35806451612903,1.3741935483871,1.39354838709677,1.35483870967742,1.2741935483871,1.36129032258065,1.80645161290323,2.30322580645161,2.34193548387097,1.90322580645161,1.44516129032258,1.29354838709677,1.31290322580645,1.32258064516129,1.30322580645161,1.28709677419355,1.3,1.31935483870968,1.34193548387097,1.36129032258065,1.35483870967742,1.35806451612903,1.36129032258065,1.35483870967742,1.37096774193548,1.39354838709677,1.4258064516129,1.43548387096774,1.4258064516129,1.43870967741935,1.46129032258065,1.50967741935484,1.53870967741935,1.53548387096774,1.54193548387097,1.54838709677419,1.55806451612903,1.54193548387097,1.49677419354839,1.44838709677419,1.39677419354839,1.36129032258065,1.31935483870968,1.28387096774194,1.27741935483871,1.2741935483871,1.28387096774194,1.27741935483871,1.2741935483871,1.29354838709677,1.3,1.30967741935484,1.31935483870968,1.32903225806452,1.34838709677419,1.34193548387097,1.34516129032258,1.34193548387097,1.33870967741935,1.34193548387097,1.33225806451613,1.34516129032258,1.35161290322581,1.35483870967742,1.36129032258065,1.35806451612903,1.35806451612903,1.35806451612903,1.37096774193548,1.38387096774194,1.36774193548387,1.36129032258065,1.35483870967742,1.35161290322581,1.35483870967742,1.36129032258065,1.37741935483871,1.36774193548387,1.34838709677419,1.37741935483871,1.40967741935484,1.4258064516129,1.43225806451613,1.43870967741935,1.43870967741935,1.40322580645161,1.37741935483871,1.36129032258065,1.35806451612903,1.3741935483871,1.36451612903226,1.35483870967742,1.34838709677419,1.35806451612903,1.38064516129032,1.33225806451613,1.23870967741935,1.31935483870968,1.76774193548387,2.31290322580645,2.38387096774194,1.9258064516129,1.43548387096774,1.25806451612903,1.2741935483871,1.26451612903226,1.23870967741935,1.24193548387097,1.25806451612903,1.27741935483871,1.3,1.3258064516129,1.31935483870968,1.31290322580645,1.34516129032258,1.36129032258065,1.35483870967742,1.34516129032258,1.36451612903226,1.39677419354839,1.40645161290323,1.43548387096774,1.45161290322581,1.46774193548387,1.50322580645161,1.51935483870968,1.52258064516129,1.52258064516129,1.52258064516129,1.51290322580645,1.46774193548387,1.43548387096774,1.40322580645161,1.35161290322581,1.31935483870968,1.30645161290323,1.30645161290323,1.29677419354839,1.29354838709677,1.30322580645161,1.30322580645161,1.30967741935484,1.30322580645161,1.30322580645161,1.32903225806452,1.35161290322581,1.36774193548387,1.35806451612903,1.35161290322581,1.3741935483871,1.36774193548387,1.35161290322581,1.34838709677419,1.35483870967742,1.3741935483871,1.36451612903226,1.36451612903226,1.36774193548387,1.36129032258065,1.36129032258065,1.35483870967742,1.35806451612903,1.35483870967742,1.37096774193548,1.40967741935484,1.41612903225806,1.40322580645161,1.39354838709677,1.40645161290323,1.45161290322581,1.48387096774194,1.49354838709677,1.4741935483871,1.44838709677419,1.43548387096774,1.40645161290323,1.37741935483871,1.36451612903226,1.3741935483871,1.4,1.4,1.40322580645161,1.41612903225806,1.39677419354839,1.30645161290323,1.28064516129032,1.60322580645161,2.16451612903226,2.45483870967742,2.17096774193548,1.6258064516129,1.32258064516129,1.28064516129032,1.29354838709677,1.28709677419355,1.26451612903226,1.28064516129032,1.30322580645161,1.29354838709677,1.2741935483871,1.28064516129032,1.3258064516129,1.33870967741935,1.32258064516129,1.34193548387097,1.36774193548387,1.38709677419355,1.38709677419355,1.4,1.43870967741935,1.45483870967742,1.48064516129032,1.51290322580645,1.52258064516129,1.53870967741935,1.54516129032258,1.54838709677419,1.52903225806452,1.50645161290323,1.48064516129032,1.41612903225806,1.36129032258065,1.32258064516129,1.3,1.30322580645161,1.29354838709677,1.29032258064516,1.29032258064516,1.29677419354839,1.30645161290323,1.30322580645161,1.31612903225806,1.32258064516129,1.31935483870968,1.32258064516129,1.31935483870968,1.33225806451613,1.33870967741935,1.32903225806452,1.33225806451613,1.33870967741935,1.35806451612903,1.34516129032258,1.32258064516129,1.3258064516129,1.32903225806452,1.34193548387097,1.34193548387097,1.33548387096774,1.33870967741935,1.3258064516129,1.33225806451613,1.35483870967742,1.35483870967742,1.36451612903226,1.39677419354839,1.43548387096774,1.41612903225806,1.36451612903226,1.35161290322581,1.34838709677419,1.34838709677419,1.34516129032258,1.34193548387097,1.35161290322581,1.35161290322581,1.37096774193548,1.38387096774194,1.3741935483871,1.30322580645161,1.24838709677419,1.50322580645161,2.02258064516129,2.34838709677419,2.1258064516129,1.60322580645161,1.2741935483871,1.23548387096774,1.2741935483871,1.27741935483871,1.25806451612903,1.26451612903226,1.27741935483871,1.28709677419355,1.30322580645161,1.30645161290323,1.31612903225806,1.30967741935484,1.31612903225806,1.35806451612903,1.37741935483871,1.3741935483871,1.36774193548387,1.39032258064516,1.42903225806452,1.43870967741935,1.46129032258065,1.5,1.51935483870968,1.53870967741935,1.55806451612903,1.57096774193548,1.54516129032258,1.50322580645161,1.46774193548387,1.41935483870968,1.37741935483871,1.34193548387097,1.31935483870968,1.32258064516129,1.30645161290323,1.29677419354839,1.30967741935484,1.3258064516129,1.32903225806452,1.32258064516129,1.34516129032258,1.35483870967742,1.34193548387097,1.34516129032258,1.35483870967742,1.35483870967742,1.35161290322581,1.36451612903226,1.3741935483871,1.36451612903226,1.3741935483871,1.3741935483871,1.36451612903226,1.37096774193548,1.36129032258065,1.35806451612903,1.35806451612903,1.36129032258065,1.37096774193548,1.36774193548387,1.4,1.43870967741935,1.44193548387097,1.40645161290323,1.36129032258065,1.35806451612903,1.36451612903226,1.35806451612903,1.35806451612903,1.35161290322581,1.36451612903226,1.36451612903226,1.36129032258065,1.37741935483871,1.34838709677419,1.26451612903226,1.27741935483871,1.60967741935484,2.12903225806452,2.31290322580645,1.96451612903226,1.49354838709677,1.28709677419355,1.29677419354839,1.31290322580645,1.31290322580645,1.3,1.3,1.33870967741935,1.35806451612903,1.35806451612903,1.36451612903226,1.38064516129032,1.39354838709677,1.38387096774194,1.39032258064516,1.40645161290323,1.42258064516129,1.44193548387097,1.44516129032258,1.46774193548387,1.50322580645161,1.51612903225806,1.53870967741935,1.55806451612903,1.58064516129032,1.5741935483871,1.55806451612903,1.53548387096774,1.49354838709677,1.46451612903226,1.41935483870968,1.36774193548387,1.33225806451613,1.3,1.30322580645161,1.30967741935484,1.31290322580645,1.31935483870968,1.30645161290323,1.31935483870968,1.33548387096774,1.32903225806452,1.32903225806452,1.32258064516129,1.3258064516129,1.33225806451613,1.34516129032258,1.36451612903226,1.36774193548387,1.37741935483871,1.36451612903226,1.34838709677419,1.36129032258065,1.37096774193548,1.3741935483871,1.35806451612903,1.34838709677419,1.35161290322581,1.35483870967742,1.3741935483871,1.38709677419355,1.37741935483871,1.36129032258065,1.36129032258065,1.40322580645161,1.43548387096774,1.44838709677419,1.46451612903226,1.43548387096774,1.38709677419355,1.35806451612903,1.35806451612903,1.37096774193548,1.37096774193548,1.38064516129032,1.3741935483871,1.35161290322581,1.35483870967742,1.3741935483871,1.34516129032258,1.24838709677419,1.36129032258065,1.85806451612903,2.36451612903226,2.3741935483871,1.89677419354839,1.41612903225806,1.24516129032258,1.24838709677419,1.25806451612903,1.23225806451613,1.21612903225806,1.23870967741935,1.25806451612903,1.2741935483871,1.28709677419355,1.28387096774194,1.27096774193548,1.27096774193548,1.30645161290323,1.31612903225806,1.30322580645161,1.3258064516129,1.35806451612903,1.37741935483871,1.4,1.43548387096774,1.47741935483871,1.48709677419355,1.50322580645161,1.50967741935484,1.50645161290323,1.5,1.47096774193548,1.44193548387097,1.39677419354839,1.35161290322581,1.3258064516129,1.29354838709677,1.27741935483871,1.27096774193548,1.26774193548387,1.28387096774194,1.29032258064516,1.30322580645161,1.30645161290323,1.30645161290323,1.32258064516129,1.32258064516129,1.32903225806452,1.33548387096774,1.33870967741935,1.35161290322581,1.34516129032258,1.35161290322581,1.36129032258065,1.36774193548387,1.3741935483871,1.35806451612903,1.35161290322581,1.35161290322581,1.36451612903226,1.37741935483871,1.36451612903226,1.36774193548387,1.36451612903226,1.35806451612903,1.38387096774194,1.39354838709677,1.39032258064516,1.37741935483871,1.38064516129032,1.39354838709677,1.39032258064516,1.41290322580645,1.45161290322581,1.46774193548387,1.46451612903226,1.44193548387097,1.4258064516129,1.40967741935484,1.39032258064516,1.38064516129032,1.38064516129032,1.40967741935484,1.41290322580645,1.38064516129032,1.38064516129032,1.39354838709677,1.36774193548387,1.29354838709677,1.34193548387097,1.73548387096774,2.27096774193548,2.45161290322581,2.08709677419355,1.5741935483871,1.32258064516129,1.28709677419355,1.28709677419355,1.26129032258065,1.24516129032258,1.26774193548387,1.28064516129032,1.29032258064516,1.29677419354839,1.30645161290323,1.31612903225806,1.30967741935484,1.32258064516129,1.33548387096774,1.35161290322581,1.37096774193548,1.38064516129032,1.40645161290323,1.43548387096774,1.46451612903226,1.49032258064516,1.49677419354839,1.5258064516129,1.54193548387097,1.54193548387097,1.54516129032258,1.51612903225806,1.48709677419355,1.45161290322581,1.4,1.36451612903226,1.33225806451613,1.30967741935484,1.29677419354839,1.29354838709677,1.29677419354839,1.29032258064516,1.30967741935484,1.31612903225806,1.30645161290323,1.32903225806452,1.34193548387097,1.33548387096774,1.3258064516129,1.32903225806452,1.35161290322581,1.35483870967742,1.36129032258065,1.36451612903226,1.36129032258065,1.37096774193548,1.36774193548387,1.35806451612903,1.35161290322581,1.35483870967742,1.36774193548387,1.36129032258065,1.35806451612903,1.36129032258065,1.37741935483871,1.39354838709677,1.37096774193548,1.36129032258065,1.37096774193548,1.38387096774194,1.38387096774194,1.36774193548387,1.37741935483871,1.39354838709677,1.39032258064516,1.38709677419355,1.38709677419355,1.40967741935484,1.43548387096774,1.45806451612903,1.48387096774194,1.4741935483871,1.44838709677419,1.41290322580645,1.39677419354839,1.40645161290323,1.39354838709677,1.38709677419355,1.39677419354839,1.39354838709677,1.37741935483871,1.36774193548387,1.39677419354839,1.3741935483871,1.28709677419355,1.38387096774194,1.81612903225806,2.31612903225806,2.35483870967742,1.88387096774194,1.41290322580645,1.24193548387097,1.27096774193548,1.29032258064516,1.2741935483871,1.27741935483871,1.28387096774194,1.29677419354839,1.3,1.3,1.31290322580645,1.31612903225806,1.3258064516129,1.33870967741935,1.35806451612903,1.38064516129032,1.37741935483871,1.39032258064516,1.40322580645161,1.41935483870968,1.45161290322581,1.47741935483871,1.50645161290323,1.5258064516129,1.53870967741935,1.54838709677419,1.53225806451613,1.51612903225806,1.4741935483871,1.41612903225806,1.39032258064516,1.36774193548387,1.34516129032258,1.31612903225806,1.30322580645161,1.31612903225806,1.31935483870968,1.32258064516129,1.30645161290323,1.28709677419355,1.30645161290323,1.32903225806452,1.33548387096774,1.33225806451613,1.33548387096774,1.35483870967742,1.35161290322581,1.35161290322581,1.34838709677419,1.34838709677419,1.36774193548387,1.34838709677419,1.31935483870968,1.31290322580645,1.32903225806452,1.34516129032258,1.34516129032258,1.35483870967742,1.35483870967742,1.34193548387097,1.34516129032258,1.34838709677419,1.35806451612903,1.36129032258065,1.35161290322581,1.36129032258065,1.3741935483871,1.38387096774194,1.37096774193548,1.36774193548387,1.39677419354839,1.42258064516129,1.44838709677419,1.44516129032258,1.40645161290323,1.37096774193548,1.34838709677419,1.35161290322581,1.35483870967742,1.34838709677419,1.35161290322581,1.36129032258065,1.38064516129032,1.37096774193548,1.36451612903226,1.36129032258065,1.28709677419355,1.25483870967742,1.48064516129032,1.94193548387097,2.25806451612903,2.06451612903226,1.61290322580645,1.31290322580645,1.25161290322581,1.28387096774194,1.2741935483871,1.2741935483871,1.29677419354839,1.3,1.3,1.29677419354839,1.31612903225806,1.33225806451613,1.34193548387097,1.35483870967742,1.34838709677419,1.36129032258065,1.38709677419355,1.4,1.40967741935484,1.42903225806452,1.47096774193548,1.50967741935484,1.53548387096774,1.56451612903226,1.5741935483871,1.57096774193548,1.56129032258065,1.55806451612903,1.54193548387097,1.47096774193548,1.42258064516129,1.39354838709677,1.36129032258065,1.34516129032258,1.32903225806452,1.31935483870968,1.31290322580645,1.30322580645161,1.31290322580645,1.32903225806452,1.34838709677419,1.33870967741935,1.33225806451613,1.36129032258065,1.37741935483871,1.39032258064516,1.39032258064516,1.38064516129032,1.4,1.40322580645161,1.39354838709677,1.4,1.43225806451613
1.27741935483871,1.34516129032258,1.33548387096774,1.30322580645161,1.33870967741935,1.36451612903226,1.38709677419355,1.39354838709677,1.40322580645161,1.43225806451613,1.4258064516129,1.43870967741935,1.48387096774194,1.49677419354839,1.49032258064516,1.49032258064516,1.53225806451613,1.52903225806452,1.47741935483871,1.46451612903226,1.43870967741935,1.38709677419355,1.32258064516129,1.29032258064516,1.32258064516129,1.31935483870968,1.31612903225806,1.31612903225806,1.31290322580645,1.34516129032258,1.33548387096774,1.3258064516129,1.3258064516129,1.34516129032258,1.39354838709677,1.38709677419355,1.38064516129032,1.35483870967742,1.33225806451613,1.36451612903226,1.3741935483871,1.38064516129032,1.36451612903226,1.33870967741935,1.37741935483871,1.39677419354839,1.38064516129032,1.37741935483871,1.38709677419355,1.38709677419355,1.35806451612903,1.38064516129032,1.40967741935484,1.41935483870968,1.45161290322581,1.44838709677419,1.43548387096774,1.40967741935484,1.38064516129032,1.39032258064516,1.3741935483871,1.35161290322581,1.34193548387097,1.34838709677419,1.38064516129032,1.4,1.42903225806452,1.4,1.27741935483871,1.25483870967742,1.53548387096774,2.08064516129032,2.35806451612903,2.06129032258065,1.56774193548387,1.30322580645161,1.3,1.31290322580645,1.28387096774194,1.3,1.3,1.28064516129032,1.26774193548387,1.28387096774194,1.31935483870968,1.33548387096774,1.34838709677419,1.33870967741935,1.32258064516129,1.35806451612903,1.38064516129032,1.39032258064516,1.40322580645161,1.43548387096774,1.46774193548387,1.46451612903226,1.48387096774194,1.50967741935484,1.50322580645161,1.51290322580645,1.50322580645161,1.48064516129032,1.43548387096774,1.40645161290323,1.4,1.35806451612903,1.34193548387097,1.33870967741935,1.33870967741935,1.33225806451613,1.28387096774194,1.28064516129032,1.30645161290323,1.3258064516129,1.34838709677419,1.35161290322581,1.35483870967742,1.34838709677419,1.33870967741935,1.35806451612903,1.36129032258065,1.36451612903226,1.34838709677419,1.33548387096774,1.35806451612903,1.35161290322581,1.35806451612903,1.34838709677419,1.32258064516129,1.34516129032258,1.36451612903226,1.36451612903226,1.34516129032258,1.34838709677419,1.39354838709677,1.40645161290323,1.44193548387097,1.44193548387097,1.40645161290323,1.38709677419355,1.33870967741935,1.31612903225806,1.33225806451613,1.34838709677419,1.35806451612903,1.36129032258065,1.38709677419355,1.38064516129032,1.36774193548387,1.37096774193548,1.29354838709677,1.30322580645161,1.6,2.05806451612903,2.26451612903226,1.94838709677419,1.48709677419355,1.25483870967742,1.25161290322581,1.31290322580645,1.31290322580645,1.3,1.3,1.31935483870968,1.33548387096774,1.32258064516129,1.35161290322581,1.39354838709677,1.40322580645161,1.41290322580645,1.40322580645161,1.40967741935484,1.42258064516129,1.43870967741935,1.47096774193548,1.47096774193548,1.49677419354839,1.53548387096774,1.56129032258065,1.58709677419355,1.56451612903226,1.55483870967742,1.54838709677419,1.52258064516129,1.47741935483871,1.41612903225806,1.38387096774194,1.34838709677419,1.32903225806452,1.34838709677419,1.34193548387097,1.33870967741935,1.31612903225806,1.29677419354839,1.32258064516129,1.32258064516129,1.32903225806452,1.34838709677419,1.36451612903226,1.36129032258065,1.3258064516129,1.33225806451613,1.35806451612903,1.36451612903226,1.36451612903226,1.35483870967742,1.37096774193548,1.37096774193548,1.35806451612903,1.36451612903226,1.34516129032258,1.34516129032258,1.34193548387097,1.33548387096774,1.35483870967742,1.35161290322581,1.36451612903226,1.36129032258065,1.34838709677419,1.37096774193548,1.39677419354839,1.42903225806452,1.45483870967742,1.47096774193548,1.45161290322581,1.37096774193548,1.34193548387097,1.35806451612903,1.35161290322581,1.34838709677419,1.34193548387097,1.36129032258065,1.3741935483871,1.38064516129032,1.38064516129032,1.30322580645161,1.2741935483871,1.48709677419355,1.95483870967742,2.34516129032258,2.22903225806452,1.74516129032258,1.35161290322581,1.23548387096774,1.26451612903226,1.24838709677419,1.21612903225806,1.20322580645161,1.23548387096774,1.27741935483871,1.2741935483871,1.27741935483871,1.26451612903226,1.25161290322581,1.27741935483871,1.2741935483871,1.28064516129032,1.28709677419355,1.30645161290323,1.35483870967742,1.38387096774194,1.40967741935484,1.4258064516129,1.43548387096774,1.45806451612903,1.47096774193548,1.50645161290323,1.50967741935484,1.46129032258065,1.4258064516129,1.4,1.40967741935484,1.37741935483871,1.3258064516129,1.32258064516129,1.31290322580645,1.30967741935484,1.31290322580645,1.3258064516129,1.35161290322581,1.33870967741935,1.33225806451613,1.34193548387097,1.36129032258065,1.38709677419355,1.37741935483871,1.37096774193548,1.35483870967742,1.36451612903226,1.40322580645161,1.38064516129032,1.35806451612903,1.36451612903226,1.37096774193548,1.36774193548387,1.35161290322581,1.38064516129032,1.39677419354839,1.3741935483871,1.36774193548387,1.3741935483871,1.4,1.39677419354839,1.38064516129032,1.41290322580645,1.42903225806452,1.42903225806452,1.4258064516129,1.44838709677419,1.49032258064516,1.47096774193548,1.4258064516129,1.38709677419355,1.38387096774194,1.39032258064516,1.36129032258065,1.37096774193548,1.39354838709677,1.39354838709677,1.40645161290323,1.40322580645161,1.36129032258065,1.2741935483871,1.34193548387097,1.75483870967742,2.25806451612903,2.40322580645161,2.01935483870968,1.50967741935484,1.29032258064516,1.28387096774194,1.30322580645161,1.29354838709677,1.29354838709677,1.30967741935484,1.28709677419355,1.29354838709677,1.31290322580645,1.31290322580645,1.31935483870968,1.31935483870968,1.34838709677419,1.3741935483871,1.37741935483871,1.39354838709677,1.40322580645161,1.42903225806452,1.44516129032258,1.45161290322581,1.48387096774194,1.48709677419355,1.49677419354839,1.51935483870968,1.53548387096774,1.53548387096774,1.48387096774194,1.45806451612903,1.4258064516129,1.35806451612903,1.33225806451613,1.31935483870968,1.30967741935484,1.3,1.29677419354839,1.32258064516129,1.32258064516129,1.33548387096774,1.35483870967742,1.37096774193548,1.38064516129032,1.35483870967742,1.35483870967742,1.36451612903226,1.36774193548387,1.38709677419355,1.38064516129032,1.38387096774194,1.38709677419355,1.3741935483871,1.38387096774194,1.38064516129032,1.38387096774194,1.37741935483871,1.36129032258065,1.36129032258065,1.33225806451613,1.33225806451613,1.34516129032258,1.34838709677419,1.36774193548387,1.36129032258065,1.36129032258065,1.36774193548387,1.37741935483871,1.40967741935484,1.41935483870968,1.42903225806452,1.42258064516129,1.38709677419355,1.36774193548387,1.34516129032258,1.33548387096774,1.34193548387097,1.35161290322581,1.3741935483871,1.37096774193548,1.38064516129032,1.39032258064516,1.34838709677419,1.26451612903226,1.25806451612903,1.59032258064516,2.12903225806452,2.36774193548387,2.0741935483871,1.55483870967742,1.25483870967742,1.23548387096774,1.28709677419355,1.29677419354839,1.25161290322581,1.24193548387097,1.26129032258065,1.27096774193548,1.28709677419355,1.29354838709677,1.30645161290323,1.30645161290323,1.30322580645161,1.31612903225806,1.30322580645161,1.31935483870968,1.36451612903226,1.39354838709677,1.40967741935484,1.41290322580645,1.45161290322581,1.47741935483871,1.48064516129032,1.49354838709677,1.48709677419355,1.49677419354839,1.50967741935484,1.4741935483871,1.40967741935484,1.34516129032258,1.33548387096774,1.33870967741935,1.3258064516129,1.31935483870968,1.3,1.30645161290323,1.32903225806452,1.32903225806452,1.33870967741935,1.34838709677419,1.3741935483871,1.36774193548387,1.33870967741935,1.34838709677419,1.35483870967742,1.3741935483871,1.36451612903226,1.34193548387097,1.35806451612903,1.36451612903226,1.35806451612903,1.33548387096774,1.34516129032258,1.40322580645161,1.39354838709677,1.36129032258065,1.36129032258065,1.36774193548387,1.38064516129032,1.3741935483871,1.38709677419355,1.38064516129032,1.37741935483871,1.42903225806452,1.47096774193548,1.48064516129032,1.44516129032258,1.40967741935484,1.40967741935484,1.38387096774194,1.38064516129032,1.38709677419355,1.38064516129032,1.37096774193548,1.36129032258065,1.38387096774194,1.39677419354839,1.36774193548387,1.30645161290323,1.28387096774194,1.56129032258065,2.06451612903226,2.3,2.00645161290323,1.50967741935484,1.27096774193548,1.28064516129032,1.31935483870968,1.3258064516129,1.30322580645161,1.30967741935484,1.3258064516129,1.32258064516129,1.31935483870968,1.31935483870968,1.36774193548387,1.39032258064516,1.38387096774194,1.40967741935484,1.40322580645161,1.39032258064516,1.40322580645161,1.43548387096774,1.48064516129032,1.47741935483871,1.47096774193548,1.49032258064516,1.51935483870968,1.54516129032258,1.54193548387097,1.55483870967742,1.52903225806452,1.46129032258065,1.4258064516129,1.38709677419355,1.35806451612903,1.32258064516129,1.3,1.31612903225806,1.29677419354839,1.27096774193548,1.26129032258065,1.27096774193548,1.30645161290323,1.30645161290323,1.32258064516129,1.3258064516129,1.30645161290323,1.31935483870968,1.33870967741935,1.35161290322581,1.33870967741935,1.32903225806452,1.34838709677419,1.33225806451613,1.33225806451613,1.36129032258065,1.37741935483871,1.3741935483871,1.35161290322581,1.37741935483871,1.39677419354839,1.38064516129032,1.38387096774194,1.37741935483871,1.38387096774194,1.38064516129032,1.37096774193548,1.41290322580645,1.45806451612903,1.48709677419355,1.47741935483871,1.42258064516129,1.39354838709677,1.38709677419355,1.38709677419355,1.37096774193548,1.36129032258065,1.37741935483871,1.37741935483871,1.39032258064516,1.39677419354839,1.37741935483871,1.31935483870968,1.28387096774194,1.52903225806452,2.03870967741935,2.37096774193548,2.17741935483871,1.66129032258065,1.32903225806452,1.25483870967742,1.26451612903226,1.28709677419355,1.2741935483871,1.26774193548387,1.2741935483871,1.27741935483871,1.28387096774194,1.28387096774194,1.31290322580645,1.32258064516129,1.30645161290323,1.3258064516129,1.35161290322581,1.37741935483871,1.38064516129032,1.38064516129032,1.43548387096774,1.45806451612903,1.44193548387097,1.44193548387097,1.47741935483871,1.52903225806452,1.5258064516129,1.50322580645161,1.48064516129032,1.45806451612903,1.45161290322581,1.41290322580645,1.36451612903226,1.31935483870968,1.30967741935484,1.34838709677419,1.33870967741935,1.30645161290323,1.31290322580645,1.34838709677419,1.38064516129032,1.37096774193548,1.3741935483871,1.38064516129032,1.38387096774194,1.40967741935484,1.39677419354839,1.3741935483871,1.38064516129032,1.39032258064516,1.39677419354839,1.36451612903226,1.34193548387097,1.33870967741935,1.34516129032258,1.36451612903226,1.34193548387097,1.33225806451613,1.34516129032258,1.35483870967742,1.35483870967742,1.32903225806452,1.33225806451613,1.35806451612903,1.36451612903226,1.35483870967742,1.3258064516129,1.34193548387097,1.39354838709677,1.42258064516129,1.42258064516129,1.40967741935484,1.40967741935484,1.39032258064516,1.35483870967742,1.35161290322581,1.34193548387097,1.32903225806452,1.3258064516129,1.34838709677419,1.36451612903226,1.35806451612903,1.37741935483871,1.3258064516129,1.23870967741935,1.40322580645161,1.88064516129032,2.33225806451613,2.27096774193548,1.78709677419355,1.38064516129032,1.23870967741935,1.26451612903226,1.28387096774194,1.26129032258065,1.24516129032258,1.21935483870968,1.24193548387097,1.28709677419355,1.30967741935484,1.31612903225806,1.29032258064516,1.30967741935484,1.33870967741935,1.32903225806452,1.33548387096774,1.36129032258065,1.39354838709677,1.4,1.42258064516129,1.46451612903226,1.45483870967742,1.45806451612903,1.47096774193548,1.4741935483871,1.50322580645161,1.50645161290323,1.47096774193548,1.42258064516129,1.38709677419355,1.3741935483871,1.34193548387097,1.33225806451613,1.31935483870968,1.30322580645161,1.30967741935484,1.30645161290323,1.32258064516129,1.33870967741935,1.33548387096774,1.34838709677419,1.35161290322581,1.3741935483871,1.39032258064516,1.36451612903226,1.36129032258065,1.38709677419355,1.40967741935484,1.38064516129032,1.35483870967742,1.38387096774194,1.39032258064516,1.38064516129032,1.38064516129032,1.39032258064516,1.41290322580645,1.39032258064516,1.3741935483871,1.38387096774194,1.4,1.41290322580645,1.40322580645161,1.41290322580645,1.41612903225806,1.40967741935484,1.41612903225806,1.40967741935484,1.42903225806452,1.45483870967742,1.47096774193548,1.50645161290323,1.49032258064516,1.44838709677419,1.40967741935484,1.40645161290323,1.43548387096774,1.42258064516129,1.39677419354839,1.39032258064516,1.38709677419355,1.4,1.40645161290323,1.39354838709677,1.31935483870968,1.3,1.60322580645161,2.11612903225806,2.39354838709677,2.14516129032258,1.64516129032258,1.34838709677419,1.29354838709677,1.32258064516129,1.30645161290323,1.2741935483871,1.2741935483871,1.27741935483871,1.30645161290323,1.3258064516129,1.31935483870968,1.32903225806452,1.33548387096774,1.34516129032258,1.34193548387097,1.33225806451613,1.36451612903226,1.39677419354839,1.42258064516129,1.42903225806452,1.43548387096774,1.47096774193548,1.47741935483871,1.50322580645161,1.52903225806452,1.50967741935484,1.49677419354839,1.48064516129032,1.47741935483871,1.44193548387097,1.3741935483871,1.33870967741935,1.3258064516129,1.33548387096774,1.31290322580645,1.28064516129032,1.30322580645161,1.3258064516129,1.33225806451613,1.32258064516129,1.32258064516129,1.34516129032258,1.33225806451613,1.32903225806452,1.34193548387097,1.33870967741935,1.34193548387097,1.34193548387097,1.36129032258065,1.36774193548387,1.34516129032258,1.35161290322581,1.33870967741935,1.3258064516129,1.32258064516129,1.31290322580645,1.3258064516129,1.34516129032258,1.36129032258065,1.34516129032258,1.33225806451613,1.35161290322581,1.33870967741935,1.33870967741935,1.35161290322581,1.3741935483871,1.4,1.41290322580645,1.44516129032258,1.43870967741935,1.3741935483871,1.33225806451613,1.30967741935484,1.32258064516129,1.33870967741935,1.33225806451613,1.32258064516129,1.31612903225806,1.34193548387097,1.34838709677419,1.32258064516129,1.28387096774194,1.27741935483871,1.56451612903226,2.05806451612903,2.25806451612903,1.93548387096774,1.46129032258065,1.24193548387097,1.23548387096774,1.25806451612903,1.27741935483871,1.27096774193548,1.27096774193548,1.28387096774194,1.3,1.30967741935484,1.28709677419355,1.28387096774194,1.30967741935484,1.34193548387097,1.3741935483871,1.35806451612903,1.37096774193548,1.40645161290323,1.40322580645161,1.41612903225806,1.45161290322581,1.49677419354839,1.49677419354839,1.47741935483871,1.49354838709677,1.51612903225806,1.52258064516129,1.48709677419355,1.43548387096774,1.41290322580645,1.38387096774194,1.34516129032258,1.32258064516129,1.30967741935484,1.31290322580645,1.31612903225806,1.33548387096774,1.35161290322581,1.34516129032258,1.35161290322581,1.34516129032258,1.36451612903226,1.38709677419355,1.39032258064516,1.39354838709677,1.38709677419355,1.38387096774194,1.38064516129032,1.38709677419355,1.42258064516129,1.41612903225806,1.40645161290323,1.4,1.38064516129032,1.39354838709677,1.40322580645161,1.40645161290323,1.40322580645161,1.40645161290323,1.41612903225806,1.40967741935484,1.41612903225806,1.44838709677419,1.4741935483871,1.49354838709677,1.47741935483871,1.46129032258065,1.43548387096774,1.4,1.39354838709677,1.39032258064516,1.40967741935484,1.42258064516129,1.41612903225806,1.4,1.38064516129032,1.40967741935484,1.38387096774194,1.27741935483871,1.38709677419355,1.83548387096774,2.29354838709677,2.26129032258065,1.79032258064516,1.39677419354839,1.29032258064516,1.30645161290323,1.30645161290323,1.28709677419355,1.3,1.30645161290323,1.31612903225806,1.32903225806452,1.33870967741935,1.35806451612903,1.35483870967742,1.35483870967742,1.34838709677419,1.33548387096774,1.34838709677419,1.35483870967742,1.37096774193548,1.39677419354839,1.41935483870968,1.45161290322581,1.4741935483871,1.48709677419355,1.48709677419355,1.5,1.50645161290323,1.45161290322581,1.40645161290323,1.39032258064516,1.3741935483871,1.35161290322581,1.30322580645161,1.27741935483871,1.27741935483871,1.2741935483871,1.26451612903226,1.24516129032258,1.27741935483871,1.33870967741935,1.33870967741935,1.31935483870968,1.32258064516129,1.33225806451613,1.32903225806452,1.33548387096774,1.35483870967742,1.34193548387097,1.34193548387097,1.36129032258065,1.36774193548387,1.35806451612903,1.33870967741935,1.34193548387097,1.35161290322581,1.35806451612903,1.36129032258065,1.35161290322581,1.37096774193548,1.38387096774194,1.36451612903226,1.35161290322581,1.34516129032258,1.35483870967742,1.36774193548387,1.37741935483871,1.41935483870968,1.45161290322581,1.46451612903226,1.45161290322581,1.41290322580645,1.39677419354839,1.37096774193548,1.35161290322581,1.34193548387097,1.34838709677419,1.3741935483871,1.38709677419355,1.3741935483871,1.36129032258065,1.36129032258065,1.3258064516129,1.26451612903226,1.40645161290323,1.84838709677419,2.28709677419355,2.29032258064516,1.84516129032258,1.4258064516129,1.27096774193548,1.26129032258065,1.26774193548387,1.25161290322581,1.25806451612903,1.27096774193548,1.26129032258065,1.27096774193548,1.29354838709677,1.30645161290323,1.29677419354839,1.29677419354839,1.33225806451613,1.34516129032258,1.36774193548387,1.4,1.40967741935484,1.40645161290323,1.39677419354839,1.4258064516129,1.48064516129032,1.50322580645161,1.50967741935484,1.50967741935484,1.51290322580645,1.50645161290323,1.48064516129032,1.45161290322581,1.4,1.37096774193548,1.36774193548387,1.34193548387097,1.31935483870968,1.31612903225806,1.3258064516129,1.33225806451613,1.33548387096774,1.34838709677419,1.33870967741935,1.33870967741935,1.34193548387097,1.34516129032258,1.37741935483871,1.4,1.40645161290323,1.39677419354839,1.3741935483871,1.39354838709677,1.4,1.38709677419355,1.39354838709677,1.39677419354839,1.40645161290323,1.41612903225806,1.40645161290323,1.38709677419355,1.39677419354839,1.40967741935484,1.37741935483871,1.36129032258065,1.38064516129032,1.39354838709677,1.39032258064516,1.36451612903226,1.3741935483871,1.41935483870968,1.46451612903226,1.48387096774194,1.45483870967742,1.4258064516129,1.40645161290323,1.38709677419355,1.37741935483871,1.37096774193548,1.3741935483871,1.37741935483871,1.36774193548387,1.3741935483871,1.38709677419355,1.38387096774194,1.30967741935484,1.28064516129032,1.58064516129032,2.11935483870968,2.40967741935484,2.1258064516129,1.60645161290323,1.3258064516129,1.28387096774194,1.28709677419355,1.27741935483871,1.26774193548387,1.2741935483871,1.25806451612903,1.25483870967742,1.27096774193548,1.28387096774194,1.29677419354839,1.29677419354839,1.31612903225806,1.34516129032258,1.35161290322581,1.34838709677419,1.35483870967742,1.39032258064516,1.41290322580645,1.40645161290323,1.41612903225806,1.44193548387097,1.47741935483871,1.49032258064516,1.47741935483871,1.4741935483871,1.47096774193548,1.45806451612903,1.4258064516129,1.3741935483871,1.33548387096774,1.31290322580645,1.30967741935484,1.3,1.29677419354839,1.31290322580645,1.31935483870968,1.33548387096774,1.32258064516129,1.29677419354839,1.31935483870968,1.34838709677419,1.35483870967742,1.34193548387097,1.34516129032258,1.36774193548387,1.37096774193548,1.38387096774194,1.39032258064516,1.36774193548387,1.37096774193548,1.38709677419355,1.38709677419355,1.36451612903226,1.36774193548387,1.39677419354839,1.39354838709677,1.3741935483871,1.3741935483871,1.38387096774194,1.39677419354839,1.38387096774194,1.38064516129032,1.39032258064516,1.38064516129032,1.3741935483871,1.37096774193548,1.39032258064516,1.4258064516129,1.44516129032258,1.43225806451613,1.39354838709677,1.37741935483871,1.36774193548387,1.35161290322581,1.35806451612903,1.35806451612903,1.34838709677419,1.34193548387097,1.34516129032258,1.34838709677419,1.3258064516129,1.25806451612903,1.2258064516129,1.44516129032258,1.96451612903226,2.34838709677419,2.18709677419355,1.67741935483871,1.33548387096774,1.29677419354839,1.29354838709677,1.25161290322581,1.28387096774194,1.34838709677419,1.36774193548387,1.34193548387097,1.33548387096774,1.34193548387097,1.34193548387097,1.34838709677419,1.34838709677419,1.35483870967742,1.36129032258065,1.36451612903226,1.40322580645161,1.41612903225806,1.40645161290323,1.4258064516129,1.44516129032258,1.46129032258065,1.46451612903226,1.48709677419355,1.5258064516129,1.51290322580645,1.46774193548387,1.43225806451613,1.41935483870968,1.39677419354839,1.34516129032258,1.30645161290323,1.29032258064516,1.3,1.31612903225806,1.31935483870968,1.3258064516129,1.3258064516129,1.34193548387097,1.35806451612903,1.36129032258065,1.37741935483871,1.39354838709677,1.4,1.4,1.41290322580645,1.42903225806452,1.42258064516129,1.43225806451613,1.43870967741935,1.4258064516129,1.45161290322581
1.48387096774194,1.29354838709677,1.30645161290323,1.3,1.26451612903226,1.25483870967742,1.2741935483871,1.31290322580645,1.30967741935484,1.29032258064516,1.30645161290323,1.33548387096774,1.34838709677419,1.34193548387097,1.34838709677419,1.37096774193548,1.3741935483871,1.39354838709677,1.40967741935484,1.42903225806452,1.45806451612903,1.48387096774194,1.50645161290323,1.51290322580645,1.51935483870968,1.53225806451613,1.51935483870968,1.50967741935484,1.4741935483871,1.42258064516129,1.38387096774194,1.35161290322581,1.33870967741935,1.32903225806452,1.31935483870968,1.30322580645161,1.28709677419355,1.30322580645161,1.3,1.30322580645161,1.33225806451613,1.33225806451613,1.33225806451613,1.33548387096774,1.34838709677419,1.36451612903226,1.36129032258065,1.35161290322581,1.33870967741935,1.35161290322581,1.36451612903226,1.36129032258065,1.35806451612903,1.34193548387097,1.33548387096774,1.34193548387097,1.34193548387097,1.36451612903226,1.38387096774194,1.38064516129032,1.36451612903226,1.34516129032258,1.35806451612903,1.3741935483871,1.38064516129032,1.37741935483871,1.35483870967742,1.36451612903226,1.39032258064516,1.41612903225806,1.44516129032258,1.46774193548387,1.48709677419355,1.46774193548387,1.41935483870968,1.39032258064516,1.38064516129032,1.39677419354839,1.39354838709677,1.38064516129032,1.37741935483871,1.37741935483871,1.40645161290323,1.41935483870968,1.35483870967742,1.2741935483871,1.42258064516129,1.93548387096774,2.42258064516129,2.38064516129032,1.88709677419355,1.44838709677419,1.30967741935484,1.3,1.29032258064516,1.28709677419355,1.29032258064516,1.3,1.29032258064516,1.29032258064516,1.32258064516129,1.33548387096774,1.33870967741935,1.33870967741935,1.35806451612903,1.38064516129032,1.38064516129032,1.4,1.40645161290323,1.41290322580645,1.44838709677419,1.48709677419355,1.52258064516129,1.53870967741935,1.56774193548387,1.59677419354839,1.58387096774194,1.55161290322581,1.51290322580645,1.5,1.48064516129032,1.41612903225806,1.36451612903226,1.34193548387097,1.34838709677419,1.35483870967742,1.33225806451613,1.33870967741935,1.34838709677419,1.34193548387097,1.35161290322581,1.35161290322581,1.36451612903226,1.38064516129032,1.38709677419355,1.38709677419355,1.37096774193548,1.38709677419355,1.40322580645161,1.39677419354839,1.39032258064516,1.37741935483871,1.38387096774194,1.38064516129032,1.38387096774194,1.39677419354839,1.38709677419355,1.37741935483871,1.35806451612903,1.36129032258065,1.38064516129032,1.3741935483871,1.37741935483871,1.38387096774194,1.38064516129032,1.39032258064516,1.4,1.40322580645161,1.38064516129032,1.36774193548387,1.3741935483871,1.36774193548387,1.36774193548387,1.34193548387097,1.31290322580645,1.30967741935484,1.30645161290323,1.31612903225806,1.3258064516129,1.32903225806452,1.32258064516129,1.31290322580645,1.34193548387097,1.33225806451613,1.23870967741935,1.19354838709677,1.42258064516129,1.94193548387097,2.31290322580645,2.13548387096774,1.63548387096774,1.27741935483871,1.21612903225806,1.24516129032258,1.24193548387097,1.23548387096774,1.24193548387097,1.26451612903226,1.28064516129032,1.29677419354839,1.30322580645161,1.30645161290323,1.32903225806452,1.33870967741935,1.33870967741935,1.34516129032258,1.35161290322581,1.37096774193548,1.39032258064516,1.42903225806452,1.45806451612903,1.46774193548387,1.49677419354839,1.53548387096774,1.55483870967742,1.55483870967742,1.53225806451613,1.5258064516129,1.5,1.45483870967742,1.41612903225806,1.3741935483871,1.36129032258065,1.32258064516129,1.28709677419355,1.29032258064516,1.30322580645161,1.31935483870968,1.31935483870968,1.31290322580645,1.31290322580645,1.30645161290323,1.32258064516129,1.32903225806452,1.31612903225806,1.31612903225806,1.32903225806452,1.35161290322581,1.34516129032258,1.33870967741935,1.33548387096774,1.32258064516129,1.34516129032258,1.34516129032258,1.3258064516129,1.31612903225806,1.32258064516129,1.35483870967742,1.35483870967742,1.33870967741935,1.35161290322581,1.37741935483871,1.41290322580645,1.4258064516129,1.41612903225806,1.4,1.3741935483871,1.35806451612903,1.3258064516129,1.31612903225806,1.33548387096774,1.35483870967742,1.37096774193548,1.34516129032258,1.3258064516129,1.34516129032258,1.35483870967742,1.30967741935484,1.24838709677419,1.40645161290323,1.83548387096774,2.13870967741935,2.01290322580645,1.58387096774194,1.27096774193548,1.21935483870968,1.27096774193548,1.31612903225806,1.31290322580645,1.29354838709677,1.29677419354839,1.30967741935484,1.35161290322581,1.35806451612903,1.33225806451613,1.33870967741935,1.36451612903226,1.4,1.40645161290323,1.41612903225806,1.43548387096774,1.44838709677419,1.47741935483871,1.50645161290323,1.52903225806452,1.55161290322581,1.56451612903226,1.58064516129032,1.58387096774194,1.58387096774194,1.58064516129032,1.53548387096774,1.48709677419355,1.43548387096774,1.39354838709677,1.36451612903226,1.35806451612903,1.37741935483871,1.36774193548387,1.36129032258065,1.3741935483871,1.36774193548387,1.36129032258065,1.36451612903226,1.39677419354839,1.42258064516129,1.41290322580645,1.4258064516129,1.43225806451613,1.42258064516129,1.42258064516129,1.42903225806452,1.44193548387097,1.43548387096774,1.41290322580645,1.41290322580645,1.40645161290323,1.40645161290323,1.39677419354839,1.4,1.40645161290323,1.4,1.39677419354839,1.4,1.4258064516129,1.46451612903226,1.47096774193548,1.46451612903226,1.43548387096774,1.40322580645161,1.38064516129032,1.34516129032258,1.34193548387097,1.35806451612903,1.38064516129032,1.38387096774194,1.34516129032258,1.34193548387097,1.37096774193548,1.34838709677419,1.26451612903226,1.28709677419355,1.64516129032258,2.1741935483871,2.38387096774194,2.04516129032258,1.5258064516129,1.26451612903226,1.23548387096774,1.24516129032258,1.23870967741935,1.22258064516129,1.24516129032258,1.26451612903226,1.26129032258065,1.27096774193548,1.2741935483871,1.29354838709677,1.30322580645161,1.3,1.30645161290323,1.31935483870968,1.34193548387097,1.35161290322581,1.3741935483871,1.41935483870968,1.45806451612903,1.48387096774194,1.49032258064516,1.50322580645161,1.53225806451613,1.5258064516129,1.51935483870968,1.50967741935484,1.48064516129032,1.4258064516129,1.35483870967742,1.32903225806452,1.32258064516129,1.30322580645161,1.28387096774194,1.27096774193548,1.29032258064516,1.30322580645161,1.29677419354839,1.28387096774194,1.26774193548387,1.29032258064516,1.30967741935484,1.30967741935484,1.31612903225806,1.32903225806452,1.33870967741935,1.33225806451613,1.3258064516129,1.33225806451613,1.32903225806452,1.33870967741935,1.31935483870968,1.30645161290323,1.32903225806452,1.34193548387097,1.34193548387097,1.3258064516129,1.3258064516129,1.33870967741935,1.35483870967742,1.3741935483871,1.34838709677419,1.34193548387097,1.38064516129032,1.40967741935484,1.43548387096774,1.43225806451613,1.41612903225806,1.40967741935484,1.37741935483871,1.35483870967742,1.34838709677419,1.36451612903226,1.3741935483871,1.36129032258065,1.36451612903226,1.35483870967742,1.35483870967742,1.3741935483871,1.31935483870968,1.27741935483871,1.49032258064516,2.00967741935484,2.43225806451613,2.29354838709677,1.7741935483871,1.36129032258065,1.23548387096774,1.26129032258065,1.26774193548387,1.27096774193548,1.26451612903226,1.25806451612903,1.28064516129032,1.29032258064516,1.29677419354839,1.3,1.31612903225806,1.33225806451613,1.3258064516129,1.32903225806452,1.34193548387097,1.37096774193548,1.40645161290323,1.41935483870968,1.44193548387097,1.46451612903226,1.48709677419355,1.50322580645161,1.5,1.52903225806452,1.55161290322581,1.5258064516129,1.49032258064516,1.45806451612903,1.4258064516129,1.37096774193548,1.33225806451613,1.3258064516129,1.30322580645161,1.3,1.30645161290323,1.31290322580645,1.31612903225806,1.31612903225806,1.34516129032258,1.36129032258065,1.35161290322581,1.35161290322581,1.36129032258065,1.3741935483871,1.35806451612903,1.35161290322581,1.3741935483871,1.36774193548387,1.36451612903226,1.36129032258065,1.3741935483871,1.38387096774194,1.38064516129032,1.39354838709677,1.38387096774194,1.35806451612903,1.35483870967742,1.36451612903226,1.37741935483871,1.38387096774194,1.39032258064516,1.38709677419355,1.3741935483871,1.38387096774194,1.39354838709677,1.4,1.40967741935484,1.41290322580645,1.44516129032258,1.4741935483871,1.49677419354839,1.49354838709677,1.44516129032258,1.40322580645161,1.38064516129032,1.38064516129032,1.39677419354839,1.40645161290323,1.40967741935484,1.39032258064516,1.36774193548387,1.3741935483871,1.39677419354839,1.39354838709677,1.30322580645161,1.33548387096774,1.73548387096774,2.29677419354839,2.46774193548387,2.05483870967742,1.52258064516129,1.30645161290323,1.29677419354839,1.27741935483871,1.24516129032258,1.25806451612903,1.28709677419355,1.28064516129032,1.27741935483871,1.28387096774194,1.29032258064516,1.30322580645161,1.31290322580645,1.32903225806452,1.32258064516129,1.32258064516129,1.36129032258065,1.38064516129032,1.39032258064516,1.39677419354839,1.42258064516129,1.46451612903226,1.49032258064516,1.51290322580645,1.50967741935484,1.5,1.51290322580645,1.50645161290323,1.47741935483871,1.41935483870968,1.37741935483871,1.35806451612903,1.32903225806452,1.31612903225806,1.30322580645161,1.29354838709677,1.29354838709677,1.29354838709677,1.30645161290323,1.31612903225806,1.32258064516129,1.33548387096774,1.32258064516129,1.32258064516129,1.34193548387097,1.36451612903226,1.37096774193548,1.34838709677419,1.33548387096774,1.33548387096774,1.35161290322581,1.36451612903226,1.34838709677419,1.35483870967742,1.36451612903226,1.35483870967742,1.34516129032258,1.33870967741935,1.34193548387097,1.34193548387097,1.35161290322581,1.36451612903226,1.35806451612903,1.36774193548387,1.36774193548387,1.36774193548387,1.37741935483871,1.37096774193548,1.3741935483871,1.36129032258065,1.36129032258065,1.38709677419355,1.39032258064516,1.39677419354839,1.38709677419355,1.36774193548387,1.38709677419355,1.43225806451613,1.47096774193548,1.46451612903226,1.45806451612903,1.45806451612903,1.42258064516129,1.38709677419355,1.37741935483871,1.39677419354839,1.40645161290323,1.39032258064516,1.39677419354839,1.39677419354839,1.4,1.39354838709677,1.3258064516129,1.2741935483871,1.45161290322581,1.95806451612903,2.4258064516129,2.34516129032258,1.84193548387097,1.41612903225806,1.28387096774194,1.30322580645161,1.30967741935484,1.30967741935484,1.29032258064516,1.28387096774194,1.29032258064516,1.28064516129032,1.29354838709677,1.30645161290323,1.30645161290323,1.30967741935484,1.31290322580645,1.34516129032258,1.35483870967742,1.34838709677419,1.37096774193548,1.38387096774194,1.41612903225806,1.45161290322581,1.47741935483871,1.49354838709677,1.50967741935484,1.54838709677419,1.56129032258065,1.55483870967742,1.55161290322581,1.50322580645161,1.44193548387097,1.39354838709677,1.37096774193548,1.34516129032258,1.30967741935484,1.31290322580645,1.31935483870968,1.31290322580645,1.30967741935484,1.30322580645161,1.3258064516129,1.33225806451613,1.33225806451613,1.34838709677419,1.35806451612903,1.37741935483871,1.37741935483871,1.3741935483871,1.38387096774194,1.37741935483871,1.37741935483871,1.3741935483871,1.36774193548387,1.35806451612903,1.33225806451613,1.33225806451613,1.33225806451613,1.34193548387097,1.35806451612903,1.33870967741935,1.33225806451613,1.32903225806452,1.32903225806452,1.33870967741935,1.33548387096774,1.33548387096774,1.31935483870968,1.31612903225806,1.3258064516129,1.31935483870968,1.33225806451613,1.35806451612903,1.36451612903226,1.35806451612903,1.34838709677419,1.37741935483871,1.41612903225806,1.44516129032258,1.45161290322581,1.42258064516129,1.39677419354839,1.3741935483871,1.36129032258065,1.36774193548387,1.37096774193548,1.37741935483871,1.36451612903226,1.35806451612903,1.36774193548387,1.37096774193548,1.38709677419355,1.32258064516129,1.24838709677419,1.43870967741935,1.9258064516129,2.30967741935484,2.15161290322581,1.65483870967742,1.33870967741935,1.26451612903226,1.2741935483871,1.2741935483871,1.27741935483871,1.29677419354839,1.3,1.30322580645161,1.31290322580645,1.3258064516129,1.33548387096774,1.3258064516129,1.33548387096774,1.34838709677419,1.37096774193548,1.38709677419355,1.38064516129032,1.39677419354839,1.41612903225806,1.44838709677419,1.48709677419355,1.50967741935484,1.52903225806452,1.52258064516129,1.51935483870968,1.54516129032258,1.54838709677419,1.52258064516129,1.46451612903226,1.41612903225806,1.39032258064516,1.35806451612903,1.32903225806452,1.30967741935484,1.29677419354839,1.30645161290323,1.31935483870968,1.33225806451613,1.31290322580645,1.29354838709677,1.30967741935484,1.3258064516129,1.33548387096774,1.34193548387097,1.35806451612903,1.3741935483871,1.3741935483871,1.39677419354839,1.41290322580645,1.40645161290323,1.40322580645161,1.38709677419355,1.38709677419355,1.37096774193548,1.36129032258065,1.36774193548387,1.34838709677419,1.33548387096774,1.34193548387097,1.36451612903226,1.38064516129032,1.35806451612903,1.35161290322581,1.3741935483871,1.40967741935484,1.42903225806452,1.40645161290323,1.4,1.40645161290323,1.40645161290323,1.41290322580645,1.41290322580645,1.42258064516129,1.43225806451613,1.45161290322581,1.47741935483871,1.48064516129032,1.46451612903226,1.4258064516129,1.39677419354839,1.39354838709677,1.4,1.40645161290323,1.39354838709677,1.38709677419355,1.39354838709677,1.38064516129032,1.4,1.40645161290323,1.33225806451613,1.29354838709677,1.52903225806452,2.05161290322581,2.39677419354839,2.18709677419355,1.68387096774194,1.33870967741935,1.27096774193548,1.28387096774194,1.28064516129032,1.28709677419355,1.28064516129032,1.27096774193548,1.27741935483871,1.30322580645161,1.30967741935484,1.29677419354839,1.3258064516129,1.35161290322581,1.36129032258065,1.36129032258065,1.36451612903226,1.39032258064516,1.41290322580645,1.43548387096774,1.45483870967742,1.45806451612903,1.48387096774194,1.51290322580645,1.53225806451613,1.53870967741935,1.5258064516129,1.52258064516129,1.5,1.46129032258065,1.41935483870968,1.36129032258065,1.33225806451613,1.30967741935484,1.29354838709677,1.3,1.29677419354839,1.29677419354839,1.29032258064516,1.29677419354839,1.31290322580645,1.30967741935484,1.31612903225806,1.31612903225806,1.31290322580645,1.33225806451613,1.33548387096774,1.32903225806452,1.32903225806452,1.34193548387097,1.35483870967742,1.35161290322581,1.35161290322581,1.34193548387097,1.33225806451613,1.33870967741935,1.32903225806452,1.33548387096774,1.35806451612903,1.36774193548387,1.35483870967742,1.33870967741935,1.35806451612903,1.36129032258065,1.35161290322581,1.35483870967742,1.35161290322581,1.36451612903226,1.38064516129032,1.37741935483871,1.36129032258065,1.35161290322581,1.38064516129032,1.39354838709677,1.39354838709677,1.40322580645161,1.39354838709677,1.4,1.40645161290323,1.42258064516129,1.44838709677419,1.45806451612903,1.45806451612903,1.43225806451613,1.39677419354839,1.38064516129032,1.3741935483871,1.38387096774194,1.37741935483871,1.35806451612903,1.35161290322581,1.36451612903226,1.39677419354839,1.37741935483871,1.28709677419355,1.27741935483871,1.58064516129032,2.15483870967742,2.44516129032258,2.14516129032258,1.62258064516129,1.32903225806452,1.28709677419355,1.27741935483871,1.24516129032258,1.23870967741935,1.25161290322581,1.28709677419355,1.30322580645161,1.30322580645161,1.30645161290323,1.30967741935484,1.32258064516129,1.3258064516129,1.31612903225806,1.32258064516129,1.34516129032258,1.39354838709677,1.40967741935484,1.40645161290323,1.42258064516129,1.44838709677419,1.49354838709677,1.51935483870968,1.52258064516129,1.52903225806452,1.53548387096774,1.53548387096774,1.49677419354839,1.45161290322581,1.41612903225806,1.36129032258065,1.32903225806452,1.31612903225806,1.30322580645161,1.3,1.29677419354839,1.31290322580645,1.30967741935484,1.3,1.30322580645161,1.30645161290323,1.3258064516129,1.33870967741935,1.34516129032258,1.35161290322581,1.34193548387097,1.34516129032258,1.34838709677419,1.35161290322581,1.35806451612903,1.35161290322581,1.35806451612903,1.36129032258065,1.36451612903226,1.37096774193548,1.35806451612903,1.36129032258065,1.37096774193548,1.37096774193548,1.37096774193548,1.37096774193548,1.39677419354839,1.39677419354839,1.38709677419355,1.39677419354839,1.39032258064516,1.39354838709677,1.40322580645161,1.40645161290323,1.40967741935484,1.40322580645161,1.41612903225806,1.40645161290323,1.4,1.43225806451613,1.44516129032258,1.44838709677419,1.43870967741935,1.43225806451613,1.43870967741935,1.44838709677419,1.46451612903226,1.45806451612903,1.42903225806452,1.39677419354839,1.37096774193548,1.38064516129032,1.39677419354839,1.39032258064516,1.39677419354839,1.4,1.41612903225806,1.40967741935484,1.34838709677419,1.2741935483871,1.39677419354839,1.85483870967742,2.33225806451613,2.35161290322581,1.9,1.42258064516129,1.25806451612903,1.27741935483871,1.27096774193548,1.24193548387097,1.24838709677419,1.29032258064516,1.29677419354839,1.27741935483871,1.27741935483871,1.27741935483871,1.28387096774194,1.3,1.3258064516129,1.33870967741935,1.33225806451613,1.35806451612903,1.38387096774194,1.40645161290323,1.43225806451613,1.44838709677419,1.47741935483871,1.50322580645161,1.51935483870968,1.52258064516129,1.53548387096774,1.56774193548387,1.53548387096774,1.46774193548387,1.4258064516129,1.38064516129032,1.34838709677419,1.31935483870968,1.28709677419355,1.2741935483871,1.27096774193548,1.3,1.31935483870968,1.3,1.28709677419355,1.29677419354839,1.31935483870968,1.31290322580645,1.30645161290323,1.33870967741935,1.35161290322581,1.35161290322581,1.34193548387097,1.33548387096774,1.34516129032258,1.34516129032258,1.34838709677419,1.34516129032258,1.33548387096774,1.34838709677419,1.35483870967742,1.36451612903226,1.35483870967742,1.34516129032258,1.35806451612903,1.35806451612903,1.35483870967742,1.34516129032258,1.36129032258065,1.38709677419355,1.36774193548387,1.35483870967742,1.35483870967742,1.36451612903226,1.39354838709677,1.38709677419355,1.36451612903226,1.36129032258065,1.39677419354839,1.44516129032258,1.45806451612903,1.46129032258065,1.45161290322581,1.41935483870968,1.38709677419355,1.37096774193548,1.38387096774194,1.38709677419355,1.38387096774194,1.38064516129032,1.36451612903226,1.37741935483871,1.39677419354839,1.35806451612903,1.27741935483871,1.36451612903226,1.80967741935484,2.30967741935484,2.34838709677419,1.90645161290323,1.44838709677419,1.29677419354839,1.31612903225806,1.3258064516129,1.30967741935484,1.29032258064516,1.30322580645161,1.32258064516129,1.34516129032258,1.36451612903226,1.35806451612903,1.36129032258065,1.36451612903226,1.35483870967742,1.37096774193548,1.39354838709677,1.42903225806452,1.43548387096774,1.42903225806452,1.43870967741935,1.46451612903226,1.51290322580645,1.53870967741935,1.53870967741935,1.54516129032258,1.55161290322581,1.55806451612903,1.54193548387097,1.5,1.44838709677419,1.39677419354839,1.36129032258065,1.31935483870968,1.28387096774194,1.27741935483871,1.2741935483871,1.28064516129032,1.27741935483871,1.27096774193548,1.29354838709677,1.3,1.30645161290323,1.31612903225806,1.3258064516129,1.34516129032258,1.33870967741935,1.34193548387097,1.33870967741935,1.33548387096774,1.33548387096774,1.32903225806452,1.33870967741935,1.34838709677419,1.34838709677419,1.35806451612903,1.35483870967742,1.35161290322581,1.35161290322581,1.36451612903226,1.37741935483871,1.36129032258065,1.35483870967742,1.34838709677419,1.34516129032258,1.34838709677419,1.35483870967742,1.37096774193548,1.35806451612903,1.34193548387097,1.36774193548387,1.4,1.41935483870968,1.42258064516129,1.42903225806452,1.43225806451613,1.39677419354839,1.36774193548387,1.35161290322581,1.35161290322581,1.36451612903226,1.35483870967742,1.34516129032258,1.33870967741935,1.35161290322581,1.3741935483871,1.3258064516129,1.22903225806452,1.31290322580645,1.76129032258065,2.30645161290323,2.3741935483871,1.91612903225806,1.42903225806452,1.25161290322581,1.26774193548387,1.25806451612903,1.23225806451613,1.23548387096774,1.25483870967742,1.2741935483871,1.29354838709677,1.32258064516129,1.31612903225806,1.30967741935484,1.34516129032258,1.36129032258065,1.35483870967742,1.34516129032258,1.36774193548387,1.39677419354839,1.40967741935484,1.43870967741935,1.45483870967742,1.4741935483871,1.51290322580645,1.52903225806452,1.53225806451613,1.53548387096774,1.53548387096774,1.5258064516129,1.48387096774194,1.45483870967742,1.42258064516129,1.3741935483871,1.34193548387097,1.32903225806452,1.33548387096774,1.3258064516129,1.32258064516129,1.33548387096774,1.33870967741935,1.34516129032258,1.34193548387097,1.34516129032258,1.3741935483871,1.4,1.41612903225806,1.40967741935484,1.40645161290323
1.95806451612903,2.30645161290323,2.14838709677419,1.66129032258065,1.33225806451613,1.25483870967742,1.25161290322581,1.25806451612903,1.25483870967742,1.25806451612903,1.25806451612903,1.26451612903226,1.29677419354839,1.29032258064516,1.2741935483871,1.28387096774194,1.30645161290323,1.32903225806452,1.3258064516129,1.34838709677419,1.37096774193548,1.38709677419355,1.4258064516129,1.44193548387097,1.4741935483871,1.49677419354839,1.49354838709677,1.49032258064516,1.49032258064516,1.49354838709677,1.48709677419355,1.46129032258065,1.4258064516129,1.37096774193548,1.33870967741935,1.31612903225806,1.30322580645161,1.31935483870968,1.30322580645161,1.29032258064516,1.30967741935484,1.3258064516129,1.32903225806452,1.33225806451613,1.35161290322581,1.35483870967742,1.34193548387097,1.34838709677419,1.35806451612903,1.36774193548387,1.36129032258065,1.35161290322581,1.37096774193548,1.38064516129032,1.3741935483871,1.36774193548387,1.3741935483871,1.38709677419355,1.36129032258065,1.35161290322581,1.36129032258065,1.36774193548387,1.38387096774194,1.3741935483871,1.37096774193548,1.38064516129032,1.38064516129032,1.3741935483871,1.36451612903226,1.38387096774194,1.39677419354839,1.38387096774194,1.39354838709677,1.41935483870968,1.45806451612903,1.46774193548387,1.45483870967742,1.44193548387097,1.40322580645161,1.38064516129032,1.37096774193548,1.36129032258065,1.3741935483871,1.3741935483871,1.37741935483871,1.3741935483871,1.36774193548387,1.36451612903226,1.31290322580645,1.24516129032258,1.35483870967742,1.79354838709677,2.31290322580645,2.3741935483871,1.93548387096774,1.45806451612903,1.27096774193548,1.27741935483871,1.26451612903226,1.24193548387097,1.24838709677419,1.26129032258065,1.27741935483871,1.2741935483871,1.28064516129032,1.28709677419355,1.29354838709677,1.32258064516129,1.33870967741935,1.33870967741935,1.33548387096774,1.34838709677419,1.38064516129032,1.4,1.41935483870968,1.43225806451613,1.45161290322581,1.49354838709677,1.5,1.49677419354839,1.50322580645161,1.50322580645161,1.49354838709677,1.45483870967742,1.4258064516129,1.4,1.36774193548387,1.36129032258065,1.34838709677419,1.33548387096774,1.32903225806452,1.33548387096774,1.35483870967742,1.35806451612903,1.37096774193548,1.36129032258065,1.35161290322581,1.37741935483871,1.36451612903226,1.34193548387097,1.34193548387097,1.35806451612903,1.37741935483871,1.37741935483871,1.39354838709677,1.39677419354839,1.37096774193548,1.36451612903226,1.36451612903226,1.38709677419355,1.4,1.38064516129032,1.36451612903226,1.35806451612903,1.37741935483871,1.39354838709677,1.39032258064516,1.38064516129032,1.35483870967742,1.36451612903226,1.38387096774194,1.38387096774194,1.38387096774194,1.38387096774194,1.39354838709677,1.39032258064516,1.40322580645161,1.42903225806452,1.43225806451613,1.45806451612903,1.47096774193548,1.42903225806452,1.4,1.39677419354839,1.39354838709677,1.36451612903226,1.34516129032258,1.3741935483871,1.38387096774194,1.36129032258065,1.34516129032258,1.36129032258065,1.35483870967742,1.28064516129032,1.35483870967742,1.75806451612903,2.28387096774194,2.43225806451613,2.0258064516129,1.52258064516129,1.28387096774194,1.25161290322581,1.25806451612903,1.24193548387097,1.24193548387097,1.24838709677419,1.24838709677419,1.26774193548387,1.26774193548387,1.2741935483871,1.29677419354839,1.30322580645161,1.30322580645161,1.31612903225806,1.34193548387097,1.33870967741935,1.34193548387097,1.39032258064516,1.41290322580645,1.42258064516129,1.44516129032258,1.48064516129032,1.52258064516129,1.5258064516129,1.51290322580645,1.49677419354839,1.47096774193548,1.45483870967742,1.43225806451613,1.4,1.34193548387097,1.30967741935484,1.33548387096774,1.33548387096774,1.30322580645161,1.28709677419355,1.29677419354839,1.32258064516129,1.32258064516129,1.32258064516129,1.32258064516129,1.31935483870968,1.33225806451613,1.32903225806452,1.33870967741935,1.35483870967742,1.34838709677419,1.34516129032258,1.34516129032258,1.35483870967742,1.35806451612903,1.35161290322581,1.34838709677419,1.34193548387097,1.35806451612903,1.36129032258065,1.34838709677419,1.35483870967742,1.36774193548387,1.38709677419355,1.37741935483871,1.34193548387097,1.34516129032258,1.37096774193548,1.39677419354839,1.38387096774194,1.35806451612903,1.36774193548387,1.36774193548387,1.38064516129032,1.4,1.39032258064516,1.39354838709677,1.41935483870968,1.46451612903226,1.48387096774194,1.45483870967742,1.4258064516129,1.40322580645161,1.39032258064516,1.36774193548387,1.35806451612903,1.38387096774194,1.38709677419355,1.3741935483871,1.37741935483871,1.40322580645161,1.3741935483871,1.27096774193548,1.33548387096774,1.73870967741935,2.26129032258065,2.43870967741935,2.05483870967742,1.53548387096774,1.29354838709677,1.28064516129032,1.3,1.27741935483871,1.2741935483871,1.28709677419355,1.29354838709677,1.31290322580645,1.31612903225806,1.32258064516129,1.32903225806452,1.33870967741935,1.36774193548387,1.38387096774194,1.39677419354839,1.40967741935484,1.42258064516129,1.44516129032258,1.45806451612903,1.49354838709677,1.5258064516129,1.54516129032258,1.56774193548387,1.56451612903226,1.55806451612903,1.54193548387097,1.51935483870968,1.49032258064516,1.43548387096774,1.4,1.37741935483871,1.34838709677419,1.3258064516129,1.30645161290323,1.32258064516129,1.33225806451613,1.30322580645161,1.3,1.31612903225806,1.33870967741935,1.34193548387097,1.34838709677419,1.37096774193548,1.37096774193548,1.36774193548387,1.3741935483871,1.36774193548387,1.36129032258065,1.35806451612903,1.36129032258065,1.36774193548387,1.37741935483871,1.39354838709677,1.36451612903226,1.34838709677419,1.35806451612903,1.36451612903226,1.35806451612903,1.33870967741935,1.33870967741935,1.35161290322581,1.35806451612903,1.36451612903226,1.34193548387097,1.33870967741935,1.34516129032258,1.34516129032258,1.38064516129032,1.42903225806452,1.45161290322581,1.43548387096774,1.40645161290323,1.38387096774194,1.35161290322581,1.34516129032258,1.33870967741935,1.32258064516129,1.33225806451613,1.33225806451613,1.31612903225806,1.3258064516129,1.35483870967742,1.33225806451613,1.21935483870968,1.20967741935484,1.51935483870968,2.01935483870968,2.26451612903226,1.96129032258065,1.48064516129032,1.24516129032258,1.23548387096774,1.26451612903226,1.26129032258065,1.26129032258065,1.26451612903226,1.26774193548387,1.29032258064516,1.29032258064516,1.29677419354839,1.30967741935484,1.31935483870968,1.34193548387097,1.33870967741935,1.34193548387097,1.3741935483871,1.39677419354839,1.40322580645161,1.40967741935484,1.45161290322581,1.49354838709677,1.50967741935484,1.54193548387097,1.55483870967742,1.55483870967742,1.55161290322581,1.53225806451613,1.50967741935484,1.45161290322581,1.39677419354839,1.37096774193548,1.34516129032258,1.33225806451613,1.31935483870968,1.32903225806452,1.33548387096774,1.31290322580645,1.31612903225806,1.33548387096774,1.34838709677419,1.35806451612903,1.3741935483871,1.4,1.38064516129032,1.36451612903226,1.37741935483871,1.38387096774194,1.39032258064516,1.38064516129032,1.38387096774194,1.39032258064516,1.3741935483871,1.36451612903226,1.35806451612903,1.37741935483871,1.38709677419355,1.36451612903226,1.36451612903226,1.37096774193548,1.37741935483871,1.37741935483871,1.36774193548387,1.3741935483871,1.37741935483871,1.39354838709677,1.42903225806452,1.45806451612903,1.48387096774194,1.47096774193548,1.43225806451613,1.39354838709677,1.36129032258065,1.36451612903226,1.36774193548387,1.38387096774194,1.39677419354839,1.39032258064516,1.38709677419355,1.38387096774194,1.39032258064516,1.3258064516129,1.23870967741935,1.40967741935484,1.88709677419355,2.33548387096774,2.29677419354839,1.81290322580645,1.39354838709677,1.25483870967742,1.2741935483871,1.29677419354839,1.28387096774194,1.27096774193548,1.26774193548387,1.29677419354839,1.32258064516129,1.31612903225806,1.31612903225806,1.3258064516129,1.34516129032258,1.35161290322581,1.34838709677419,1.36129032258065,1.36774193548387,1.39677419354839,1.43870967741935,1.45161290322581,1.46451612903226,1.49032258064516,1.53225806451613,1.55161290322581,1.5258064516129,1.52258064516129,1.53225806451613,1.51935483870968,1.46774193548387,1.4,1.36129032258065,1.32258064516129,1.30322580645161,1.29354838709677,1.28387096774194,1.29032258064516,1.30645161290323,1.32258064516129,1.3258064516129,1.31290322580645,1.32258064516129,1.31612903225806,1.30645161290323,1.31935483870968,1.33225806451613,1.35161290322581,1.36451612903226,1.36774193548387,1.34516129032258,1.3258064516129,1.35806451612903,1.3741935483871,1.36774193548387,1.35806451612903,1.35483870967742,1.36451612903226,1.34516129032258,1.32258064516129,1.31935483870968,1.32903225806452,1.33548387096774,1.32903225806452,1.34516129032258,1.35483870967742,1.34193548387097,1.34838709677419,1.35483870967742,1.35806451612903,1.36774193548387,1.39032258064516,1.43225806451613,1.43870967741935,1.44838709677419,1.45806451612903,1.43548387096774,1.41290322580645,1.39354838709677,1.37741935483871,1.35806451612903,1.35483870967742,1.38064516129032,1.38387096774194,1.39032258064516,1.40967741935484,1.39354838709677,1.31612903225806,1.28387096774194,1.54838709677419,2.0741935483871,2.41935483870968,2.23548387096774,1.71290322580645,1.33225806451613,1.24516129032258,1.27741935483871,1.29354838709677,1.27741935483871,1.27096774193548,1.26774193548387,1.26129032258065,1.28709677419355,1.31612903225806,1.32258064516129,1.30967741935484,1.31935483870968,1.35483870967742,1.35806451612903,1.35806451612903,1.36774193548387,1.3741935483871,1.39354838709677,1.41612903225806,1.45483870967742,1.49032258064516,1.51612903225806,1.55483870967742,1.56774193548387,1.55806451612903,1.54193548387097,1.51612903225806,1.49354838709677,1.44516129032258,1.4,1.37096774193548,1.35161290322581,1.35483870967742,1.33870967741935,1.33548387096774,1.34516129032258,1.33548387096774,1.33225806451613,1.3258064516129,1.33225806451613,1.35161290322581,1.35806451612903,1.37096774193548,1.36451612903226,1.34838709677419,1.34193548387097,1.35806451612903,1.38709677419355,1.36129032258065,1.33548387096774,1.35806451612903,1.3741935483871,1.36129032258065,1.34838709677419,1.35483870967742,1.34516129032258,1.33548387096774,1.35161290322581,1.34838709677419,1.33548387096774,1.32903225806452,1.32903225806452,1.34838709677419,1.34193548387097,1.33548387096774,1.33548387096774,1.32903225806452,1.36129032258065,1.41612903225806,1.45806451612903,1.43870967741935,1.37096774193548,1.34193548387097,1.34516129032258,1.34193548387097,1.3258064516129,1.33548387096774,1.3741935483871,1.36129032258065,1.34516129032258,1.37096774193548,1.36451612903226,1.28387096774194,1.27096774193548,1.58064516129032,2.12258064516129,2.40322580645161,2.12258064516129,1.5741935483871,1.2741935483871,1.26129032258065,1.28387096774194,1.2741935483871,1.25806451612903,1.26774193548387,1.29032258064516,1.3258064516129,1.38709677419355,1.42258064516129,1.43870967741935,1.43225806451613,1.40645161290323,1.39677419354839,1.38709677419355,1.4,1.43548387096774,1.44193548387097,1.44838709677419,1.44838709677419,1.46129032258065,1.47741935483871,1.47741935483871,1.48387096774194,1.48387096774194,1.48709677419355,1.48064516129032,1.43870967741935,1.40322580645161,1.35806451612903,1.32903225806452,1.31290322580645,1.28709677419355,1.2741935483871,1.27096774193548,1.29354838709677,1.30967741935484,1.29677419354839,1.30645161290323,1.3,1.3,1.31290322580645,1.32903225806452,1.33870967741935,1.32258064516129,1.33548387096774,1.35483870967742,1.34193548387097,1.33548387096774,1.32903225806452,1.34838709677419,1.36451612903226,1.34516129032258,1.34516129032258,1.35161290322581,1.36451612903226,1.37741935483871,1.37096774193548,1.3741935483871,1.37741935483871,1.4,1.40967741935484,1.40967741935484,1.44838709677419,1.47096774193548,1.45483870967742,1.41290322580645,1.37096774193548,1.37096774193548,1.37741935483871,1.38387096774194,1.3741935483871,1.35806451612903,1.3741935483871,1.40322580645161,1.44516129032258,1.43548387096774,1.34193548387097,1.31935483870968,1.56451612903226,2.03548387096774,2.32258064516129,2.10322580645161,1.64838709677419,1.35483870967742,1.30322580645161,1.32903225806452,1.33548387096774,1.34193548387097,1.32258064516129,1.3258064516129,1.35161290322581,1.34838709677419,1.34193548387097,1.34516129032258,1.36451612903226,1.38064516129032,1.3741935483871,1.37096774193548,1.38064516129032,1.40967741935484,1.4258064516129,1.41612903225806,1.43870967741935,1.47096774193548,1.50645161290323,1.52903225806452,1.52258064516129,1.5258064516129,1.51935483870968,1.5,1.47096774193548,1.41290322580645,1.35806451612903,1.30645161290323,1.28387096774194,1.2741935483871,1.25483870967742,1.26129032258065,1.26451612903226,1.26451612903226,1.26451612903226,1.2741935483871,1.3,1.3,1.29677419354839,1.3,1.30967741935484,1.31935483870968,1.31290322580645,1.32903225806452,1.33870967741935,1.32258064516129,1.33548387096774,1.34516129032258,1.33225806451613,1.32258064516129,1.34516129032258,1.39677419354839,1.40322580645161,1.37096774193548,1.35483870967742,1.35806451612903,1.3741935483871,1.36774193548387,1.35483870967742,1.36451612903226,1.38064516129032,1.40967741935484,1.42903225806452,1.44838709677419,1.45806451612903,1.43870967741935,1.40967741935484,1.37741935483871,1.37096774193548,1.38064516129032,1.3741935483871,1.36774193548387,1.36451612903226,1.37741935483871,1.38709677419355,1.37741935483871,1.33548387096774,1.28387096774194,1.48064516129032,2.01290322580645,2.45161290322581,2.34516129032258,1.81935483870968,1.40322580645161,1.27741935483871,1.26129032258065,1.26451612903226,1.25806451612903,1.25161290322581,1.25161290322581,1.25806451612903,1.2741935483871,1.27741935483871,1.28709677419355,1.31935483870968,1.33548387096774,1.33870967741935,1.33870967741935,1.35161290322581,1.3741935483871,1.39354838709677,1.40322580645161,1.4,1.43548387096774,1.47741935483871,1.49032258064516,1.51612903225806,1.52903225806452,1.53548387096774,1.51290322580645,1.47096774193548,1.46129032258065,1.42258064516129,1.35161290322581,1.31290322580645,1.30645161290323,1.31290322580645,1.3,1.29032258064516,1.29354838709677,1.29354838709677,1.31290322580645,1.34193548387097,1.34838709677419,1.3258064516129,1.31290322580645,1.35161290322581,1.36774193548387,1.36129032258065,1.35806451612903,1.34838709677419,1.36129032258065,1.36774193548387,1.35806451612903,1.35806451612903,1.35806451612903,1.36129032258065,1.35161290322581,1.35806451612903,1.37741935483871,1.37741935483871,1.37741935483871,1.37741935483871,1.38387096774194,1.38709677419355,1.38064516129032,1.39032258064516,1.38064516129032,1.38387096774194,1.4258064516129,1.46774193548387,1.48709677419355,1.45483870967742,1.41290322580645,1.39032258064516,1.38064516129032,1.37741935483871,1.37096774193548,1.38709677419355,1.39354838709677,1.36451612903226,1.37096774193548,1.39677419354839,1.36451612903226,1.27096774193548,1.34838709677419,1.80322580645161,2.34193548387097,2.42903225806452,2,1.50967741935484,1.30322580645161,1.28387096774194,1.27741935483871,1.26129032258065,1.25806451612903,1.28064516129032,1.28709677419355,1.29677419354839,1.31290322580645,1.32258064516129,1.34838709677419,1.35161290322581,1.33548387096774,1.31935483870968,1.31935483870968,1.36129032258065,1.37741935483871,1.39354838709677,1.43870967741935,1.46129032258065,1.47096774193548,1.46774193548387,1.48387096774194,1.50645161290323,1.50645161290323,1.51290322580645,1.50322580645161,1.48387096774194,1.43548387096774,1.35806451612903,1.33225806451613,1.32903225806452,1.30645161290323,1.29032258064516,1.29032258064516,1.3,1.30322580645161,1.32903225806452,1.34838709677419,1.33548387096774,1.33548387096774,1.33548387096774,1.32903225806452,1.32903225806452,1.34193548387097,1.34516129032258,1.32903225806452,1.32903225806452,1.33870967741935,1.34193548387097,1.35806451612903,1.35161290322581,1.34838709677419,1.35806451612903,1.35161290322581,1.35483870967742,1.36129032258065,1.3741935483871,1.38709677419355,1.36774193548387,1.36774193548387,1.38387096774194,1.42258064516129,1.45161290322581,1.44516129032258,1.42903225806452,1.39677419354839,1.37741935483871,1.36451612903226,1.34838709677419,1.35161290322581,1.35161290322581,1.34838709677419,1.34838709677419,1.36129032258065,1.39032258064516,1.36451612903226,1.27741935483871,1.25161290322581,1.48387096774194,1.9741935483871,2.30322580645161,2.10322580645161,1.60322580645161,1.27741935483871,1.24838709677419,1.28064516129032,1.26774193548387,1.25483870967742,1.26774193548387,1.3,1.30322580645161,1.29677419354839,1.29677419354839,1.29032258064516,1.29677419354839,1.30645161290323,1.3258064516129,1.35161290322581,1.36451612903226,1.39032258064516,1.40967741935484,1.43548387096774,1.45161290322581,1.45161290322581,1.48709677419355,1.51290322580645,1.5258064516129,1.53225806451613,1.5258064516129,1.51935483870968,1.4741935483871,1.42258064516129,1.39677419354839,1.36451612903226,1.33225806451613,1.30322580645161,1.30645161290323,1.32258064516129,1.31290322580645,1.31935483870968,1.33548387096774,1.34838709677419,1.34838709677419,1.33870967741935,1.36774193548387,1.38064516129032,1.36774193548387,1.35483870967742,1.35806451612903,1.39354838709677,1.40322580645161,1.39677419354839,1.40645161290323,1.42258064516129,1.43225806451613,1.41290322580645,1.40322580645161,1.40645161290323,1.39677419354839,1.39354838709677,1.38709677419355,1.4,1.43548387096774,1.43870967741935,1.42903225806452,1.43225806451613,1.47096774193548,1.50967741935484,1.5,1.4741935483871,1.43548387096774,1.40967741935484,1.40322580645161,1.39354838709677,1.39677419354839,1.38709677419355,1.38709677419355,1.4,1.40967741935484,1.43225806451613,1.40322580645161,1.30967741935484,1.28387096774194,1.53870967741935,2.07096774193548,2.42903225806452,2.2258064516129,1.69032258064516,1.32903225806452,1.26451612903226,1.26129032258065,1.23225806451613,1.2258064516129,1.23870967741935,1.25806451612903,1.25483870967742,1.25806451612903,1.28064516129032,1.29354838709677,1.30322580645161,1.29677419354839,1.3,1.31290322580645,1.32258064516129,1.34838709677419,1.35483870967742,1.35161290322581,1.3741935483871,1.40322580645161,1.44516129032258,1.46129032258065,1.47096774193548,1.48709677419355,1.47741935483871,1.47741935483871,1.46129032258065,1.40967741935484,1.34516129032258,1.29677419354839,1.29677419354839,1.28064516129032,1.26774193548387,1.2741935483871,1.27741935483871,1.29032258064516,1.28387096774194,1.28064516129032,1.29032258064516,1.28709677419355,1.3,1.31612903225806,1.31935483870968,1.3258064516129,1.32258064516129,1.32258064516129,1.32258064516129,1.33548387096774,1.34838709677419,1.34516129032258,1.35483870967742,1.34838709677419,1.33548387096774,1.34193548387097,1.33548387096774,1.32903225806452,1.33548387096774,1.36129032258065,1.37096774193548,1.35806451612903,1.37096774193548,1.37741935483871,1.37741935483871,1.38064516129032,1.37096774193548,1.39677419354839,1.43225806451613,1.45806451612903,1.46774193548387,1.43870967741935,1.39677419354839,1.36451612903226,1.36451612903226,1.38064516129032,1.37096774193548,1.36129032258065,1.36774193548387,1.38709677419355,1.39032258064516,1.36774193548387,1.32258064516129,1.26451612903226,1.42258064516129,1.92903225806452,2.40322580645161,2.35161290322581,1.85161290322581,1.42258064516129,1.29354838709677,1.28387096774194,1.28064516129032,1.27096774193548,1.27741935483871,1.28709677419355,1.29354838709677,1.3258064516129,1.3258064516129,1.30967741935484,1.32258064516129,1.33870967741935,1.35483870967742,1.35161290322581,1.3741935483871,1.41935483870968,1.43225806451613,1.43870967741935,1.46129032258065,1.49677419354839,1.53225806451613,1.54516129032258,1.55161290322581,1.54516129032258,1.5741935483871,1.60645161290323,1.56129032258065,1.50967741935484,1.46774193548387,1.42258064516129,1.39354838709677,1.38387096774194,1.38064516129032,1.34838709677419,1.33225806451613,1.35161290322581,1.37096774193548,1.38064516129032,1.37096774193548,1.3741935483871,1.39354838709677,1.4,1.40967741935484,1.40967741935484,1.4,1.39677419354839,1.39354838709677,1.40322580645161,1.39677419354839,1.40322580645161,1.41612903225806,1.39677419354839,1.38064516129032,1.36451612903226,1.36774193548387,1.38709677419355,1.38064516129032,1.37096774193548,1.36451612903226,1.37096774193548,1.37096774193548,1.35161290322581,1.34838709677419,1.34516129032258,1.35161290322581,1.35806451612903,1.34193548387097,1.33548387096774,1.34193548387097,1.37741935483871,1.41290322580645,1.40645161290323,1.37741935483871,1.33225806451613,1.29354838709677,1.26129032258065,1.23870967741935,1.26451612903226,1.27741935483871,1.25483870967742,1.23225806451613,1.21935483870968,1.2258064516129,1.16129032258065,1.07096774193548,1.18064516129032,1.62258064516129,2.12903225806452,2.1741935483871,1.71290322580645
