1.36318359375,1.41796875,1.42763671875,1.3728515625,1.3728515625,1.40185546875,1.37607421875,1.3921875,1.40185546875,1.36640625,1.38251953125,1.405078125,1.37607421875,1.35029296875,1.35029296875,1.340625,1.3470703125,1.3599609375,1.3470703125,1.32451171875,1.34384765625,1.35673828125,1.34384765625,1.35029296875,1.3341796875,1.31484375,1.32451171875,1.33095703125,1.33095703125,1.3341796875,1.33095703125,1.33095703125,1.34384765625,1.35029296875,1.327734375,1.340625,1.353515625,1.34384765625,1.34384765625,1.34384765625,1.32451171875,1.3341796875,1.3470703125,1.3599609375,1.3728515625,1.379296875,1.36962890625,1.34384765625,1.327734375,1.353515625,1.36962890625,1.33740234375,1.31162109375,1.301953125,1.3083984375,1.3083984375,1.2890625,1.276171875,1.21171875,1.147265625,1.3728515625,1.869140625,2.487890625,2.8810546875,2.3912109375,1.482421875,1.20849609375,1.29873046875,1.28583984375,1.31162109375,1.31806640625,1.31162109375,1.35673828125,1.3470703125,1.33095703125,1.3728515625,1.37607421875,1.353515625,1.37607421875,1.41796875,1.430859375,1.456640625,1.48564453125,1.51142578125,1.546875,1.58232421875,1.60166015625,1.6177734375,1.6564453125,1.67578125,1.65322265625,1.6177734375,1.58232421875,1.5275390625,1.456640625,1.40185546875,1.40185546875,1.3728515625,1.31162109375,1.327734375,1.33740234375,1.31162109375,1.327734375,1.327734375,1.31806640625,1.327734375,1.3341796875,1.327734375,1.3341796875,1.33740234375,1.31806640625,1.31806640625,1.353515625,1.34384765625,1.30517578125,1.29873046875,1.31806640625,1.34384765625,1.32451171875,1.30517578125,1.35029296875,1.353515625,1.3083984375,1.31806640625,1.340625,1.31806640625,1.2955078125,1.29873046875,1.3341796875,1.33095703125,1.2955078125,1.3083984375,1.32451171875,1.30517578125,1.31162109375,1.3212890625,1.3212890625,1.3212890625,1.30517578125,1.31162109375,1.32451171875,1.31162109375,1.31162109375,1.31162109375,1.301953125,1.31162109375,1.3212890625,1.33095703125,1.327734375,1.31806640625,1.33095703125,1.3212890625,1.31806640625,1.327734375,1.327734375,1.33740234375,1.353515625,1.33740234375,1.35673828125,1.38251953125,1.353515625,1.34384765625,1.3728515625,1.3728515625,1.353515625,1.31806640625,1.2890625,1.3083984375,1.301953125,1.29873046875,1.3083984375,1.20849609375,1.20205078125,1.53720703125,2.049609375,2.6748046875,2.90361328125,2.19462890625,1.40830078125,1.2826171875,1.31806640625,1.30517578125,1.3341796875,1.31806640625,1.32451171875,1.35029296875,1.34384765625,1.34384765625,1.35029296875,1.36962890625,1.379296875,1.379296875,1.41796875,1.44052734375,1.45341796875,1.4953125,1.5146484375,1.5404296875,1.59521484375,1.62099609375,1.63388671875,1.65,1.6435546875,1.65322265625,1.61455078125,1.5404296875,1.50498046875,1.47919921875,1.42119140625,1.36318359375,1.3341796875,1.3341796875,1.340625,1.340625,1.35029296875,1.3341796875,1.30517578125,1.31484375,1.340625,1.340625,1.32451171875,1.327734375,1.32451171875,1.2955078125,1.31484375,1.3341796875,1.3083984375,1.31484375,1.33740234375,1.32451171875,1.32451171875,1.3341796875,1.327734375,1.31806640625,1.31484375,1.327734375,1.33740234375,1.327734375,1.31806640625,1.3083984375,1.31162109375,1.327734375,1.31162109375,1.29228515625,1.3083984375,1.327734375,1.33095703125,1.31806640625,1.31162109375,1.33095703125,1.3212890625,1.2955078125,1.31806640625,1.31806640625,1.31806640625,1.31162109375,1.2826171875,1.301953125,1.33095703125,1.31484375,1.31162109375,1.32451171875,1.3212890625,1.3212890625,1.31162109375,1.31484375,1.31484375,1.33095703125,1.33095703125,1.30517578125,1.3083984375,1.353515625,1.36962890625,1.38896484375,1.3728515625,1.340625,1.3728515625,1.36962890625,1.3083984375,1.31806640625,1.31484375,1.2890625,1.3083984375,1.31484375,1.31484375,1.2181640625,1.13759765625,1.40830078125,1.93359375,2.54912109375,2.9583984375,2.487890625,1.5662109375,1.24716796875,1.3083984375,1.29228515625,1.327734375,1.33095703125,1.2955078125,1.33095703125,1.3470703125,1.33740234375,1.35673828125,1.3728515625,1.37607421875,1.3857421875,1.405078125,1.4115234375,1.44052734375,1.48564453125,1.49208984375,1.5146484375,1.5919921875,1.611328125,1.6048828125,1.6306640625,1.64033203125,1.65966796875,1.64677734375,1.585546875,1.5404296875,1.4759765625,1.42119140625,1.405078125,1.3599609375,1.34384765625,1.36640625,1.32451171875,1.3083984375,1.340625,1.32451171875,1.3083984375,1.31806640625,1.33095703125,1.32451171875,1.31484375,1.31484375,1.31806640625,1.33095703125,1.33095703125,1.32451171875,1.340625,1.34384765625,1.33095703125,1.32451171875,1.33095703125,1.340625,1.3341796875,1.3083984375,1.32451171875,1.35029296875,1.33095703125,1.3212890625,1.33095703125,1.32451171875,1.340625,1.33095703125,1.29873046875,1.31484375,1.33095703125,1.3083984375,1.29873046875,1.30517578125,1.3341796875,1.340625,1.31484375,1.3212890625,1.32451171875,1.31162109375,1.32451171875,1.33095703125,1.30517578125,1.3212890625,1.35029296875,1.340625,1.33095703125,1.340625,1.327734375,1.30517578125,1.31162109375,1.33095703125,1.3470703125,1.35673828125,1.36640625,1.37607421875,1.36640625,1.3470703125,1.35673828125,1.3728515625,1.353515625,1.3212890625,1.3083984375,1.3212890625,1.31162109375,1.2826171875,1.29873046875,1.2375,1.134375,1.379296875,1.91748046875,2.52333984375,2.94873046875,2.5201171875,1.5791015625,1.2375,1.327734375,1.32451171875,1.327734375,1.31806640625,1.30517578125,1.3341796875,1.33095703125,1.33095703125,1.3599609375,1.3599609375,1.3599609375,1.379296875,1.39541015625,1.405078125,1.430859375,1.46953125,1.4953125,1.52431640625,1.559765625,1.59521484375,1.637109375,1.64677734375,1.62744140625,1.6177734375,1.62099609375,1.60166015625,1.53720703125,1.4630859375,1.41796875,1.37607421875,1.3470703125,1.33740234375,1.3083984375,1.28583984375,1.301953125,1.31806640625,1.3212890625,1.327734375,1.29873046875,1.2826171875,1.31162109375,1.31162109375,1.29228515625,1.31162109375,1.31162109375,1.301953125,1.31806640625,1.31162109375,1.29228515625,1.31806640625,1.32451171875,1.3083984375,1.32451171875,1.327734375,1.31806640625,1.32451171875,1.32451171875,1.31806640625,1.31484375,1.32451171875,1.31806640625,1.31484375,1.3083984375,1.3083984375,1.31484375,1.31484375,1.2890625,1.2826171875,1.31806640625,1.32451171875,1.29228515625,1.2826171875,1.29873046875,1.30517578125,1.3083984375,1.31484375,1.30517578125,1.29873046875,1.31484375,1.3083984375,1.29873046875,1.32451171875,1.33740234375,1.33740234375,1.353515625,1.353515625,1.3341796875,1.33740234375,1.353515625,1.3470703125,1.327734375,1.30517578125,1.2890625,1.2890625,1.2697265625,1.29873046875,1.29228515625,1.1537109375,1.198828125,1.57265625,2.1076171875,2.74892578125,2.89716796875,2.10439453125,1.33740234375,1.26650390625,1.31806640625,1.29228515625,1.34384765625,1.3212890625,1.29228515625,1.34384765625,1.34384765625,1.3212890625,1.3470703125,1.3470703125,1.34384765625,1.38896484375,1.42763671875,1.41796875,1.42763671875,1.47275390625,1.5017578125,1.52109375,1.55654296875,1.611328125,1.6564453125,1.64033203125,1.637109375,1.662890625,1.60810546875,1.546875,1.5017578125,1.41796875,1.37607421875,1.37607421875,1.340625,1.31162109375,1.30517578125,1.30517578125,1.31162109375,1.30517578125,1.301953125,1.31162109375,1.3212890625,1.31484375,1.301953125,1.31162109375,1.3470703125,1.3212890625,1.28583984375,1.31162109375,1.33095703125,1.3212890625,1.32451171875,1.33095703125,1.32451171875,1.3341796875,1.31484375,1.2955078125,1.33095703125,1.33095703125,1.3083984375,1.31484375,1.32451171875,1.32451171875,1.3083984375,1.2890625,1.31484375,1.32451171875,1.3083984375,1.3083984375,1.31806640625,1.353515625,1.36318359375,1.34384765625,1.35029296875,1.3341796875,1.31806640625,1.36318359375,1.3599609375,1.2826171875,1.27939453125,1.2890625,1.2697265625,1.27294921875,1.2890625,1.198828125,1.09248046875,1.27939453125,1.74345703125,2.3525390625,2.9197265625,2.70380859375,1.740234375,1.22783203125,1.27939453125,1.27294921875,1.2826171875,1.327734375,1.29228515625,1.3083984375,1.327734375,1.3083984375,1.32451171875,1.3470703125,1.3341796875,1.3599609375,1.38251953125,1.36962890625,1.38896484375,1.44697265625,1.46953125,1.49853515625,1.5533203125,1.56943359375,1.5919921875,1.65322265625,1.65966796875,1.6177734375,1.5984375,1.56298828125,1.482421875,1.42763671875,1.40185546875,1.36318359375,1.31484375,1.2890625,1.2890625,1.29228515625,1.29228515625,1.2826171875,1.27939453125,1.2826171875,1.2826171875,1.27939453125,1.2826171875,1.29228515625,1.2826171875,1.27939453125,1.27294921875,1.2826171875,1.29873046875,1.2826171875,1.2890625,1.301953125,1.2826171875,1.27939453125,1.27939453125,1.27939453125,1.29873046875,1.27294921875,1.2568359375,1.3083984375,1.31484375,1.301953125,1.327734375,1.3083984375,1.31484375,1.36962890625,1.34384765625,1.2890625,1.31484375,1.3341796875,1.31484375,1.29873046875,1.27294921875,1.2697265625,1.26328125,1.2697265625,1.2826171875,1.173046875,1.069921875,1.33740234375,1.869140625,2.52333984375,2.98740234375,2.513671875,1.58232421875,1.2568359375,1.2826171875,1.25361328125,1.27294921875,1.2890625,1.29228515625,1.31484375,1.3083984375,1.29228515625,1.29228515625,1.327734375,1.34384765625,1.3341796875,1.36962890625,1.3986328125,1.40185546875,1.43408203125,1.45341796875,1.4888671875,1.546875,1.57265625,1.5791015625,1.60810546875,1.63388671875,1.62421875,1.57265625,1.5146484375,1.45341796875,1.41474609375,1.3728515625,1.3341796875,1.31806640625,1.31484375,1.301953125,1.3083984375,1.3083984375,1.29873046875,1.29228515625,1.29228515625,1.3083984375,1.29873046875,1.2826171875,1.2826171875,1.29873046875,1.301953125,1.29228515625,1.29873046875,1.31484375,1.301953125,1.31806640625,1.32451171875,1.301953125,1.31806640625,1.327734375,1.31484375,1.31484375,1.33740234375,1.327734375,1.29228515625,1.301953125,1.32451171875,1.31484375,1.31806640625,1.3341796875,1.32451171875,1.3083984375,1.31484375,1.353515625,1.379296875,1.36962890625,1.3599609375,1.353515625,1.36318359375,1.35029296875,1.31484375,1.30517578125,1.2890625,1.27939453125,1.2955078125,1.2955078125,1.2890625,1.198828125,1.1279296875,1.405078125,1.9658203125,2.6232421875,3.0228515625,2.475,1.54365234375,1.26328125,1.30517578125,1.29873046875,1.35029296875,1.33095703125,1.29873046875,1.33095703125,1.32451171875,1.33095703125,1.3599609375,1.353515625,1.353515625,1.379296875,1.3986328125,1.42119140625,1.44375,1.46630859375,1.4888671875,1.5404296875,1.585546875,1.60166015625,1.62421875,1.6693359375,1.66611328125,1.62421875,1.59521484375,1.5404296875,1.482421875,1.44697265625,1.40185546875,1.35029296875,1.340625,1.3470703125,1.33095703125,1.301953125,1.31162109375,1.327734375,1.301953125,1.28583984375,1.3212890625,1.3212890625,1.3083984375,1.327734375,1.3212890625,1.3083984375,1.3212890625,1.3212890625,1.31162109375,1.31806640625,1.31162109375,1.31806640625,1.33095703125,1.33740234375,1.33095703125,1.3212890625,1.31162109375,1.3083984375,1.31806640625,1.31162109375,1.29873046875,1.31162109375,1.31806640625,1.2890625,1.29873046875,1.3341796875,1.31806640625,1.2826171875,1.2890625,1.31484375,1.327734375,1.31484375,1.29873046875,1.2826171875,1.29228515625,1.3341796875,1.327734375,1.30517578125,1.31806640625,1.31484375,1.29873046875,1.30517578125,1.2826171875,1.3083984375,1.3599609375,1.33740234375,1.32451171875,1.36318359375,1.36962890625,1.32451171875,1.3341796875,1.3599609375,1.34384765625,1.31806640625,1.31484375,1.2826171875,1.27939453125,1.2890625,1.2826171875,1.2826171875,1.198828125,1.09892578125,1.3341796875,1.8626953125,2.51044921875,3.00029296875,2.62001953125,1.662890625,1.25361328125,1.2955078125,1.27939453125,1.3083984375,1.32451171875,1.27939453125,1.3083984375,1.327734375,1.29873046875,1.32451171875,1.36318359375,1.3599609375,1.36962890625,1.405078125,1.41474609375,1.4244140625,1.45341796875,1.47919921875,1.508203125,1.5404296875,1.57265625,1.62421875,1.637109375,1.63388671875,1.65,1.6435546875,1.6048828125,1.5533203125,1.47275390625,1.3986328125,1.3728515625,1.36962890625,1.35673828125,1.3470703125,1.32451171875,1.32451171875,1.34384765625,1.3341796875,1.327734375,1.327734375,1.3341796875,1.34384765625,1.3341796875,1.3470703125,1.35673828125,1.33095703125,1.327734375,1.34384765625,1.34384765625,1.340625,1.327734375,1.33740234375,1.3470703125,1.327734375,1.31806640625,1.35029296875,1.3728515625,1.33740234375,1.31162109375,1.35029296875,1.35673828125,1.3212890625,1.3212890625,1.32451171875,1.33095703125,1.3470703125,1.3341796875,1.33095703125,1.34384765625,1.3341796875,1.32451171875,1.34384765625,1.3341796875,1.3083984375,1.3341796875,1.353515625,1.33095703125,1.33095703125,1.3599609375,1.35029296875,1.31806640625,1.327734375,1.3341796875,1.32451171875,1.3341796875,1.33740234375,1.33740234375,1.327734375,1.327734375,1.34384765625,1.33740234375,1.33740234375,1.353515625,1.3470703125,1.34384765625,1.3728515625,1.3921875,1.3857421875,1.37607421875,1.37607421875,1.3857421875,1.3921875,1.37607421875,1.340625,1.33095703125,1.32451171875,1.28583984375,1.29228515625,1.3341796875,1.28583984375,1.1537109375,1.16015625,1.456640625,1.98837890625,2.66513671875,3.01318359375,2.4234375,1.508203125,1.250390625,1.3341796875,1.2955078125,1.30517578125,1.3341796875,1.32451171875,1.327734375,1.327734375,1.33740234375,1.353515625,1.35673828125,1.36318359375,1.3728515625,1.40830078125,1.430859375,1.4373046875,1.4759765625,1.52109375,1.53720703125,1.57587890625,1.62744140625,1.637109375,1.64677734375,1.65,1.64033203125,1.64677734375,1.60166015625,1.5146484375,1.46953125,1.430859375,1.379296875,1.36962890625,1.35029296875,1.31484375,1.33095703125,1.340625,1.3212890625,1.33095703125,1.33095703125,1.3083984375,1.3212890625,1.3212890625,1.3212890625,1.3341796875,1.31484375,1.30517578125,1.33095703125,1.31484375,1.30517578125,1.32451171875,1.31806640625,1.31806640625,1.33095703125,1.30517578125,1.30517578125,1.33095703125,1.31484375,1.29873046875,1.31484375,1.31806640625,1.29873046875,1.31484375,1.33095703125,1.3083984375,1.29873046875,1.30517578125,1.2955078125,1.2955078125,1.29873046875,1.3083984375,1.31162109375,1.29873046875,1.30517578125,1.30517578125,1.301953125,1.301953125,1.29228515625,1.29228515625,1.30517578125,1.30517578125,1.30517578125,1.301953125,1.301953125,1.301953125,1.2955078125,1.29873046875,1.29873046875,1.3083984375,1.3083984375,1.29228515625,1.29873046875,1.327734375,1.31806640625,1.3083984375,1.35029296875,1.3599609375,1.35029296875,1.36640625,1.35673828125,1.36640625,1.37607421875,1.3470703125,1.327734375,1.3083984375,1.2826171875,1.29873046875,1.27939453125,1.27939453125,1.30517578125,1.1859375,1.1408203125,1.44052734375,1.959375,2.616796875,3.00029296875,2.4427734375,1.5275390625,1.2568359375,1.3341796875,1.29873046875,1.31484375,1.33095703125,1.31162109375,1.32451171875,1.3212890625,1.327734375,1.36318359375,1.353515625,1.3341796875,1.3728515625,1.3986328125,1.3986328125,1.456640625,1.49208984375,1.5017578125,1.5404296875,1.5791015625,1.60166015625,1.63388671875,1.662890625,1.6951171875,1.6951171875,1.65,1.60810546875,1.5533203125,1.47275390625,1.4244140625,1.40830078125,1.379296875,1.34384765625,1.3470703125,1.35673828125,1.3470703125,1.33095703125,1.33740234375,1.33740234375,1.33740234375,1.340625,1.3212890625,1.3341796875,1.3599609375,1.35673828125,1.3470703125,1.340625,1.353515625,1.36318359375,1.353515625,1.35029296875,1.3728515625,1.37607421875,1.36962890625,1.379296875,1.36640625,1.36640625,1.38251953125,1.35029296875,1.33095703125,1.340625,1.36318359375,1.38251953125,1.353515625,1.327734375,1.35673828125,1.35673828125,1.327734375,1.33095703125,1.3470703125,1.3728515625,1.38251953125,1.340625,1.33095703125,1.3599609375,1.35029296875,1.33095703125,1.353515625,1.35029296875,1.34384765625,1.353515625,1.34384765625,1.33740234375,1.327734375,1.340625,1.36318359375,1.33740234375,1.3341796875,1.35029296875,1.340625,1.35029296875,1.353515625,1.3728515625,1.4115234375,1.38251953125,1.36318359375,1.36640625,1.3470703125,1.3728515625,1.36962890625,1.32451171875,1.33740234375,1.31484375,1.27294921875,1.3083984375,1.31806640625,1.29873046875,1.250390625,1.147265625,1.26005859375,1.66611328125,2.230078125,2.7908203125,2.6361328125,1.73056640625,1.224609375,1.250390625,1.2375,1.27294921875,1.31484375,1.2697265625,1.29228515625,1.2955078125,1.27294921875,1.31162109375,1.3212890625,1.29228515625,1.29228515625,1.31162109375,1.3212890625,1.3341796875,1.36318359375,1.38251953125,1.3986328125,1.45341796875
1.62744140625,1.64677734375,1.69833984375,1.72412109375,1.71767578125,1.69833984375,1.62421875,1.56298828125,1.53720703125,1.456640625,1.3986328125,1.41474609375,1.3986328125,1.33740234375,1.32451171875,1.3341796875,1.353515625,1.3728515625,1.33740234375,1.3341796875,1.353515625,1.31484375,1.31806640625,1.36318359375,1.34384765625,1.340625,1.35029296875,1.33095703125,1.3341796875,1.34384765625,1.32451171875,1.33095703125,1.340625,1.32451171875,1.3212890625,1.340625,1.32451171875,1.31162109375,1.340625,1.3341796875,1.31162109375,1.31162109375,1.301953125,1.32451171875,1.3470703125,1.301953125,1.30517578125,1.33095703125,1.30517578125,1.3341796875,1.35029296875,1.27939453125,1.301953125,1.36640625,1.31484375,1.2955078125,1.32451171875,1.32451171875,1.3341796875,1.340625,1.3341796875,1.340625,1.33095703125,1.3599609375,1.379296875,1.33095703125,1.33095703125,1.3599609375,1.35029296875,1.340625,1.31162109375,1.28583984375,1.30517578125,1.301953125,1.301953125,1.26650390625,1.13115234375,1.22138671875,1.611328125,2.1140625,2.69091796875,2.70380859375,1.894921875,1.2890625,1.26650390625,1.2697265625,1.2697265625,1.3083984375,1.2955078125,1.29873046875,1.3083984375,1.3083984375,1.32451171875,1.33095703125,1.353515625,1.36318359375,1.3599609375,1.405078125,1.41474609375,1.41796875,1.4888671875,1.50498046875,1.4953125,1.5791015625,1.64033203125,1.63388671875,1.65,1.62744140625,1.6048828125,1.60810546875,1.53720703125,1.4373046875,1.40185546875,1.3728515625,1.353515625,1.31806640625,1.29873046875,1.31806640625,1.327734375,1.327734375,1.3083984375,1.2890625,1.29873046875,1.3212890625,1.3212890625,1.301953125,1.31806640625,1.33740234375,1.31806640625,1.31806640625,1.31806640625,1.30517578125,1.3470703125,1.35673828125,1.327734375,1.33740234375,1.327734375,1.30517578125,1.32451171875,1.31484375,1.31484375,1.340625,1.32451171875,1.31162109375,1.33095703125,1.3341796875,1.32451171875,1.31162109375,1.30517578125,1.32451171875,1.32451171875,1.30517578125,1.33095703125,1.33095703125,1.30517578125,1.31484375,1.33095703125,1.3341796875,1.30517578125,1.29873046875,1.3599609375,1.36962890625,1.34384765625,1.353515625,1.36962890625,1.3599609375,1.353515625,1.34384765625,1.35029296875,1.353515625,1.32451171875,1.29873046875,1.30517578125,1.2890625,1.29873046875,1.2697265625,1.16337890625,1.26005859375,1.6693359375,2.2236328125,2.78759765625,2.7328125,1.88525390625,1.30517578125,1.327734375,1.34384765625,1.31484375,1.3341796875,1.31806640625,1.3341796875,1.35029296875,1.35029296875,1.353515625,1.34384765625,1.36962890625,1.405078125,1.405078125,1.4244140625,1.4501953125,1.4501953125,1.47919921875,1.52431640625,1.559765625,1.6048828125,1.64033203125,1.67578125,1.67900390625,1.63388671875,1.62421875,1.6177734375,1.54365234375,1.46953125,1.44052734375,1.40830078125,1.36962890625,1.353515625,1.35029296875,1.32451171875,1.2955078125,1.2890625,1.30517578125,1.3341796875,1.31806640625,1.30517578125,1.3341796875,1.32451171875,1.29873046875,1.33095703125,1.31484375,1.2955078125,1.31484375,1.30517578125,1.31484375,1.35029296875,1.3212890625,1.30517578125,1.35029296875,1.340625,1.30517578125,1.33095703125,1.32451171875,1.30517578125,1.3212890625,1.33095703125,1.32451171875,1.30517578125,1.29873046875,1.32451171875,1.31162109375,1.28583984375,1.31162109375,1.31484375,1.301953125,1.301953125,1.28583984375,1.28583984375,1.301953125,1.30517578125,1.301953125,1.30517578125,1.30517578125,1.301953125,1.31162109375,1.30517578125,1.2890625,1.301953125,1.340625,1.3599609375,1.340625,1.35029296875,1.36962890625,1.32451171875,1.31484375,1.3599609375,1.3470703125,1.30517578125,1.2890625,1.276171875,1.28583984375,1.27939453125,1.2697265625,1.27939453125,1.16982421875,1.11181640625,1.38896484375,1.89169921875,2.51044921875,2.9455078125,2.50078125,1.611328125,1.276171875,1.31162109375,1.2955078125,1.29873046875,1.29873046875,1.2955078125,1.33095703125,1.32451171875,1.3341796875,1.36962890625,1.353515625,1.340625,1.379296875,1.405078125,1.3986328125,1.4244140625,1.46953125,1.48564453125,1.508203125,1.559765625,1.61455078125,1.62099609375,1.63388671875,1.65966796875,1.6306640625,1.58876953125,1.5984375,1.5533203125,1.44375,1.405078125,1.3986328125,1.34384765625,1.3083984375,1.3341796875,1.327734375,1.30517578125,1.3083984375,1.31484375,1.3083984375,1.32451171875,1.327734375,1.31806640625,1.32451171875,1.31806640625,1.29873046875,1.31806640625,1.33740234375,1.327734375,1.32451171875,1.32451171875,1.327734375,1.3470703125,1.3341796875,1.31806640625,1.31806640625,1.301953125,1.31806640625,1.353515625,1.34384765625,1.3212890625,1.31806640625,1.3341796875,1.3470703125,1.3341796875,1.3083984375,1.31806640625,1.33095703125,1.327734375,1.3212890625,1.327734375,1.327734375,1.327734375,1.34384765625,1.327734375,1.31162109375,1.33095703125,1.33095703125,1.31806640625,1.33095703125,1.33740234375,1.327734375,1.31806640625,1.31162109375,1.34384765625,1.37607421875,1.3857421875,1.3921875,1.37607421875,1.3728515625,1.3857421875,1.36318359375,1.3470703125,1.38251953125,1.37607421875,1.327734375,1.3083984375,1.31806640625,1.3083984375,1.2890625,1.3083984375,1.26650390625,1.1279296875,1.2375,1.66611328125,2.24296875,2.8681640625,2.86171875,1.9916015625,1.3470703125,1.31806640625,1.301953125,1.2826171875,1.3470703125,1.31806640625,1.29873046875,1.353515625,1.34384765625,1.31806640625,1.3470703125,1.36318359375,1.3599609375,1.36318359375,1.405078125,1.45986328125,1.45341796875,1.45341796875,1.4953125,1.5404296875,1.59521484375,1.6177734375,1.61455078125,1.63388671875,1.65,1.6435546875,1.6048828125,1.533984375,1.50498046875,1.45341796875,1.379296875,1.35673828125,1.340625,1.32451171875,1.32451171875,1.31162109375,1.31162109375,1.31484375,1.301953125,1.29228515625,1.29228515625,1.301953125,1.31162109375,1.2955078125,1.29228515625,1.301953125,1.2826171875,1.27294921875,1.3212890625,1.33740234375,1.301953125,1.3083984375,1.31806640625,1.301953125,1.3083984375,1.3212890625,1.31806640625,1.3083984375,1.31162109375,1.301953125,1.29228515625,1.31162109375,1.32451171875,1.31162109375,1.31162109375,1.31484375,1.31484375,1.301953125,1.29228515625,1.3083984375,1.31484375,1.3083984375,1.31484375,1.32451171875,1.32451171875,1.31484375,1.30517578125,1.30517578125,1.31484375,1.31806640625,1.3083984375,1.32451171875,1.3341796875,1.31484375,1.31806640625,1.3341796875,1.32451171875,1.3341796875,1.3599609375,1.36962890625,1.36962890625,1.3857421875,1.3986328125,1.3857421875,1.37607421875,1.3599609375,1.340625,1.34384765625,1.33095703125,1.33095703125,1.35673828125,1.3341796875,1.2890625,1.17626953125,1.1408203125,1.46953125,2.0109375,2.65546875,3.029296875,2.436328125,1.533984375,1.31162109375,1.3599609375,1.31484375,1.33095703125,1.34384765625,1.3212890625,1.31162109375,1.32451171875,1.353515625,1.3599609375,1.3599609375,1.3986328125,1.405078125,1.39541015625,1.4244140625,1.44375,1.4630859375,1.52109375,1.533984375,1.5533203125,1.62099609375,1.63388671875,1.64033203125,1.67900390625,1.662890625,1.6048828125,1.559765625,1.5146484375,1.4630859375,1.41474609375,1.36318359375,1.32451171875,1.32451171875,1.31806640625,1.2826171875,1.2890625,1.29873046875,1.2890625,1.3083984375,1.327734375,1.29873046875,1.2890625,1.3083984375,1.31162109375,1.29873046875,1.2955078125,1.31162109375,1.301953125,1.2955078125,1.327734375,1.3470703125,1.30517578125,1.2955078125,1.3212890625,1.31484375,1.2955078125,1.2955078125,1.2955078125,1.2890625,1.301953125,1.29873046875,1.2890625,1.29873046875,1.3083984375,1.27939453125,1.276171875,1.29873046875,1.27939453125,1.2697265625,1.2955078125,1.31484375,1.2955078125,1.27294921875,1.29228515625,1.301953125,1.29228515625,1.301953125,1.31806640625,1.29873046875,1.2826171875,1.29873046875,1.327734375,1.3212890625,1.301953125,1.327734375,1.353515625,1.35673828125,1.35673828125,1.33740234375,1.33740234375,1.36640625,1.36640625,1.340625,1.2955078125,1.2697265625,1.301953125,1.3212890625,1.31484375,1.30517578125,1.21171875,1.13115234375,1.33095703125,1.82080078125,2.44921875,2.88427734375,2.475,1.5791015625,1.23427734375,1.2955078125,1.2955078125,1.3341796875,1.340625,1.3341796875,1.37607421875,1.3599609375,1.35029296875,1.36962890625,1.3857421875,1.405078125,1.3986328125,1.405078125,1.44375,1.47919921875,1.5146484375,1.533984375,1.5404296875,1.5791015625,1.62421875,1.64033203125,1.6693359375,1.67900390625,1.6693359375,1.65966796875,1.62099609375,1.5533203125,1.4888671875,1.43408203125,1.41474609375,1.36962890625,1.340625,1.36962890625,1.36640625,1.340625,1.34384765625,1.34384765625,1.33095703125,1.32451171875,1.32451171875,1.32451171875,1.32451171875,1.33095703125,1.33095703125,1.31484375,1.36640625,1.36640625,1.2697265625,1.276171875,1.3599609375,1.340625,1.30517578125,1.340625,1.3470703125,1.33740234375,1.33740234375,1.31806640625,1.301953125,1.340625,1.36640625,1.33740234375,1.301953125,1.3212890625,1.33740234375,1.31806640625,1.301953125,1.29228515625,1.27294921875,1.3083984375,1.38251953125,1.33740234375,1.27294921875,1.31484375,1.32451171875,1.2955078125,1.32451171875,1.34384765625,1.3341796875,1.35029296875,1.36640625,1.35673828125,1.340625,1.32451171875,1.35029296875,1.32451171875,1.24716796875,1.26650390625,1.327734375,1.31484375,1.28583984375,1.2375,1.1666015625,1.27294921875,1.637109375,2.152734375,2.616796875,2.54912109375,1.817578125,1.25361328125,1.25361328125,1.31806640625,1.29228515625,1.301953125,1.29873046875,1.29228515625,1.31484375,1.327734375,1.353515625,1.35029296875,1.32451171875,1.35029296875,1.379296875,1.37607421875,1.4244140625,1.46630859375,1.44375,1.4888671875,1.52431640625,1.5404296875,1.60166015625,1.61455078125,1.62421875,1.65,1.57587890625,1.52109375,1.51142578125,1.44697265625,1.39541015625,1.35029296875,1.30517578125,1.327734375,1.33095703125,1.31162109375,1.31806640625,1.30517578125,1.2955078125,1.31162109375,1.30517578125,1.2955078125,1.31162109375,1.31806640625,1.276171875,1.2826171875,1.327734375,1.31806640625,1.31162109375,1.33740234375,1.33095703125,1.3083984375,1.3212890625,1.327734375,1.301953125,1.31806640625,1.33740234375,1.31806640625,1.3212890625,1.340625,1.33095703125,1.327734375,1.31806640625,1.31162109375,1.33095703125,1.3212890625,1.2955078125,1.29228515625,1.301953125,1.31484375,1.31484375,1.31162109375,1.3212890625,1.31162109375,1.31162109375,1.340625,1.340625,1.3341796875,1.3470703125,1.3599609375,1.35673828125,1.3341796875,1.340625,1.36640625,1.34384765625,1.340625,1.353515625,1.31806640625,1.2890625,1.30517578125,1.31806640625,1.3341796875,1.250390625,1.173046875,1.3986328125,1.85947265625,2.39443359375,2.75859375,2.39443359375,1.5919921875,1.2890625,1.36640625,1.36640625,1.3470703125,1.3470703125,1.35673828125,1.3728515625,1.35673828125,1.35673828125,1.3921875,1.40185546875,1.40185546875,1.4115234375,1.430859375,1.44697265625,1.45986328125,1.4888671875,1.52431640625,1.54365234375,1.5791015625,1.62421875,1.65,1.65322265625,1.65,1.65,1.62744140625,1.56943359375,1.52431640625,1.47919921875,1.40185546875,1.37607421875,1.36318359375,1.3212890625,1.33095703125,1.3212890625,1.301953125,1.340625,1.3470703125,1.3212890625,1.33095703125,1.33095703125,1.31484375,1.31162109375,1.31162109375,1.31484375,1.32451171875,1.3341796875,1.33095703125,1.31484375,1.31484375,1.3341796875,1.340625,1.32451171875,1.3341796875,1.33740234375,1.31806640625,1.3083984375,1.29873046875,1.3083984375,1.3341796875,1.32451171875,1.301953125,1.3083984375,1.327734375,1.3212890625,1.301953125,1.327734375,1.33095703125,1.28583984375,1.31806640625,1.3470703125,1.3083984375,1.30517578125,1.3212890625,1.301953125,1.301953125,1.31162109375,1.30517578125,1.3212890625,1.33740234375,1.31484375,1.28583984375,1.2955078125,1.31162109375,1.301953125,1.29228515625,1.30517578125,1.301953125,1.31162109375,1.33740234375,1.3470703125,1.3470703125,1.35673828125,1.3470703125,1.35029296875,1.3599609375,1.35029296875,1.35029296875,1.340625,1.31162109375,1.301953125,1.31162109375,1.31806640625,1.2955078125,1.276171875,1.276171875,1.1859375,1.16337890625,1.49853515625,2.05283203125,2.62646484375,2.85205078125,2.2171875,1.42763671875,1.2826171875,1.31806640625,1.2826171875,1.31806640625,1.31484375,1.31484375,1.33740234375,1.31806640625,1.353515625,1.3728515625,1.3341796875,1.36962890625,1.42119140625,1.40830078125,1.42119140625,1.456640625,1.4759765625,1.51142578125,1.559765625,1.5919921875,1.62744140625,1.6564453125,1.662890625,1.662890625,1.67578125,1.6564453125,1.58876953125,1.533984375,1.482421875,1.4244140625,1.3921875,1.38251953125,1.36962890625,1.36318359375,1.34384765625,1.32451171875,1.33095703125,1.3341796875,1.3212890625,1.33740234375,1.340625,1.3212890625,1.340625,1.353515625,1.3212890625,1.34384765625,1.3470703125,1.3083984375,1.3341796875,1.353515625,1.327734375,1.3341796875,1.35029296875,1.340625,1.3341796875,1.35029296875,1.35029296875,1.33095703125,1.327734375,1.3470703125,1.340625,1.3212890625,1.327734375,1.33740234375,1.327734375,1.31806640625,1.327734375,1.3341796875,1.33095703125,1.3341796875,1.32451171875,1.30517578125,1.31484375,1.3341796875,1.33740234375,1.3212890625,1.31162109375,1.31806640625,1.3212890625,1.31162109375,1.29873046875,1.31162109375,1.3470703125,1.34384765625,1.29873046875,1.2890625,1.327734375,1.3599609375,1.3341796875,1.31484375,1.3341796875,1.340625,1.340625,1.3599609375,1.37607421875,1.37607421875,1.36640625,1.35029296875,1.3470703125,1.37607421875,1.3857421875,1.340625,1.31484375,1.31484375,1.2955078125,1.301953125,1.3212890625,1.3212890625,1.2568359375,1.15693359375,1.33095703125,1.84658203125,2.4556640625,2.91005859375,2.64580078125,1.72734375,1.250390625,1.31806640625,1.33095703125,1.31484375,1.31484375,1.2955078125,1.340625,1.33740234375,1.3212890625,1.36640625,1.3599609375,1.3341796875,1.379296875,1.4115234375,1.4115234375,1.430859375,1.43408203125,1.47919921875,1.5404296875,1.5533203125,1.59521484375,1.6435546875,1.65322265625,1.6435546875,1.65322265625,1.64677734375,1.60166015625,1.5275390625,1.47275390625,1.4373046875,1.40185546875,1.3599609375,1.32451171875,1.31484375,1.3083984375,1.2955078125,1.3083984375,1.3083984375,1.2890625,1.2826171875,1.29873046875,1.31806640625,1.3212890625,1.31162109375,1.31484375,1.32451171875,1.31484375,1.31484375,1.31484375,1.29228515625,1.301953125,1.327734375,1.31806640625,1.31162109375,1.3212890625,1.3083984375,1.30517578125,1.3083984375,1.3083984375,1.2890625,1.276171875,1.30517578125,1.31484375,1.30517578125,1.3083984375,1.31484375,1.29228515625,1.29228515625,1.3212890625,1.31806640625,1.29228515625,1.31162109375,1.32451171875,1.31484375,1.327734375,1.33740234375,1.301953125,1.31162109375,1.3470703125,1.33095703125,1.29873046875,1.3083984375,1.327734375,1.327734375,1.33095703125,1.35029296875,1.340625,1.340625,1.36962890625,1.36318359375,1.3599609375,1.379296875,1.3470703125,1.33095703125,1.3857421875,1.36962890625,1.301953125,1.2955078125,1.29873046875,1.29228515625,1.301953125,1.31806640625,1.24716796875,1.13115234375,1.21494140625,1.64677734375,2.27197265625,2.86171875,2.82626953125,1.959375,1.27939453125,1.2697265625,1.3083984375,1.27294921875,1.31162109375,1.301953125,1.276171875,1.301953125,1.327734375,1.33740234375,1.33740234375,1.3599609375,1.36962890625,1.35029296875,1.379296875,1.4244140625,1.44052734375,1.45986328125,1.48564453125,1.53076171875,1.57587890625,1.60166015625,1.64033203125,1.6693359375,1.65,1.64033203125,1.62099609375,1.56298828125,1.51142578125,1.4373046875,1.3728515625,1.36962890625,1.33740234375,1.30517578125,1.31806640625,1.3212890625,1.30517578125,1.30517578125,1.31806640625,1.327734375,1.32451171875,1.31484375,1.31484375,1.3212890625,1.327734375,1.33740234375,1.35029296875,1.34384765625,1.32451171875,1.327734375,1.3470703125,1.34384765625,1.340625,1.353515625,1.34384765625,1.34384765625,1.35029296875,1.34384765625,1.35029296875,1.3599609375,1.35673828125,1.3599609375,1.3599609375,1.35673828125,1.36640625,1.36318359375,1.36318359375,1.37607421875,1.38251953125,1.36962890625,1.35673828125,1.36318359375,1.37607421875,1.37607421875,1.36640625,1.3857421875,1.3857421875,1.379296875,1.38896484375,1.3857421875,1.35673828125,1.340625,1.34384765625,1.3921875,1.44375,1.4373046875,1.430859375,1.45986328125,1.47919921875,1.4759765625,1.46953125,1.46953125,1.47275390625,1.44697265625,1.4244140625,1.43408203125
1.32451171875,1.3341796875,1.3470703125,1.38251953125,1.4115234375,1.4373046875,1.482421875,1.50498046875,1.52109375,1.5919921875,1.65,1.66611328125,1.66611328125,1.63388671875,1.59521484375,1.5404296875,1.45986328125,1.38896484375,1.353515625,1.34384765625,1.31806640625,1.29873046875,1.29873046875,1.29228515625,1.2697265625,1.27294921875,1.301953125,1.31806640625,1.301953125,1.2826171875,1.29873046875,1.31806640625,1.3083984375,1.31162109375,1.33740234375,1.3212890625,1.30517578125,1.33095703125,1.31484375,1.31162109375,1.33095703125,1.33095703125,1.3341796875,1.31484375,1.31162109375,1.35673828125,1.34384765625,1.31484375,1.3341796875,1.31484375,1.3212890625,1.36640625,1.35029296875,1.31484375,1.31484375,1.340625,1.3599609375,1.353515625,1.34384765625,1.34384765625,1.34384765625,1.3341796875,1.3341796875,1.37607421875,1.39541015625,1.38896484375,1.37607421875,1.3599609375,1.37607421875,1.38896484375,1.3341796875,1.31484375,1.33095703125,1.32451171875,1.31162109375,1.31162109375,1.29873046875,1.21171875,1.18916015625,1.4501953125,1.894921875,2.4943359375,2.9197265625,2.410546875,1.4759765625,1.21171875,1.340625,1.33740234375,1.327734375,1.35029296875,1.3212890625,1.301953125,1.340625,1.36640625,1.35673828125,1.36640625,1.379296875,1.3986328125,1.42763671875,1.41474609375,1.4244140625,1.47919921875,1.4888671875,1.508203125,1.5791015625,1.62421875,1.65,1.6693359375,1.67578125,1.6693359375,1.64033203125,1.585546875,1.5275390625,1.4501953125,1.405078125,1.38251953125,1.33740234375,1.31162109375,1.3212890625,1.3083984375,1.27939453125,1.29228515625,1.31484375,1.29873046875,1.30517578125,1.31806640625,1.2890625,1.28583984375,1.31484375,1.3212890625,1.31484375,1.32451171875,1.31484375,1.301953125,1.31162109375,1.31806640625,1.31162109375,1.3212890625,1.31806640625,1.29873046875,1.301953125,1.3083984375,1.30517578125,1.29873046875,1.3212890625,1.3341796875,1.2890625,1.2697265625,1.31484375,1.30517578125,1.276171875,1.2955078125,1.301953125,1.301953125,1.29873046875,1.29873046875,1.301953125,1.301953125,1.327734375,1.327734375,1.31806640625,1.35029296875,1.340625,1.29873046875,1.32451171875,1.32451171875,1.2890625,1.2955078125,1.2826171875,1.2568359375,1.26650390625,1.2955078125,1.25361328125,1.11826171875,1.1537109375,1.49853515625,2.0173828125,2.642578125,2.848828125,2.152734375,1.38896484375,1.2439453125,1.2826171875,1.2955078125,1.31806640625,1.276171875,1.26650390625,1.31484375,1.3212890625,1.3212890625,1.340625,1.35029296875,1.340625,1.35029296875,1.3857421875,1.405078125,1.4373046875,1.4630859375,1.4759765625,1.546875,1.60166015625,1.5984375,1.6177734375,1.66611328125,1.67255859375,1.637109375,1.5984375,1.5533203125,1.47275390625,1.41796875,1.3986328125,1.353515625,1.31162109375,1.29228515625,1.2890625,1.31806640625,1.34384765625,1.3341796875,1.301953125,1.2826171875,1.301953125,1.3083984375,1.2826171875,1.31484375,1.3341796875,1.29873046875,1.3083984375,1.32451171875,1.31806640625,1.31484375,1.32451171875,1.31806640625,1.3083984375,1.301953125,1.3083984375,1.31484375,1.32451171875,1.31806640625,1.3083984375,1.32451171875,1.3341796875,1.32451171875,1.3212890625,1.31162109375,1.29873046875,1.31806640625,1.3341796875,1.33095703125,1.31806640625,1.29228515625,1.31806640625,1.3470703125,1.327734375,1.31806640625,1.33095703125,1.3212890625,1.2955078125,1.301953125,1.3212890625,1.3470703125,1.35029296875,1.3470703125,1.36962890625,1.3857421875,1.3599609375,1.35029296875,1.3599609375,1.35029296875,1.35673828125,1.340625,1.2955078125,1.30517578125,1.33095703125,1.3083984375,1.31484375,1.24072265625,1.1279296875,1.31806640625,1.74345703125,2.307421875,2.8939453125,2.6876953125,1.77890625,1.301953125,1.32451171875,1.327734375,1.353515625,1.36640625,1.3341796875,1.3341796875,1.3341796875,1.327734375,1.34384765625,1.36318359375,1.37607421875,1.3986328125,1.41796875,1.4373046875,1.4630859375,1.4759765625,1.4953125,1.5275390625,1.559765625,1.61455078125,1.637109375,1.637109375,1.6822265625,1.71123046875,1.66611328125,1.6048828125,1.5404296875,1.5017578125,1.4501953125,1.37607421875,1.35029296875,1.3599609375,1.34384765625,1.33095703125,1.32451171875,1.3083984375,1.3083984375,1.3341796875,1.340625,1.327734375,1.327734375,1.32451171875,1.3083984375,1.3083984375,1.31484375,1.31484375,1.32451171875,1.31484375,1.30517578125,1.31806640625,1.31806640625,1.31484375,1.327734375,1.33740234375,1.31806640625,1.31806640625,1.31806640625,1.301953125,1.3083984375,1.31806640625,1.31806640625,1.31162109375,1.301953125,1.29228515625,1.29228515625,1.3212890625,1.33740234375,1.31162109375,1.29873046875,1.31162109375,1.29873046875,1.2890625,1.31806640625,1.31806640625,1.3083984375,1.301953125,1.29228515625,1.29873046875,1.31806640625,1.31162109375,1.3083984375,1.31806640625,1.3212890625,1.31162109375,1.31162109375,1.327734375,1.33740234375,1.34384765625,1.353515625,1.353515625,1.34384765625,1.34384765625,1.353515625,1.34384765625,1.327734375,1.31806640625,1.29228515625,1.2826171875,1.2890625,1.29228515625,1.301953125,1.2439453125,1.147265625,1.25361328125,1.62744140625,2.21396484375,2.83916015625,2.78759765625,1.9142578125,1.301953125,1.301953125,1.31162109375,1.3083984375,1.35673828125,1.33740234375,1.3341796875,1.33740234375,1.327734375,1.3341796875,1.3470703125,1.379296875,1.3986328125,1.40185546875,1.41796875,1.43408203125,1.44697265625,1.49208984375,1.53720703125,1.57265625,1.61455078125,1.65,1.6693359375,1.6822265625,1.688671875,1.67255859375,1.62744140625,1.5791015625,1.52431640625,1.4501953125,1.3986328125,1.379296875,1.36318359375,1.3599609375,1.34384765625,1.31484375,1.3083984375,1.31806640625,1.31806640625,1.327734375,1.3341796875,1.3341796875,1.3341796875,1.31806640625,1.2955078125,1.30517578125,1.3341796875,1.34384765625,1.32451171875,1.3083984375,1.340625,1.3341796875,1.30517578125,1.31806640625,1.3341796875,1.327734375,1.34384765625,1.35029296875,1.327734375,1.30517578125,1.30517578125,1.32451171875,1.32451171875,1.3083984375,1.3083984375,1.3083984375,1.30517578125,1.31806640625,1.340625,1.30517578125,1.28583984375,1.32451171875,1.340625,1.327734375,1.3341796875,1.31806640625,1.29873046875,1.30517578125,1.32451171875,1.327734375,1.31484375,1.32451171875,1.327734375,1.3083984375,1.3083984375,1.3083984375,1.30517578125,1.32451171875,1.327734375,1.30517578125,1.3083984375,1.32451171875,1.3083984375,1.31484375,1.34384765625,1.31806640625,1.32451171875,1.3857421875,1.36962890625,1.340625,1.379296875,1.3728515625,1.340625,1.36318359375,1.3728515625,1.3341796875,1.29873046875,1.29873046875,1.32451171875,1.30517578125,1.30517578125,1.2955078125,1.16337890625,1.2052734375,1.5791015625,2.1205078125,2.7650390625,2.91328125,2.13017578125,1.36318359375,1.27939453125,1.34384765625,1.31806640625,1.340625,1.353515625,1.3599609375,1.340625,1.32451171875,1.36962890625,1.379296875,1.36962890625,1.379296875,1.40830078125,1.4501953125,1.45341796875,1.45341796875,1.48564453125,1.533984375,1.57587890625,1.585546875,1.62099609375,1.67900390625,1.68544921875,1.6951171875,1.714453125,1.67578125,1.61455078125,1.54365234375,1.47919921875,1.44052734375,1.38896484375,1.353515625,1.3599609375,1.35029296875,1.3212890625,1.31162109375,1.31484375,1.30517578125,1.3212890625,1.35029296875,1.340625,1.301953125,1.31484375,1.3341796875,1.301953125,1.31162109375,1.3470703125,1.33095703125,1.31162109375,1.32451171875,1.33095703125,1.32451171875,1.33095703125,1.327734375,1.31484375,1.35673828125,1.340625,1.29228515625,1.31484375,1.327734375,1.29228515625,1.327734375,1.33095703125,1.2955078125,1.30517578125,1.31806640625,1.2955078125,1.301953125,1.301953125,1.2955078125,1.3083984375,1.3212890625,1.3083984375,1.276171875,1.28583984375,1.33095703125,1.327734375,1.29228515625,1.301953125,1.31162109375,1.2890625,1.29873046875,1.31806640625,1.29873046875,1.29873046875,1.327734375,1.327734375,1.31162109375,1.3083984375,1.32451171875,1.36318359375,1.36962890625,1.33740234375,1.327734375,1.353515625,1.3599609375,1.33740234375,1.327734375,1.32451171875,1.29873046875,1.29228515625,1.2890625,1.2890625,1.29873046875,1.2052734375,1.134375,1.3986328125,1.869140625,2.4685546875,2.95517578125,2.52333984375,1.5791015625,1.23427734375,1.2955078125,1.29873046875,1.30517578125,1.2890625,1.31806640625,1.353515625,1.31806640625,1.3341796875,1.36962890625,1.3341796875,1.353515625,1.38896484375,1.379296875,1.40830078125,1.46953125,1.46953125,1.47275390625,1.54365234375,1.585546875,1.62421875,1.662890625,1.65966796875,1.67255859375,1.7080078125,1.662890625,1.5984375,1.56298828125,1.508203125,1.44375,1.38896484375,1.3599609375,1.33740234375,1.31806640625,1.31806640625,1.31484375,1.3083984375,1.31806640625,1.32451171875,1.327734375,1.31484375,1.2890625,1.30517578125,1.32451171875,1.31806640625,1.31806640625,1.3083984375,1.31806640625,1.34384765625,1.33740234375,1.31806640625,1.3083984375,1.3083984375,1.33740234375,1.35673828125,1.31162109375,1.31162109375,1.36318359375,1.34384765625,1.29873046875,1.31806640625,1.3341796875,1.31162109375,1.31806640625,1.327734375,1.3083984375,1.29873046875,1.3212890625,1.3212890625,1.28583984375,1.301953125,1.33740234375,1.31806640625,1.301953125,1.31162109375,1.2955078125,1.2955078125,1.33095703125,1.31162109375,1.29228515625,1.327734375,1.33095703125,1.31162109375,1.31162109375,1.30517578125,1.31162109375,1.33740234375,1.35029296875,1.3470703125,1.33095703125,1.35673828125,1.379296875,1.340625,1.31484375,1.35673828125,1.3599609375,1.3212890625,1.32451171875,1.31484375,1.27939453125,1.2890625,1.2955078125,1.250390625,1.1537109375,1.1408203125,1.44375,1.96904296875,2.60068359375,2.94873046875,2.3783203125,1.49853515625,1.2697265625,1.3083984375,1.2955078125,1.33740234375,1.31484375,1.29873046875,1.34384765625,1.353515625,1.3470703125,1.3599609375,1.38896484375,1.4244140625,1.43408203125,1.41474609375,1.44375,1.508203125,1.5017578125,1.5017578125,1.57265625,1.61455078125,1.63388671875,1.688671875,1.69833984375,1.67900390625,1.688671875,1.6822265625,1.62744140625,1.56298828125,1.508203125,1.44697265625,1.38251953125,1.35673828125,1.353515625,1.33740234375,1.31806640625,1.3083984375,1.29228515625,1.301953125,1.327734375,1.33095703125,1.31162109375,1.28583984375,1.301953125,1.327734375,1.3083984375,1.3083984375,1.3212890625,1.3083984375,1.29873046875,1.3083984375,1.33740234375,1.3470703125,1.29228515625,1.276171875,1.3212890625,1.31162109375,1.29228515625,1.31162109375,1.327734375,1.31806640625,1.29873046875,1.28583984375,1.31806640625,1.31806640625,1.276171875,1.31162109375,1.33095703125,1.29228515625,1.29228515625,1.301953125,1.3083984375,1.3212890625,1.301953125,1.2890625,1.31162109375,1.3083984375,1.31162109375,1.3212890625,1.27294921875,1.29228515625,1.34384765625,1.29228515625,1.2826171875,1.31806640625,1.301953125,1.327734375,1.35673828125,1.3470703125,1.3470703125,1.34384765625,1.33740234375,1.35673828125,1.3599609375,1.33740234375,1.31484375,1.3083984375,1.32451171875,1.3083984375,1.30517578125,1.30517578125,1.18916015625,1.11826171875,1.38896484375,1.8626953125,2.475,2.95517578125,2.52978515625,1.585546875,1.2439453125,1.32451171875,1.3083984375,1.29873046875,1.30517578125,1.30517578125,1.31484375,1.3083984375,1.33095703125,1.34384765625,1.34384765625,1.3599609375,1.379296875,1.38896484375,1.4115234375,1.430859375,1.44375,1.48564453125,1.53076171875,1.55654296875,1.59521484375,1.637109375,1.6564453125,1.6951171875,1.6951171875,1.6306640625,1.61455078125,1.585546875,1.46953125,1.405078125,1.405078125,1.36962890625,1.3212890625,1.31484375,1.33095703125,1.30517578125,1.28583984375,1.31806640625,1.31806640625,1.28583984375,1.2955078125,1.2955078125,1.31806640625,1.3470703125,1.31162109375,1.2955078125,1.31162109375,1.2826171875,1.2826171875,1.3212890625,1.31806640625,1.301953125,1.327734375,1.33740234375,1.31806640625,1.31806640625,1.3212890625,1.327734375,1.327734375,1.301953125,1.3083984375,1.3341796875,1.29873046875,1.2826171875,1.31806640625,1.301953125,1.2890625,1.3212890625,1.327734375,1.301953125,1.29873046875,1.31806640625,1.31806640625,1.29873046875,1.29873046875,1.3083984375,1.3341796875,1.3470703125,1.29873046875,1.31162109375,1.3921875,1.38251953125,1.33740234375,1.34384765625,1.3341796875,1.3341796875,1.34384765625,1.3083984375,1.2826171875,1.29873046875,1.301953125,1.29873046875,1.29873046875,1.24716796875,1.121484375,1.21171875,1.637109375,2.2171875,2.83271484375,2.848828125,1.946484375,1.26328125,1.27294921875,1.31806640625,1.301953125,1.3212890625,1.2890625,1.301953125,1.31806640625,1.3083984375,1.35673828125,1.3470703125,1.327734375,1.37607421875,1.3921875,1.3857421875,1.44052734375,1.4630859375,1.44697265625,1.51142578125,1.5919921875,1.58232421875,1.5919921875,1.68544921875,1.6951171875,1.662890625,1.68544921875,1.65,1.5662109375,1.51142578125,1.4501953125,1.42119140625,1.3857421875,1.33095703125,1.340625,1.34384765625,1.29873046875,1.2890625,1.29873046875,1.2890625,1.3083984375,1.31806640625,1.3083984375,1.30517578125,1.3083984375,1.31484375,1.31484375,1.3341796875,1.3341796875,1.29228515625,1.29873046875,1.31806640625,1.31806640625,1.327734375,1.31806640625,1.31162109375,1.327734375,1.31806640625,1.31162109375,1.31162109375,1.31162109375,1.3212890625,1.301953125,1.28583984375,1.2955078125,1.2955078125,1.31484375,1.340625,1.301953125,1.27939453125,1.31484375,1.3212890625,1.2890625,1.2890625,1.32451171875,1.3341796875,1.32451171875,1.340625,1.35029296875,1.3341796875,1.35029296875,1.34384765625,1.3083984375,1.3083984375,1.29873046875,1.26328125,1.2826171875,1.301953125,1.2568359375,1.25361328125,1.1923828125,1.11826171875,1.36318359375,1.84658203125,2.45244140625,2.89716796875,2.410546875,1.47275390625,1.1923828125,1.276171875,1.2697265625,1.301953125,1.2955078125,1.28583984375,1.3212890625,1.31484375,1.31162109375,1.3341796875,1.3470703125,1.36640625,1.40185546875,1.39541015625,1.38896484375,1.4501953125,1.4953125,1.47919921875,1.52109375,1.585546875,1.611328125,1.64033203125,1.67900390625,1.688671875,1.68544921875,1.65,1.5984375,1.5533203125,1.47919921875,1.405078125,1.379296875,1.3599609375,1.340625,1.30517578125,1.2955078125,1.3212890625,1.32451171875,1.301953125,1.2890625,1.30517578125,1.3212890625,1.2955078125,1.28583984375,1.31162109375,1.31162109375,1.2955078125,1.29228515625,1.29228515625,1.2955078125,1.31162109375,1.3212890625,1.301953125,1.3083984375,1.33740234375,1.31162109375,1.29228515625,1.31806640625,1.3083984375,1.31484375,1.340625,1.31484375,1.2955078125,1.3212890625,1.31162109375,1.301953125,1.3212890625,1.31806640625,1.301953125,1.301953125,1.31162109375,1.31162109375,1.29228515625,1.2955078125,1.31484375,1.31484375,1.3341796875,1.3470703125,1.340625,1.3470703125,1.3470703125,1.3341796875,1.33740234375,1.36318359375,1.36318359375,1.3341796875,1.28583984375,1.2697265625,1.29228515625,1.28583984375,1.2826171875,1.26650390625,1.15693359375,1.2697265625,1.69833984375,2.2236328125,2.771484375,2.68125,1.80146484375,1.24716796875,1.26328125,1.29873046875,1.31806640625,1.29873046875,1.2697265625,1.31484375,1.301953125,1.31162109375,1.36962890625,1.3599609375,1.34384765625,1.3857421875,1.39541015625,1.39541015625,1.430859375,1.46630859375,1.47919921875,1.508203125,1.56298828125,1.59521484375,1.61455078125,1.65,1.67255859375,1.662890625,1.662890625,1.63388671875,1.5533203125,1.4953125,1.4501953125,1.36962890625,1.327734375,1.33740234375,1.3470703125,1.34384765625,1.31806640625,1.301953125,1.327734375,1.340625,1.3083984375,1.31484375,1.33095703125,1.32451171875,1.33740234375,1.33740234375,1.327734375,1.340625,1.33095703125,1.31806640625,1.34384765625,1.34384765625,1.33095703125,1.33740234375,1.327734375,1.33740234375,1.3470703125,1.33740234375,1.33095703125,1.31806640625,1.31806640625,1.327734375,1.33740234375,1.3470703125,1.3341796875,1.31806640625,1.31806640625,1.32451171875,1.3470703125,1.33740234375,1.301953125,1.3212890625,1.32451171875,1.327734375,1.353515625,1.340625,1.35029296875,1.405078125,1.38896484375,1.33740234375,1.340625,1.353515625,1.3470703125,1.33095703125,1.3083984375,1.29228515625,1.2890625,1.276171875,1.27939453125,1.25361328125,1.15048828125,1.2439453125,1.60166015625,2.0818359375,2.65869140625,2.73603515625,1.96259765625,1.3212890625,1.26328125,1.2697265625,1.24716796875,1.26650390625,1.26328125,1.2697265625,1.29228515625,1.27294921875,1.26328125,1.2826171875,1.301953125,1.29228515625,1.29228515625
1.29873046875,1.327734375,1.3083984375,1.29873046875,1.31162109375,1.301953125,1.276171875,1.2826171875,1.301953125,1.327734375,1.33095703125,1.327734375,1.353515625,1.36640625,1.34384765625,1.33095703125,1.34384765625,1.33095703125,1.33740234375,1.3212890625,1.276171875,1.2890625,1.31162109375,1.29228515625,1.29873046875,1.22138671875,1.11181640625,1.301953125,1.72734375,2.29130859375,2.87783203125,2.67158203125,1.76279296875,1.2890625,1.3083984375,1.31162109375,1.33740234375,1.353515625,1.31806640625,1.31806640625,1.31806640625,1.31484375,1.327734375,1.35029296875,1.36318359375,1.38251953125,1.405078125,1.4244140625,1.4501953125,1.4630859375,1.48564453125,1.5146484375,1.55009765625,1.6048828125,1.62421875,1.62421875,1.6693359375,1.7015625,1.6564453125,1.59521484375,1.53076171875,1.49208984375,1.44052734375,1.36640625,1.340625,1.35029296875,1.33740234375,1.3212890625,1.31806640625,1.301953125,1.301953125,1.327734375,1.33095703125,1.3212890625,1.3212890625,1.31806640625,1.301953125,1.301953125,1.3083984375,1.3083984375,1.31806640625,1.3083984375,1.29873046875,1.31484375,1.31484375,1.3083984375,1.32451171875,1.3341796875,1.31484375,1.31484375,1.31484375,1.29873046875,1.30517578125,1.31484375,1.31484375,1.31162109375,1.301953125,1.29228515625,1.29228515625,1.3212890625,1.33740234375,1.31162109375,1.2955078125,1.31162109375,1.29873046875,1.28583984375,1.31806640625,1.31806640625,1.3083984375,1.301953125,1.29228515625,1.29873046875,1.31806640625,1.31484375,1.3083984375,1.31806640625,1.32451171875,1.31484375,1.31484375,1.327734375,1.340625,1.34384765625,1.353515625,1.353515625,1.34384765625,1.34384765625,1.353515625,1.34384765625,1.33095703125,1.3212890625,1.2955078125,1.28583984375,1.2890625,1.2955078125,1.30517578125,1.24716796875,1.15048828125,1.2568359375,1.6306640625,2.2171875,2.8423828125,2.7908203125,1.91748046875,1.30517578125,1.30517578125,1.31806640625,1.31162109375,1.36318359375,1.340625,1.33740234375,1.340625,1.33095703125,1.33740234375,1.35029296875,1.38251953125,1.40185546875,1.40830078125,1.42119140625,1.4373046875,1.45341796875,1.49853515625,1.5404296875,1.57587890625,1.6177734375,1.65322265625,1.67255859375,1.688671875,1.69189453125,1.67578125,1.6306640625,1.58232421875,1.5275390625,1.45341796875,1.40185546875,1.38251953125,1.36640625,1.36318359375,1.3470703125,1.31806640625,1.31162109375,1.3212890625,1.3212890625,1.33095703125,1.33740234375,1.33740234375,1.33740234375,1.3212890625,1.2955078125,1.30517578125,1.33740234375,1.3470703125,1.327734375,1.31162109375,1.340625,1.33740234375,1.30517578125,1.3212890625,1.33740234375,1.33095703125,1.3470703125,1.35029296875,1.33095703125,1.30517578125,1.30517578125,1.32451171875,1.32451171875,1.31162109375,1.31162109375,1.31162109375,1.30517578125,1.3212890625,1.340625,1.30517578125,1.28583984375,1.32451171875,1.340625,1.33095703125,1.3341796875,1.3212890625,1.29873046875,1.30517578125,1.32451171875,1.33095703125,1.31484375,1.32451171875,1.33095703125,1.3083984375,1.3083984375,1.3083984375,1.30517578125,1.32451171875,1.327734375,1.30517578125,1.3083984375,1.32451171875,1.3083984375,1.31484375,1.34384765625,1.31806640625,1.32451171875,1.38251953125,1.36962890625,1.33740234375,1.379296875,1.3728515625,1.33740234375,1.36318359375,1.3728515625,1.3341796875,1.29873046875,1.29873046875,1.32451171875,1.301953125,1.301953125,1.29228515625,1.16337890625,1.20205078125,1.5791015625,2.11728515625,2.76181640625,2.91328125,2.126953125,1.36318359375,1.27939453125,1.34384765625,1.31806640625,1.33740234375,1.353515625,1.35673828125,1.33740234375,1.32451171875,1.36962890625,1.379296875,1.36962890625,1.379296875,1.40830078125,1.44697265625,1.45341796875,1.45341796875,1.482421875,1.533984375,1.57265625,1.58232421875,1.6177734375,1.67900390625,1.6822265625,1.6951171875,1.714453125,1.67255859375,1.61455078125,1.54365234375,1.47919921875,1.4373046875,1.38896484375,1.353515625,1.3599609375,1.35029296875,1.31806640625,1.3083984375,1.31484375,1.30517578125,1.31806640625,1.35029296875,1.340625,1.29873046875,1.31484375,1.3341796875,1.29873046875,1.3083984375,1.34384765625,1.33095703125,1.31162109375,1.32451171875,1.33095703125,1.32451171875,1.33095703125,1.32451171875,1.31484375,1.35673828125,1.340625,1.29228515625,1.31484375,1.32451171875,1.29228515625,1.327734375,1.33095703125,1.2955078125,1.30517578125,1.31806640625,1.2955078125,1.301953125,1.301953125,1.2955078125,1.3083984375,1.3212890625,1.3083984375,1.276171875,1.28583984375,1.33095703125,1.327734375,1.29228515625,1.301953125,1.31162109375,1.2890625,1.29873046875,1.31806640625,1.29873046875,1.29873046875,1.327734375,1.327734375,1.31484375,1.3083984375,1.32451171875,1.36318359375,1.36962890625,1.33740234375,1.327734375,1.353515625,1.3599609375,1.33740234375,1.327734375,1.32451171875,1.29873046875,1.2955078125,1.2890625,1.2890625,1.29873046875,1.2052734375,1.134375,1.3986328125,1.869140625,2.4685546875,2.95517578125,2.52333984375,1.5791015625,1.23427734375,1.2955078125,1.29873046875,1.30517578125,1.2890625,1.31806640625,1.353515625,1.3212890625,1.3341796875,1.36962890625,1.3341796875,1.353515625,1.38896484375,1.379296875,1.40830078125,1.46953125,1.46953125,1.4759765625,1.54365234375,1.585546875,1.62421875,1.66611328125,1.65966796875,1.67578125,1.7080078125,1.662890625,1.5984375,1.56298828125,1.508203125,1.44375,1.38896484375,1.3599609375,1.340625,1.31806640625,1.31806640625,1.31484375,1.3083984375,1.31806640625,1.32451171875,1.327734375,1.31484375,1.2890625,1.30517578125,1.32451171875,1.31806640625,1.31806640625,1.3083984375,1.31806640625,1.34384765625,1.33740234375,1.31806640625,1.3083984375,1.3083984375,1.33740234375,1.35673828125,1.31162109375,1.31162109375,1.36318359375,1.34384765625,1.29873046875,1.31806640625,1.33095703125,1.31162109375,1.31806640625,1.327734375,1.30517578125,1.2955078125,1.3212890625,1.3212890625,1.28583984375,1.301953125,1.33740234375,1.31484375,1.301953125,1.31162109375,1.2955078125,1.2955078125,1.33095703125,1.31162109375,1.2890625,1.32451171875,1.33095703125,1.31162109375,1.3083984375,1.30517578125,1.3083984375,1.3341796875,1.35029296875,1.34384765625,1.33095703125,1.353515625,1.379296875,1.340625,1.31484375,1.353515625,1.3599609375,1.31806640625,1.32451171875,1.31484375,1.27939453125,1.2890625,1.29228515625,1.24716796875,1.1537109375,1.13759765625,1.44375,1.96904296875,2.5974609375,2.94873046875,2.3783203125,1.49853515625,1.26650390625,1.3083984375,1.29228515625,1.33740234375,1.31162109375,1.29873046875,1.34384765625,1.353515625,1.3470703125,1.35673828125,1.3857421875,1.42119140625,1.430859375,1.4115234375,1.44375,1.508203125,1.5017578125,1.5017578125,1.57265625,1.611328125,1.6306640625,1.688671875,1.69833984375,1.67578125,1.68544921875,1.6822265625,1.62744140625,1.56298828125,1.508203125,1.44697265625,1.38251953125,1.35673828125,1.353515625,1.33740234375,1.31806640625,1.3083984375,1.29228515625,1.301953125,1.327734375,1.33095703125,1.31162109375,1.28583984375,1.301953125,1.327734375,1.3083984375,1.3083984375,1.3212890625,1.3083984375,1.29873046875,1.3083984375,1.33740234375,1.3470703125,1.29228515625,1.27939453125,1.32451171875,1.31162109375,1.29228515625,1.31484375,1.327734375,1.31806640625,1.29873046875,1.2890625,1.31806640625,1.31806640625,1.27939453125,1.31484375,1.3341796875,1.2955078125,1.2955078125,1.30517578125,1.3083984375,1.32451171875,1.30517578125,1.2890625,1.31484375,1.3083984375,1.31484375,1.32451171875,1.276171875,1.2955078125,1.34384765625,1.2955078125,1.28583984375,1.3212890625,1.30517578125,1.33095703125,1.3599609375,1.35029296875,1.35029296875,1.3470703125,1.340625,1.3599609375,1.3599609375,1.340625,1.31484375,1.31162109375,1.327734375,1.31162109375,1.30517578125,1.3083984375,1.1923828125,1.121484375,1.3921875,1.86591796875,2.47822265625,2.9583984375,2.5330078125,1.58876953125,1.24716796875,1.327734375,1.31162109375,1.301953125,1.3083984375,1.3083984375,1.31806640625,1.31162109375,1.3341796875,1.3470703125,1.3470703125,1.36318359375,1.38251953125,1.3921875,1.41474609375,1.43408203125,1.44697265625,1.4888671875,1.533984375,1.559765625,1.5984375,1.637109375,1.65966796875,1.69833984375,1.69833984375,1.63388671875,1.6177734375,1.58876953125,1.47275390625,1.40830078125,1.40830078125,1.3728515625,1.32451171875,1.31806640625,1.3341796875,1.3083984375,1.2890625,1.31806640625,1.31806640625,1.2890625,1.29873046875,1.29873046875,1.31806640625,1.3470703125,1.31484375,1.29873046875,1.31484375,1.2826171875,1.2826171875,1.32451171875,1.31806640625,1.301953125,1.327734375,1.33740234375,1.31806640625,1.31806640625,1.3212890625,1.327734375,1.327734375,1.301953125,1.3083984375,1.33095703125,1.29873046875,1.2826171875,1.31806640625,1.301953125,1.28583984375,1.3212890625,1.327734375,1.301953125,1.2955078125,1.31484375,1.31484375,1.2955078125,1.2955078125,1.30517578125,1.33095703125,1.3470703125,1.2955078125,1.31162109375,1.38896484375,1.379296875,1.3341796875,1.340625,1.33095703125,1.33095703125,1.340625,1.30517578125,1.27939453125,1.2955078125,1.29873046875,1.29228515625,1.29228515625,1.2439453125,1.11826171875,1.20849609375,1.63388671875,2.21396484375,2.82626953125,2.8423828125,1.94326171875,1.2568359375,1.26650390625,1.31162109375,1.2955078125,1.31806640625,1.2826171875,1.2955078125,1.31162109375,1.301953125,1.35029296875,1.340625,1.3212890625,1.36962890625,1.3857421875,1.379296875,1.43408203125,1.45341796875,1.44052734375,1.50498046875,1.585546875,1.57587890625,1.585546875,1.67900390625,1.688671875,1.65322265625,1.67900390625,1.6435546875,1.559765625,1.5017578125,1.44375,1.4115234375,1.379296875,1.32451171875,1.3341796875,1.33740234375,1.29228515625,1.2826171875,1.29228515625,1.2826171875,1.301953125,1.31162109375,1.301953125,1.2955078125,1.301953125,1.3083984375,1.3083984375,1.327734375,1.327734375,1.28583984375,1.29228515625,1.31162109375,1.31162109375,1.3212890625,1.31162109375,1.30517578125,1.3212890625,1.31162109375,1.30517578125,1.30517578125,1.30517578125,1.31806640625,1.2955078125,1.2826171875,1.29228515625,1.29228515625,1.31162109375,1.33740234375,1.2955078125,1.276171875,1.31162109375,1.31806640625,1.28583984375,1.28583984375,1.3212890625,1.33095703125,1.3212890625,1.33740234375,1.3470703125,1.3341796875,1.3470703125,1.34384765625,1.3083984375,1.3083984375,1.29873046875,1.26328125,1.2826171875,1.30517578125,1.26005859375,1.25361328125,1.19560546875,1.11826171875,1.36318359375,1.8498046875,2.4556640625,2.900390625,2.41376953125,1.4759765625,1.19560546875,1.27939453125,1.276171875,1.30517578125,1.301953125,1.29228515625,1.327734375,1.3212890625,1.31806640625,1.34384765625,1.353515625,1.3728515625,1.40830078125,1.405078125,1.3986328125,1.45986328125,1.50498046875,1.4888671875,1.53076171875,1.59521484375,1.62099609375,1.65,1.69189453125,1.7015625,1.6951171875,1.662890625,1.611328125,1.5662109375,1.49208984375,1.41796875,1.3921875,1.3728515625,1.353515625,1.31806640625,1.3083984375,1.3341796875,1.340625,1.31484375,1.30517578125,1.3212890625,1.33740234375,1.31162109375,1.301953125,1.327734375,1.327734375,1.31162109375,1.3083984375,1.3083984375,1.31162109375,1.327734375,1.33740234375,1.31806640625,1.32451171875,1.353515625,1.33095703125,1.3083984375,1.3341796875,1.32451171875,1.33095703125,1.35673828125,1.33095703125,1.31162109375,1.33740234375,1.327734375,1.31806640625,1.33740234375,1.33095703125,1.31806640625,1.31806640625,1.327734375,1.327734375,1.3083984375,1.3083984375,1.327734375,1.327734375,1.35029296875,1.3599609375,1.353515625,1.3599609375,1.3599609375,1.34384765625,1.35029296875,1.37607421875,1.37607421875,1.34384765625,1.2955078125,1.27939453125,1.29873046875,1.2955078125,1.2890625,1.276171875,1.1666015625,1.276171875,1.70478515625,2.230078125,2.77470703125,2.68447265625,1.8046875,1.250390625,1.26650390625,1.29873046875,1.3212890625,1.29873046875,1.2697265625,1.31484375,1.29873046875,1.3083984375,1.36318359375,1.353515625,1.340625,1.379296875,1.38896484375,1.38896484375,1.4244140625,1.45986328125,1.46953125,1.49853515625,1.5533203125,1.58232421875,1.60166015625,1.637109375,1.6564453125,1.64677734375,1.64677734375,1.6177734375,1.53720703125,1.4759765625,1.430859375,1.35029296875,1.30517578125,1.31484375,1.32451171875,1.31806640625,1.29228515625,1.27939453125,1.301953125,1.31162109375,1.2826171875,1.28583984375,1.301953125,1.2955078125,1.30517578125,1.30517578125,1.2955078125,1.3083984375,1.29873046875,1.2826171875,1.3083984375,1.3083984375,1.29873046875,1.301953125,1.29228515625,1.301953125,1.31162109375,1.301953125,1.2955078125,1.27939453125,1.27939453125,1.2890625,1.29873046875,1.3083984375,1.29873046875,1.2826171875,1.2826171875,1.28583984375,1.31162109375,1.29873046875,1.26328125,1.2826171875,1.2890625,1.29228515625,1.31806640625,1.3083984375,1.31806640625,1.3728515625,1.35673828125,1.30517578125,1.31162109375,1.32451171875,1.31806640625,1.30517578125,1.2826171875,1.26650390625,1.26650390625,1.2568359375,1.26328125,1.2375,1.13759765625,1.2310546875,1.58876953125,2.075390625,2.65546875,2.7328125,1.96259765625,1.32451171875,1.2697265625,1.27939453125,1.2568359375,1.2826171875,1.2826171875,1.29228515625,1.31484375,1.301953125,1.2955078125,1.3212890625,1.34384765625,1.340625,1.34384765625,1.379296875,1.40830078125,1.430859375,1.44052734375,1.45986328125,1.51787109375,1.58232421875,1.62421875,1.63388671875,1.63388671875,1.69833984375,1.7595703125,1.71767578125,1.662890625,1.58876953125,1.4888671875,1.456640625,1.43408203125,1.40185546875,1.40830078125,1.36962890625,1.327734375,1.353515625,1.353515625,1.35029296875,1.36318359375,1.340625,1.31806640625,1.340625,1.34384765625,1.33095703125,1.32451171875,1.3341796875,1.340625,1.3212890625,1.30517578125,1.33740234375,1.35029296875,1.31806640625,1.31162109375,1.33740234375,1.3341796875,1.3341796875,1.34384765625,1.327734375,1.32451171875,1.3341796875,1.32451171875,1.30517578125,1.301953125,1.30517578125,1.31162109375,1.301953125,1.31484375,1.32451171875,1.31484375,1.3083984375,1.3212890625,1.301953125,1.2826171875,1.31162109375,1.3212890625,1.301953125,1.31484375,1.340625,1.34384765625,1.340625,1.35029296875,1.36318359375,1.353515625,1.33740234375,1.36318359375,1.36962890625,1.33095703125,1.2955078125,1.28583984375,1.29228515625,1.3083984375,1.29873046875,1.29873046875,1.24072265625,1.12470703125,1.28583984375,1.766015625,2.3267578125,2.83916015625,2.65869140625,1.74345703125,1.2697265625,1.35029296875,1.31806640625,1.301953125,1.3470703125,1.31806640625,1.32451171875,1.3341796875,1.33095703125,1.36640625,1.36318359375,1.36640625,1.3986328125,1.3921875,1.41474609375,1.45341796875,1.47919921875,1.5017578125,1.5275390625,1.5662109375,1.62099609375,1.64677734375,1.67255859375,1.67255859375,1.65,1.65966796875,1.64033203125,1.546875,1.4759765625,1.44697265625,1.405078125,1.38251953125,1.353515625,1.31806640625,1.327734375,1.3341796875,1.3083984375,1.31484375,1.34384765625,1.353515625,1.3341796875,1.31484375,1.327734375,1.35029296875,1.35029296875,1.34384765625,1.34384765625,1.3341796875,1.31806640625,1.32451171875,1.3341796875,1.34384765625,1.33740234375,1.31162109375,1.31806640625,1.34384765625,1.3470703125,1.3212890625,1.31484375,1.33740234375,1.33095703125,1.31484375,1.31484375,1.3083984375,1.31806640625,1.3341796875,1.31162109375,1.29228515625,1.301953125,1.32451171875,1.3083984375,1.29228515625,1.3083984375,1.31162109375,1.31484375,1.3212890625,1.30517578125,1.31806640625,1.31162109375,1.27294921875,1.2955078125,1.32451171875,1.29873046875,1.29873046875,1.3212890625,1.31484375,1.30517578125,1.3083984375,1.31806640625,1.31162109375,1.31484375,1.353515625,1.35673828125,1.2955078125,1.30517578125,1.353515625,1.34384765625,1.31484375,1.2890625,1.26005859375,1.26328125,1.276171875,1.26650390625,1.26005859375,1.198828125,1.13759765625,1.3341796875,1.7982421875,2.44599609375,2.9326171875,2.5265625,1.59521484375,1.2439453125,1.31162109375,1.28583984375,1.2890625,1.29228515625,1.26328125,1.2955078125,1.30517578125,1.29873046875,1.3341796875,1.33095703125,1.31162109375,1.340625,1.36318359375,1.36318359375,1.3921875,1.44697265625,1.48564453125,1.4953125,1.50498046875,1.5662109375,1.63388671875,1.6435546875,1.64033203125,1.6435546875,1.64033203125,1.611328125,1.5404296875,1.4759765625,1.41474609375,1.35673828125,1.33740234375,1.3341796875,1.3083984375,1.29873046875,1.30517578125,1.31162109375,1.301953125,1.30517578125,1.3212890625,1.3083984375,1.301953125,1.3212890625,1.3212890625,1.31162109375,1.340625,1.35673828125,1.35673828125,1.3599609375,1.35673828125
1.379296875,1.37607421875,1.3728515625,1.37607421875,1.38251953125,1.3921875,1.39541015625,1.37607421875,1.35673828125,1.37607421875,1.3857421875,1.3599609375,1.3599609375,1.36640625,1.3599609375,1.3599609375,1.35029296875,1.353515625,1.3599609375,1.34384765625,1.34384765625,1.3599609375,1.35029296875,1.3470703125,1.33740234375,1.3341796875,1.353515625,1.353515625,1.33740234375,1.3470703125,1.33740234375,1.31806640625,1.31162109375,1.31806640625,1.33095703125,1.31484375,1.32451171875,1.3599609375,1.3470703125,1.32451171875,1.35029296875,1.35029296875,1.3341796875,1.3341796875,1.31484375,1.3083984375,1.33095703125,1.340625,1.31806640625,1.31484375,1.34384765625,1.3470703125,1.31484375,1.31806640625,1.3341796875,1.3341796875,1.34384765625,1.353515625,1.35673828125,1.36318359375,1.36318359375,1.353515625,1.3470703125,1.353515625,1.340625,1.327734375,1.31806640625,1.29228515625,1.28583984375,1.29228515625,1.2955078125,1.27294921875,1.147265625,1.17626953125,1.5404296875,2.1076171875,2.77470703125,2.96484375,2.1849609375,1.39541015625,1.2955078125,1.33095703125,1.30517578125,1.33095703125,1.301953125,1.301953125,1.340625,1.35029296875,1.36640625,1.37607421875,1.37607421875,1.39541015625,1.4115234375,1.41474609375,1.44052734375,1.456640625,1.45986328125,1.5146484375,1.5404296875,1.55009765625,1.62744140625,1.65966796875,1.6822265625,1.74990234375,1.78212890625,1.7853515625,1.80146484375,1.766015625,1.71123046875,1.6306640625,1.5275390625,1.4759765625,1.42763671875,1.36640625,1.35673828125,1.34384765625,1.327734375,1.327734375,1.31806640625,1.31806640625,1.3341796875,1.327734375,1.31162109375,1.3083984375,1.3083984375,1.30517578125,1.3083984375,1.3083984375,1.29873046875,1.3083984375,1.32451171875,1.3083984375,1.2890625,1.2890625,1.3212890625,1.3212890625,1.2955078125,1.31162109375,1.31162109375,1.29228515625,1.2955078125,1.301953125,1.2955078125,1.31162109375,1.3212890625,1.2955078125,1.2826171875,1.28583984375,1.276171875,1.27294921875,1.29228515625,1.29228515625,1.2826171875,1.29873046875,1.3083984375,1.29873046875,1.29228515625,1.2890625,1.2826171875,1.2890625,1.28583984375,1.27939453125,1.29873046875,1.29873046875,1.28583984375,1.2890625,1.2890625,1.276171875,1.276171875,1.27939453125,1.2826171875,1.2826171875,1.2826171875,1.2826171875,1.2826171875,1.29228515625,1.2955078125,1.28583984375,1.301953125,1.33740234375,1.3470703125,1.3470703125,1.3341796875,1.3083984375,1.327734375,1.35673828125,1.32451171875,1.27294921875,1.2697265625,1.27294921875,1.27939453125,1.26328125,1.26328125,1.2826171875,1.173046875,1.11826171875,1.430859375,1.9400390625,2.60390625,3.00029296875,2.40087890625,1.508203125,1.28583984375,1.32451171875,1.30517578125,1.35029296875,1.340625,1.29873046875,1.33095703125,1.34384765625,1.32451171875,1.34384765625,1.3599609375,1.3599609375,1.3857421875,1.4115234375,1.42119140625,1.44697265625,1.45986328125,1.4759765625,1.51142578125,1.55654296875,1.6048828125,1.64677734375,1.69189453125,1.7466796875,1.77568359375,1.791796875,1.81435546875,1.791796875,1.7208984375,1.65966796875,1.56943359375,1.4759765625,1.4244140625,1.40185546875,1.37607421875,1.35673828125,1.3341796875,1.32451171875,1.32451171875,1.31484375,1.3341796875,1.340625,1.3083984375,1.30517578125,1.32451171875,1.3212890625,1.32451171875,1.340625,1.33095703125,1.30517578125,1.327734375,1.340625,1.31484375,1.327734375,1.3341796875,1.31484375,1.33740234375,1.3341796875,1.32451171875,1.33740234375,1.31806640625,1.31484375,1.33740234375,1.32451171875,1.31162109375,1.32451171875,1.31162109375,1.31806640625,1.327734375,1.3083984375,1.31162109375,1.327734375,1.31806640625,1.29873046875,1.301953125,1.31806640625,1.3083984375,1.3083984375,1.3212890625,1.3212890625,1.31806640625,1.30517578125,1.29228515625,1.2955078125,1.2955078125,1.29228515625,1.31162109375,1.3212890625,1.31484375,1.3212890625,1.32451171875,1.3212890625,1.30517578125,1.29873046875,1.30517578125,1.30517578125,1.3083984375,1.31484375,1.31484375,1.31484375,1.32451171875,1.3599609375,1.379296875,1.3599609375,1.340625,1.3341796875,1.340625,1.34384765625,1.327734375,1.31484375,1.29228515625,1.2697265625,1.2826171875,1.27294921875,1.2568359375,1.2890625,1.20205078125,1.1021484375,1.36962890625,1.92392578125,2.578125,2.99384765625,2.47177734375,1.546875,1.27294921875,1.34384765625,1.3083984375,1.31162109375,1.3341796875,1.31806640625,1.31806640625,1.3212890625,1.327734375,1.33740234375,1.36640625,1.37607421875,1.3728515625,1.40185546875,1.41796875,1.42119140625,1.44697265625,1.4888671875,1.53076171875,1.55654296875,1.5919921875,1.637109375,1.67578125,1.71767578125,1.753125,1.78212890625,1.80146484375,1.78212890625,1.7337890625,1.65322265625,1.5533203125,1.4888671875,1.4373046875,1.37607421875,1.35673828125,1.35673828125,1.327734375,1.3212890625,1.33740234375,1.327734375,1.31806640625,1.3212890625,1.31806640625,1.31162109375,1.31162109375,1.3212890625,1.327734375,1.31162109375,1.31806640625,1.31162109375,1.3083984375,1.3341796875,1.3341796875,1.31162109375,1.31806640625,1.31806640625,1.31806640625,1.3341796875,1.3341796875,1.31806640625,1.3083984375,1.31484375,1.31806640625,1.31806640625,1.31484375,1.30517578125,1.2955078125,1.2955078125,1.31484375,1.3083984375,1.2955078125,1.30517578125,1.3083984375,1.3083984375,1.31806640625,1.31484375,1.31484375,1.31806640625,1.2955078125,1.2890625,1.29873046875,1.28583984375,1.2955078125,1.3212890625,1.2955078125,1.27939453125,1.31484375,1.31484375,1.29873046875,1.31484375,1.31484375,1.30517578125,1.2890625,1.2955078125,1.30517578125,1.301953125,1.29228515625,1.2955078125,1.2955078125,1.30517578125,1.31484375,1.31162109375,1.33095703125,1.35673828125,1.340625,1.33095703125,1.340625,1.33740234375,1.340625,1.33095703125,1.30517578125,1.30517578125,1.29228515625,1.27294921875,1.2955078125,1.29228515625,1.2826171875,1.22783203125,1.1279296875,1.2826171875,1.766015625,2.39765625,2.96162109375,2.7328125,1.78212890625,1.29228515625,1.340625,1.3212890625,1.31806640625,1.36318359375,1.3212890625,1.30517578125,1.35673828125,1.36318359375,1.33740234375,1.36318359375,1.38251953125,1.36640625,1.3921875,1.42119140625,1.42763671875,1.456640625,1.48564453125,1.51142578125,1.55009765625,1.5919921875,1.62099609375,1.67578125,1.7208984375,1.7466796875,1.77568359375,1.80146484375,1.78212890625,1.74990234375,1.69189453125,1.585546875,1.52109375,1.46953125,1.39541015625,1.36962890625,1.36962890625,1.33740234375,1.33740234375,1.340625,1.31162109375,1.31484375,1.32451171875,1.32451171875,1.3341796875,1.31484375,1.31162109375,1.340625,1.32451171875,1.30517578125,1.31484375,1.3083984375,1.30517578125,1.3212890625,1.3212890625,1.31484375,1.31806640625,1.33095703125,1.340625,1.32451171875,1.30517578125,1.32451171875,1.32451171875,1.29873046875,1.32451171875,1.327734375,1.3083984375,1.32451171875,1.29873046875,1.2826171875,1.31484375,1.29228515625,1.29873046875,1.31806640625,1.2826171875,1.2826171875,1.32451171875,1.31162109375,1.2826171875,1.2826171875,1.29228515625,1.301953125,1.29228515625,1.26650390625,1.2890625,1.31162109375,1.301953125,1.301953125,1.31162109375,1.301953125,1.2955078125,1.31806640625,1.31806640625,1.3083984375,1.30517578125,1.301953125,1.2955078125,1.30517578125,1.301953125,1.31162109375,1.327734375,1.3212890625,1.327734375,1.33740234375,1.33740234375,1.36640625,1.36962890625,1.3470703125,1.340625,1.33740234375,1.33740234375,1.35029296875,1.35029296875,1.340625,1.30517578125,1.28583984375,1.301953125,1.27939453125,1.301953125,1.28583984375,1.14404296875,1.20205078125,1.559765625,2.17529296875,2.86171875,2.6619140625,1.68544921875,1.26650390625,1.35673828125,1.3212890625,1.33095703125,1.36962890625,1.33095703125,1.35029296875,1.36640625,1.35029296875,1.36962890625,1.3921875,1.379296875,1.3921875,1.41474609375,1.44697265625,1.46630859375,1.4759765625,1.50498046875,1.53076171875,1.55009765625,1.60166015625,1.64677734375,1.68544921875,1.740234375,1.791796875,1.82724609375,1.82080078125,1.7982421875,1.7724609375,1.68544921875,1.58232421875,1.52109375,1.456640625,1.3921875,1.37607421875,1.3470703125,1.3212890625,1.34384765625,1.3341796875,1.32451171875,1.3341796875,1.31162109375,1.31484375,1.327734375,1.31484375,1.32451171875,1.35029296875,1.34384765625,1.31484375,1.27939453125,1.29873046875,1.34384765625,1.31484375,1.2890625,1.32451171875,1.33095703125,1.31162109375,1.3212890625,1.31484375,1.301953125,1.301953125,1.2955078125,1.31162109375,1.3212890625,1.30517578125,1.29228515625,1.2826171875,1.2826171875,1.301953125,1.301953125,1.29228515625,1.2890625,1.2890625,1.29873046875,1.29873046875,1.2890625,1.29873046875,1.2826171875,1.2697265625,1.27939453125,1.28583984375,1.30517578125,1.29873046875,1.2890625,1.31484375,1.29873046875,1.28583984375,1.31162109375,1.30517578125,1.30517578125,1.3212890625,1.31162109375,1.31162109375,1.31162109375,1.31162109375,1.327734375,1.3083984375,1.28583984375,1.31806640625,1.33740234375,1.34384765625,1.35673828125,1.36640625,1.36318359375,1.33740234375,1.33740234375,1.353515625,1.3599609375,1.36318359375,1.34384765625,1.30517578125,1.29873046875,1.3083984375,1.29873046875,1.2955078125,1.30517578125,1.21494140625,1.16015625,1.3986328125,1.87880859375,2.50400390625,2.900390625,2.38154296875,1.46953125,1.23427734375,1.32451171875,1.2955078125,1.3470703125,1.36962890625,1.33095703125,1.340625,1.3470703125,1.36640625,1.40185546875,1.37607421875,1.37607421875,1.4115234375,1.41474609375,1.430859375,1.4501953125,1.46630859375,1.49208984375,1.53720703125,1.58232421875,1.62099609375,1.66611328125,1.7208984375,1.7595703125,1.7853515625,1.82080078125,1.82080078125,1.78212890625,1.740234375,1.7015625,1.59521484375,1.48564453125,1.44375,1.3986328125,1.353515625,1.3599609375,1.3341796875,1.30517578125,1.31806640625,1.32451171875,1.327734375,1.3341796875,1.29873046875,1.29228515625,1.30517578125,1.29873046875,1.31806640625,1.327734375,1.31162109375,1.301953125,1.31162109375,1.327734375,1.301953125,1.29228515625,1.3212890625,1.31806640625,1.31162109375,1.31484375,1.2955078125,1.2955078125,1.301953125,1.28583984375,1.29873046875,1.30517578125,1.27939453125,1.2955078125,1.3083984375,1.2826171875,1.27939453125,1.301953125,1.3083984375,1.29228515625,1.27294921875,1.2568359375,1.26328125,1.28583984375,1.2955078125,1.28583984375,1.29228515625,1.28583984375,1.26650390625,1.27939453125,1.2955078125,1.27939453125,1.2955078125,1.30517578125,1.2826171875,1.2697265625,1.27294921875,1.29228515625,1.29873046875,1.2826171875,1.2826171875,1.29228515625,1.30517578125,1.3212890625,1.31162109375,1.31484375,1.32451171875,1.30517578125,1.30517578125,1.31806640625,1.2826171875,1.26328125,1.27939453125,1.27939453125,1.2568359375,1.26328125,1.29873046875,1.2375,1.11826171875,1.24716796875,1.65,2.2365234375,2.82626953125,2.67158203125,1.766015625,1.224609375,1.2697265625,1.31484375,1.30517578125,1.31484375,1.30517578125,1.32451171875,1.33740234375,1.327734375,1.3341796875,1.353515625,1.36318359375,1.35673828125,1.3728515625,1.40185546875,1.42119140625,1.44052734375,1.46630859375,1.49208984375,1.52109375,1.57587890625,1.62099609375,1.65,1.7015625,1.740234375,1.766015625,1.8046875,1.7853515625,1.73056640625,1.688671875,1.61455078125,1.52109375,1.46953125,1.4115234375,1.353515625,1.35029296875,1.353515625,1.340625,1.32451171875,1.32451171875,1.32451171875,1.3083984375,1.30517578125,1.30517578125,1.3083984375,1.32451171875,1.33095703125,1.31484375,1.31484375,1.3212890625,1.31484375,1.31484375,1.3212890625,1.33095703125,1.33095703125,1.32451171875,1.340625,1.340625,1.340625,1.3470703125,1.31162109375,1.31162109375,1.340625,1.33095703125,1.327734375,1.3470703125,1.3470703125,1.353515625,1.33740234375,1.327734375,1.327734375,1.31484375,1.31484375,1.32451171875,1.33095703125,1.3341796875,1.33095703125,1.32451171875,1.3212890625,1.31162109375,1.327734375,1.3212890625,1.3083984375,1.3212890625,1.33740234375,1.32451171875,1.34384765625,1.34384765625,1.32451171875,1.31806640625,1.31484375,1.33095703125,1.340625,1.3341796875,1.3470703125,1.3470703125,1.35029296875,1.3728515625,1.36318359375,1.353515625,1.353515625,1.3599609375,1.36318359375,1.34384765625,1.33095703125,1.31484375,1.2955078125,1.30517578125,1.31162109375,1.33095703125,1.327734375,1.173046875,1.198828125,1.60810546875,2.1333984375,2.72958984375,2.900390625,2.14951171875,1.41474609375,1.33095703125,1.35673828125,1.340625,1.3599609375,1.3470703125,1.353515625,1.36318359375,1.353515625,1.36318359375,1.36318359375,1.3599609375,1.3857421875,1.39541015625,1.4115234375,1.4501953125,1.45986328125,1.44697265625,1.4759765625,1.53720703125,1.56298828125,1.585546875,1.64677734375,1.7080078125,1.7337890625,1.7466796875,1.77890625,1.78212890625,1.740234375,1.67900390625,1.61455078125,1.5146484375,1.44052734375,1.3986328125,1.3599609375,1.32451171875,1.30517578125,1.31162109375,1.2955078125,1.276171875,1.2955078125,1.30517578125,1.28583984375,1.28583984375,1.31162109375,1.3083984375,1.2826171875,1.276171875,1.2826171875,1.27294921875,1.27294921875,1.27294921875,1.276171875,1.2890625,1.2890625,1.276171875,1.2826171875,1.276171875,1.2568359375,1.25361328125,1.26650390625,1.276171875,1.276171875,1.276171875,1.2826171875,1.29228515625,1.2826171875,1.26650390625,1.26650390625,1.27294921875,1.26650390625,1.2568359375,1.26650390625,1.2826171875,1.26650390625,1.26005859375,1.2697265625,1.2697265625,1.2697265625,1.276171875,1.276171875,1.2697265625,1.26005859375,1.2697265625,1.28583984375,1.26328125,1.26005859375,1.2826171875,1.2890625,1.27294921875,1.2697265625,1.2826171875,1.29228515625,1.26328125,1.25361328125,1.301953125,1.31162109375,1.28583984375,1.2697265625,1.2697265625,1.2890625,1.30517578125,1.2955078125,1.29873046875,1.327734375,1.327734375,1.31806640625,1.3341796875,1.3341796875,1.3212890625,1.33095703125,1.33095703125,1.33740234375,1.327734375,1.276171875,1.26005859375,1.276171875,1.27939453125,1.2890625,1.2955078125,1.20849609375,1.11826171875,1.32451171875,1.80791015625,2.40087890625,2.9455078125,2.7005859375,1.766015625,1.31162109375,1.3599609375,1.340625,1.35029296875,1.36318359375,1.34384765625,1.3599609375,1.353515625,1.3728515625,1.40185546875,1.3986328125,1.41796875,1.42763671875,1.42763671875,1.46630859375,1.49208984375,1.48564453125,1.508203125,1.5533203125,1.59521484375,1.62744140625,1.67255859375,1.72412109375,1.75634765625,1.791796875,1.83369140625,1.84658203125,1.83046875,1.79501953125,1.73701171875,1.65,1.57587890625,1.5146484375,1.4501953125,1.430859375,1.41796875,1.38251953125,1.38251953125,1.38251953125,1.36318359375,1.36640625,1.38251953125,1.38251953125,1.3857421875,1.3857421875,1.36640625,1.36962890625,1.37607421875,1.36640625,1.3857421875,1.3986328125,1.3599609375,1.35029296875,1.36962890625,1.379296875,1.38896484375,1.3728515625,1.353515625,1.36318359375,1.36318359375,1.36318359375,1.36318359375,1.353515625,1.36640625,1.36640625,1.327734375,1.33095703125,1.3470703125,1.3470703125,1.35029296875,1.33740234375,1.3341796875,1.35029296875,1.33095703125,1.32451171875,1.3341796875,1.32451171875,1.340625,1.34384765625,1.31806640625,1.31484375,1.32451171875,1.327734375,1.31806640625,1.29873046875,1.31162109375,1.31806640625,1.29873046875,1.29873046875,1.29873046875,1.29873046875,1.3083984375,1.31162109375,1.2955078125,1.28583984375,1.28583984375,1.276171875,1.276171875,1.2955078125,1.2890625,1.276171875,1.2890625,1.28583984375,1.276171875,1.2955078125,1.2890625,1.26328125,1.27939453125,1.2955078125,1.3083984375,1.32451171875,1.31806640625,1.31484375,1.31484375,1.27939453125,1.24716796875,1.29228515625,1.301953125,1.2375,1.23427734375,1.24716796875,1.23427734375,1.22783203125,1.22783203125,1.23427734375,1.14404296875,1.05380859375,1.27294921875,1.76279296875,2.39443359375,2.9326171875,2.616796875,1.6693359375,1.23427734375,1.27294921875,1.26328125,1.2697265625,1.2826171875,1.2697265625,1.2890625,1.2955078125,1.29873046875,1.3083984375,1.31484375,1.33095703125,1.340625,1.340625,1.35673828125,1.37607421875,1.40830078125,1.42119140625,1.44697265625,1.49853515625,1.52431640625,1.5533203125,1.63388671875,1.69189453125,1.71767578125,1.753125,1.7466796875,1.72734375,1.714453125,1.6306640625,1.53720703125,1.49208984375,1.44375,1.36962890625,1.3212890625,1.3212890625,1.32451171875,1.2955078125,1.2890625,1.3083984375,1.30517578125,1.2955078125,1.301953125,1.3083984375,1.3212890625,1.33095703125,1.31484375,1.29228515625,1.301953125,1.31484375,1.301953125,1.2955078125,1.31162109375
1.31806640625,1.327734375,1.327734375,1.30517578125,1.33095703125,1.3470703125,1.31162109375,1.28583984375,1.2955078125,1.2890625,1.28583984375,1.2955078125,1.30517578125,1.301953125,1.29873046875,1.2890625,1.29228515625,1.301953125,1.29228515625,1.28583984375,1.301953125,1.2955078125,1.2890625,1.28583984375,1.27939453125,1.29228515625,1.301953125,1.31162109375,1.301953125,1.28583984375,1.30517578125,1.30517578125,1.2890625,1.31484375,1.32451171875,1.30517578125,1.29228515625,1.301953125,1.327734375,1.3212890625,1.301953125,1.301953125,1.31484375,1.33095703125,1.327734375,1.31484375,1.301953125,1.31806640625,1.327734375,1.3212890625,1.32451171875,1.32451171875,1.31806640625,1.3341796875,1.32451171875,1.3341796875,1.36640625,1.35673828125,1.38251953125,1.4115234375,1.39541015625,1.36962890625,1.353515625,1.38251953125,1.3986328125,1.3212890625,1.31162109375,1.3470703125,1.31162109375,1.30517578125,1.31484375,1.2955078125,1.26328125,1.1794921875,1.2568359375,1.69189453125,2.29775390625,2.8423828125,2.72314453125,1.84013671875,1.26650390625,1.28583984375,1.3212890625,1.35029296875,1.36962890625,1.327734375,1.34384765625,1.353515625,1.3728515625,1.37607421875,1.35673828125,1.39541015625,1.405078125,1.39541015625,1.45986328125,1.4759765625,1.4501953125,1.48564453125,1.53076171875,1.56943359375,1.61455078125,1.62744140625,1.67255859375,1.76279296875,1.77890625,1.77890625,1.85302734375,1.83369140625,1.7337890625,1.69189453125,1.62744140625,1.53076171875,1.456640625,1.4115234375,1.3921875,1.37607421875,1.3857421875,1.3857421875,1.340625,1.31484375,1.32451171875,1.30517578125,1.3212890625,1.35673828125,1.340625,1.33740234375,1.340625,1.3212890625,1.33740234375,1.3599609375,1.340625,1.3212890625,1.3212890625,1.340625,1.35029296875,1.33740234375,1.3212890625,1.33095703125,1.327734375,1.3083984375,1.29873046875,1.31162109375,1.3212890625,1.301953125,1.3083984375,1.32451171875,1.30517578125,1.2890625,1.2890625,1.30517578125,1.33095703125,1.3212890625,1.2955078125,1.301953125,1.33095703125,1.31484375,1.2826171875,1.2955078125,1.301953125,1.276171875,1.3083984375,1.34384765625,1.33740234375,1.3341796875,1.327734375,1.31806640625,1.3083984375,1.30517578125,1.3212890625,1.31484375,1.301953125,1.31484375,1.30517578125,1.301953125,1.31806640625,1.3083984375,1.29228515625,1.3083984375,1.32451171875,1.3341796875,1.31484375,1.2955078125,1.31484375,1.3470703125,1.31162109375,1.26650390625,1.28583984375,1.27294921875,1.2375,1.2568359375,1.27939453125,1.2181640625,1.1279296875,1.21494140625,1.5662109375,2.0947265625,2.6619140625,2.6103515625,1.80791015625,1.2826171875,1.29228515625,1.26328125,1.2568359375,1.31806640625,1.29873046875,1.31806640625,1.35029296875,1.31806640625,1.31484375,1.35029296875,1.36640625,1.3470703125,1.35673828125,1.39541015625,1.3921875,1.40830078125,1.47275390625,1.482421875,1.49208984375,1.546875,1.5984375,1.63388671875,1.6951171875,1.740234375,1.740234375,1.74990234375,1.75634765625,1.72412109375,1.65,1.55009765625,1.46953125,1.44052734375,1.40185546875,1.35673828125,1.33740234375,1.327734375,1.31162109375,1.30517578125,1.31806640625,1.31806640625,1.301953125,1.31806640625,1.33740234375,1.327734375,1.33095703125,1.3083984375,1.2826171875,1.3212890625,1.3341796875,1.31806640625,1.31806640625,1.31806640625,1.327734375,1.34384765625,1.3341796875,1.29873046875,1.29228515625,1.32451171875,1.3341796875,1.327734375,1.33740234375,1.33740234375,1.31806640625,1.327734375,1.327734375,1.29873046875,1.31162109375,1.327734375,1.29228515625,1.31162109375,1.353515625,1.31162109375,1.29228515625,1.33740234375,1.33095703125,1.30517578125,1.31162109375,1.31484375,1.32451171875,1.31162109375,1.2955078125,1.33095703125,1.340625,1.29873046875,1.2955078125,1.30517578125,1.29873046875,1.3083984375,1.327734375,1.3341796875,1.327734375,1.3470703125,1.36962890625,1.34384765625,1.3341796875,1.3470703125,1.353515625,1.36318359375,1.353515625,1.3212890625,1.30517578125,1.30517578125,1.31162109375,1.301953125,1.2955078125,1.28583984375,1.17626953125,1.19560546875,1.55009765625,2.05283203125,2.6103515625,2.74892578125,2.03994140625,1.36318359375,1.29228515625,1.31162109375,1.3083984375,1.33740234375,1.2955078125,1.31162109375,1.35673828125,1.3212890625,1.32451171875,1.35029296875,1.35029296875,1.36962890625,1.37607421875,1.36962890625,1.4244140625,1.45341796875,1.45986328125,1.4888671875,1.508203125,1.54365234375,1.5984375,1.62744140625,1.67255859375,1.7015625,1.7015625,1.78212890625,1.817578125,1.7208984375,1.662890625,1.62099609375,1.51142578125,1.456640625,1.430859375,1.36640625,1.34384765625,1.340625,1.32451171875,1.33095703125,1.32451171875,1.31484375,1.31484375,1.31484375,1.3341796875,1.327734375,1.29873046875,1.31806640625,1.33740234375,1.327734375,1.327734375,1.3083984375,1.31162109375,1.327734375,1.31806640625,1.301953125,1.29228515625,1.28583984375,1.301953125,1.31162109375,1.31162109375,1.31162109375,1.301953125,1.301953125,1.2955078125,1.31806640625,1.35673828125,1.353515625,1.327734375,1.340625,1.340625,1.31806640625,1.33740234375,1.340625,1.327734375,1.33740234375,1.353515625,1.36640625,1.37607421875,1.35673828125,1.3470703125,1.353515625,1.353515625,1.36640625,1.38251953125,1.3728515625,1.38251953125,1.3728515625,1.34384765625,1.35673828125,1.38251953125,1.35673828125,1.327734375,1.327734375,1.3341796875,1.31484375,1.301953125,1.31806640625,1.31484375,1.32451171875,1.34384765625,1.327734375,1.30517578125,1.30517578125,1.3083984375,1.3341796875,1.34384765625,1.3083984375,1.28583984375,1.26005859375,1.24072265625,1.26650390625,1.26005859375,1.250390625,1.24072265625,1.121484375,1.1666015625,1.56298828125,2.09150390625,2.6619140625,2.76181640625,1.98193359375,1.31162109375,1.276171875,1.301953125,1.29873046875,1.33740234375,1.3083984375,1.301953125,1.29228515625,1.2890625,1.35029296875,1.35029296875,1.340625,1.3857421875,1.40830078125,1.41474609375,1.430859375,1.44052734375,1.456640625,1.48564453125,1.53720703125,1.5662109375,1.60166015625,1.65,1.68544921875,1.73701171875,1.78212890625,1.77568359375,1.78212890625,1.766015625,1.69189453125,1.62421875,1.546875,1.46953125,1.41796875,1.3921875,1.353515625,1.32451171875,1.32451171875,1.32451171875,1.30517578125,1.3083984375,1.327734375,1.31484375,1.2955078125,1.2890625,1.29873046875,1.3083984375,1.2955078125,1.27939453125,1.28583984375,1.2955078125,1.30517578125,1.32451171875,1.33095703125,1.32451171875,1.33095703125,1.31484375,1.301953125,1.3212890625,1.3212890625,1.30517578125,1.301953125,1.301953125,1.301953125,1.30517578125,1.31162109375,1.30517578125,1.301953125,1.29228515625,1.31162109375,1.3212890625,1.29228515625,1.27294921875,1.28583984375,1.29228515625,1.301953125,1.31162109375,1.29228515625,1.2826171875,1.301953125,1.2955078125,1.29228515625,1.3212890625,1.31806640625,1.2955078125,1.3212890625,1.33095703125,1.30517578125,1.3212890625,1.3212890625,1.301953125,1.31162109375,1.3212890625,1.301953125,1.2955078125,1.30517578125,1.31162109375,1.32451171875,1.33740234375,1.33740234375,1.36640625,1.379296875,1.3599609375,1.3599609375,1.3470703125,1.33095703125,1.35029296875,1.35029296875,1.31484375,1.30517578125,1.2955078125,1.2955078125,1.30517578125,1.2955078125,1.28583984375,1.20849609375,1.16337890625,1.47275390625,2.00771484375,2.60068359375,2.9326171875,2.3783203125,1.51787109375,1.31806640625,1.3599609375,1.29228515625,1.33740234375,1.35673828125,1.3083984375,1.32451171875,1.353515625,1.353515625,1.353515625,1.36640625,1.36640625,1.35673828125,1.3921875,1.42119140625,1.430859375,1.456640625,1.46630859375,1.482421875,1.5404296875,1.57587890625,1.6048828125,1.65966796875,1.6951171875,1.73701171875,1.766015625,1.74990234375,1.7466796875,1.73056640625,1.64677734375,1.5404296875,1.46953125,1.41474609375,1.36640625,1.3341796875,1.3212890625,1.31484375,1.31484375,1.3083984375,1.2955078125,1.2955078125,1.29873046875,1.27939453125,1.2890625,1.31484375,1.2890625,1.27939453125,1.31484375,1.327734375,1.32451171875,1.3083984375,1.31484375,1.33740234375,1.327734375,1.3083984375,1.32451171875,1.32451171875,1.32451171875,1.3341796875,1.32451171875,1.31162109375,1.31162109375,1.301953125,1.301953125,1.327734375,1.33740234375,1.31806640625,1.3083984375,1.31162109375,1.33740234375,1.3470703125,1.3470703125,1.353515625,1.327734375,1.31162109375,1.33095703125,1.33740234375,1.3212890625,1.3212890625,1.29873046875,1.28583984375,1.31806640625,1.33095703125,1.31162109375,1.3083984375,1.301953125,1.29228515625,1.29873046875,1.31806640625,1.31806640625,1.29873046875,1.28583984375,1.31806640625,1.327734375,1.33095703125,1.353515625,1.37607421875,1.3728515625,1.3470703125,1.3470703125,1.3728515625,1.3470703125,1.3212890625,1.3212890625,1.29228515625,1.27294921875,1.301953125,1.28583984375,1.27294921875,1.22783203125,1.121484375,1.2826171875,1.78857421875,2.4234375,2.93583984375,2.67158203125,1.753125,1.29228515625,1.31162109375,1.31162109375,1.3212890625,1.29228515625,1.26650390625,1.3212890625,1.31806640625,1.301953125,1.3341796875,1.34384765625,1.34384765625,1.35673828125,1.38251953125,1.38896484375,1.3728515625,1.42763671875,1.47919921875,1.4630859375,1.508203125,1.56943359375,1.5984375,1.6564453125,1.688671875,1.7015625,1.76923828125,1.7724609375,1.74345703125,1.74345703125,1.67255859375,1.5791015625,1.5146484375,1.42763671875,1.379296875,1.36962890625,1.34384765625,1.32451171875,1.29873046875,1.27294921875,1.2890625,1.31484375,1.31484375,1.29873046875,1.29228515625,1.29873046875,1.29873046875,1.29873046875,1.2890625,1.27294921875,1.2890625,1.31484375,1.3083984375,1.3083984375,1.3083984375,1.301953125,1.31484375,1.31484375,1.2890625,1.2826171875,1.2890625,1.29228515625,1.301953125,1.29228515625,1.2890625,1.29873046875,1.29228515625,1.2890625,1.29228515625,1.27294921875,1.2890625,1.29873046875,1.27294921875,1.2890625,1.31484375,1.27939453125,1.27294921875,1.29228515625,1.2697265625,1.27294921875,1.31162109375,1.29228515625,1.29228515625,1.31806640625,1.27939453125,1.2826171875,1.327734375,1.29228515625,1.27939453125,1.327734375,1.3341796875,1.3341796875,1.34384765625,1.327734375,1.34384765625,1.3470703125,1.3083984375,1.31162109375,1.3341796875,1.32451171875,1.301953125,1.27939453125,1.2890625,1.29873046875,1.27939453125,1.21171875,1.12470703125,1.2890625,1.7337890625,2.3138671875,2.874609375,2.6619140625,1.714453125,1.2375,1.29228515625,1.29873046875,1.31806640625,1.32451171875,1.30517578125,1.33740234375,1.3341796875,1.32451171875,1.33740234375,1.353515625,1.353515625,1.35029296875,1.405078125,1.44375,1.41474609375,1.43408203125,1.48564453125,1.4953125,1.533984375,1.56943359375,1.6048828125,1.68544921875,1.7337890625,1.75634765625,1.78857421875,1.80146484375,1.77568359375,1.74990234375,1.67900390625,1.57587890625,1.51142578125,1.456640625,1.379296875,1.340625,1.33740234375,1.33740234375,1.31484375,1.2955078125,1.301953125,1.31162109375,1.30517578125,1.3083984375,1.3083984375,1.29873046875,1.3083984375,1.301953125,1.29228515625,1.29228515625,1.2826171875,1.301953125,1.34384765625,1.301953125,1.27294921875,1.31806640625,1.32451171875,1.2955078125,1.3083984375,1.29873046875,1.27939453125,1.31484375,1.33095703125,1.31484375,1.32451171875,1.2955078125,1.27939453125,1.30517578125,1.29228515625,1.2955078125,1.31484375,1.26650390625,1.2826171875,1.33095703125,1.2955078125,1.26328125,1.26650390625,1.27294921875,1.29228515625,1.29228515625,1.2826171875,1.31806640625,1.32451171875,1.31806640625,1.327734375,1.31484375,1.32451171875,1.32451171875,1.27939453125,1.26328125,1.26328125,1.25361328125,1.2955078125,1.31484375,1.2697265625,1.24072265625,1.1794921875,1.19560546875,1.49208984375,2.02060546875,2.62646484375,2.78115234375,2.05283203125,1.30517578125,1.24072265625,1.2955078125,1.276171875,1.33095703125,1.3083984375,1.301953125,1.35673828125,1.327734375,1.31806640625,1.36318359375,1.36318359375,1.35673828125,1.36640625,1.3728515625,1.3921875,1.41796875,1.456640625,1.49208984375,1.5146484375,1.559765625,1.62744140625,1.6435546875,1.662890625,1.72412109375,1.7595703125,1.77890625,1.78857421875,1.7466796875,1.67255859375,1.60166015625,1.52431640625,1.43408203125,1.38251953125,1.353515625,1.3083984375,1.31162109375,1.33740234375,1.31162109375,1.29873046875,1.301953125,1.28583984375,1.29873046875,1.2955078125,1.276171875,1.29228515625,1.2955078125,1.2826171875,1.29228515625,1.31162109375,1.31484375,1.301953125,1.2890625,1.29873046875,1.3083984375,1.29873046875,1.30517578125,1.31806640625,1.31806640625,1.32451171875,1.301953125,1.2697265625,1.27294921875,1.2826171875,1.28583984375,1.31806640625,1.30517578125,1.26650390625,1.29228515625,1.301953125,1.276171875,1.2955078125,1.3083984375,1.27939453125,1.29228515625,1.31484375,1.3083984375,1.33740234375,1.33740234375,1.3083984375,1.33095703125,1.33740234375,1.2890625,1.27939453125,1.28583984375,1.2890625,1.2890625,1.25361328125,1.2568359375,1.25361328125,1.1279296875,1.21494140625,1.637109375,2.1720703125,2.71669921875,2.65869140625,1.81435546875,1.26005859375,1.27939453125,1.2890625,1.2826171875,1.2955078125,1.2568359375,1.301953125,1.340625,1.2955078125,1.2826171875,1.31806640625,1.327734375,1.3212890625,1.3470703125,1.3728515625,1.37607421875,1.41474609375,1.45986328125,1.45986328125,1.47919921875,1.533984375,1.56943359375,1.611328125,1.67578125,1.71767578125,1.72734375,1.73701171875,1.73056640625,1.68544921875,1.6048828125,1.533984375,1.47275390625,1.40830078125,1.353515625,1.327734375,1.31806640625,1.301953125,1.28583984375,1.2955078125,1.301953125,1.2955078125,1.2955078125,1.2955078125,1.2955078125,1.29228515625,1.2697265625,1.26328125,1.301953125,1.3083984375,1.276171875,1.28583984375,1.2955078125,1.29228515625,1.29228515625,1.301953125,1.30517578125,1.28583984375,1.27939453125,1.31162109375,1.301953125,1.301953125,1.31484375,1.30517578125,1.2955078125,1.2890625,1.2955078125,1.31162109375,1.27939453125,1.2697265625,1.27939453125,1.27939453125,1.30517578125,1.31484375,1.29228515625,1.29228515625,1.31484375,1.327734375,1.340625,1.3470703125,1.3212890625,1.327734375,1.3470703125,1.34384765625,1.3083984375,1.2826171875,1.27294921875,1.2697265625,1.2890625,1.2890625,1.26005859375,1.2310546875,1.1408203125,1.18271484375,1.53720703125,2.05927734375,2.68447265625,2.83916015625,2.05927734375,1.340625,1.276171875,1.3083984375,1.29873046875,1.31806640625,1.29873046875,1.3212890625,1.33095703125,1.31806640625,1.3470703125,1.353515625,1.34384765625,1.3599609375,1.38251953125,1.40830078125,1.4115234375,1.4244140625,1.45986328125,1.4953125,1.5275390625,1.56298828125,1.59521484375,1.64033203125,1.69189453125,1.73701171875,1.76923828125,1.77568359375,1.76923828125,1.7208984375,1.662890625,1.5984375,1.4953125,1.42119140625,1.3986328125,1.353515625,1.32451171875,1.33095703125,1.31806640625,1.30517578125,1.3212890625,1.3212890625,1.29873046875,1.29873046875,1.31484375,1.327734375,1.327734375,1.31806640625,1.31484375,1.2955078125,1.29873046875,1.3341796875,1.33095703125,1.31806640625,1.353515625,1.34384765625,1.33095703125,1.340625,1.31162109375,1.31484375,1.35673828125,1.35029296875,1.33740234375,1.327734375,1.35029296875,1.36962890625,1.340625,1.34384765625,1.379296875,1.36640625,1.35029296875,1.3470703125,1.3470703125,1.36318359375,1.36640625,1.37607421875,1.39541015625,1.35673828125,1.327734375,1.353515625,1.379296875,1.3599609375,1.3470703125,1.35673828125,1.3857421875,1.37607421875,1.36318359375,1.37607421875,1.379296875,1.38896484375,1.4115234375,1.36318359375,1.3341796875,1.379296875,1.3728515625,1.353515625,1.38251953125,1.38251953125,1.36640625,1.36640625,1.36640625,1.36318359375,1.353515625,1.34384765625,1.36318359375,1.3599609375,1.34384765625,1.35029296875,1.36640625,1.36962890625,1.36318359375,1.36318359375,1.37607421875,1.379296875,1.37607421875,1.3599609375,1.3470703125,1.3599609375,1.379296875,1.36640625,1.33740234375,1.32451171875,1.3212890625,1.3083984375,1.28583984375,1.28583984375,1.2890625,1.173046875,1.1794921875,1.52109375,2.0625,2.68125,2.91328125,2.21396484375,1.3986328125,1.27294921875,1.31806640625,1.2568359375,1.28583984375,1.301953125,1.27939453125,1.27939453125,1.24716796875,1.23427734375,1.26005859375,1.276171875,1.27939453125,1.276171875,1.27939453125,1.28583984375,1.3083984375,1.32451171875,1.32451171875,1.33740234375,1.38251953125,1.40830078125,1.41796875,1.47919921875,1.5275390625,1.51787109375,1.5275390625,1.55009765625,1.533984375,1.47275390625,1.38251953125,1.2697265625,1.20205078125,1.14404296875
1.43408203125,1.340625,1.3599609375,1.36640625,1.34384765625,1.3599609375,1.36318359375,1.3599609375,1.36318359375,1.353515625,1.33740234375,1.3470703125,1.36318359375,1.35673828125,1.327734375,1.3212890625,1.3470703125,1.35029296875,1.3470703125,1.3470703125,1.3470703125,1.3341796875,1.32451171875,1.32451171875,1.3212890625,1.32451171875,1.34384765625,1.32451171875,1.32451171875,1.31806640625,1.2826171875,1.301953125,1.32451171875,1.3083984375,1.31806640625,1.31162109375,1.31162109375,1.33095703125,1.31162109375,1.2955078125,1.327734375,1.3212890625,1.31162109375,1.32451171875,1.36962890625,1.39541015625,1.3857421875,1.36962890625,1.3599609375,1.353515625,1.36318359375,1.3341796875,1.27939453125,1.2697265625,1.3083984375,1.31806640625,1.2890625,1.29873046875,1.23427734375,1.13759765625,1.3599609375,1.8240234375,2.40732421875,2.8681640625,2.45244140625,1.56298828125,1.26650390625,1.301953125,1.2826171875,1.3470703125,1.33740234375,1.29228515625,1.31806640625,1.3083984375,1.31162109375,1.35673828125,1.353515625,1.353515625,1.3728515625,1.36640625,1.3921875,1.430859375,1.430859375,1.44697265625,1.48564453125,1.49208984375,1.53076171875,1.64677734375,1.69189453125,1.67578125,1.75634765625,1.791796875,1.74345703125,1.7724609375,1.76279296875,1.6435546875,1.5791015625,1.508203125,1.41796875,1.40185546875,1.36318359375,1.32451171875,1.3470703125,1.34384765625,1.32451171875,1.31806640625,1.3083984375,1.31484375,1.31806640625,1.31484375,1.3083984375,1.2955078125,1.29873046875,1.30517578125,1.31162109375,1.32451171875,1.31162109375,1.2955078125,1.31484375,1.327734375,1.3212890625,1.31162109375,1.3083984375,1.3083984375,1.31162109375,1.31162109375,1.327734375,1.3341796875,1.327734375,1.3083984375,1.29873046875,1.31484375,1.32451171875,1.29873046875,1.29873046875,1.31484375,1.27939453125,1.28583984375,1.31484375,1.28583984375,1.29228515625,1.31162109375,1.2826171875,1.2955078125,1.31162109375,1.2826171875,1.301953125,1.29873046875,1.27294921875,1.3083984375,1.31484375,1.30517578125,1.353515625,1.3599609375,1.3212890625,1.33095703125,1.35029296875,1.33095703125,1.3212890625,1.2955078125,1.250390625,1.24716796875,1.26328125,1.24716796875,1.2568359375,1.2439453125,1.10859375,1.13759765625,1.5146484375,2.049609375,2.65546875,2.81982421875,2.07861328125,1.34384765625,1.2697265625,1.31162109375,1.2890625,1.3212890625,1.31162109375,1.2955078125,1.2826171875,1.2955078125,1.35029296875,1.340625,1.327734375,1.36640625,1.37607421875,1.36640625,1.3986328125,1.4115234375,1.41796875,1.47275390625,1.508203125,1.5146484375,1.58232421875,1.65966796875,1.6693359375,1.7080078125,1.76279296875,1.77568359375,1.76923828125,1.753125,1.69833984375,1.62421875,1.54365234375,1.46630859375,1.405078125,1.36640625,1.3341796875,1.31162109375,1.30517578125,1.33095703125,1.31484375,1.2890625,1.31162109375,1.3212890625,1.2955078125,1.27939453125,1.301953125,1.31484375,1.30517578125,1.2890625,1.2955078125,1.3212890625,1.3212890625,1.2890625,1.2955078125,1.3212890625,1.31162109375,1.29873046875,1.32451171875,1.32451171875,1.2955078125,1.29873046875,1.3341796875,1.3212890625,1.2955078125,1.31484375,1.31806640625,1.29873046875,1.29873046875,1.29873046875,1.2955078125,1.29873046875,1.30517578125,1.3083984375,1.29873046875,1.2826171875,1.29873046875,1.31162109375,1.301953125,1.29873046875,1.31806640625,1.3212890625,1.301953125,1.29873046875,1.3083984375,1.3083984375,1.28583984375,1.30517578125,1.33740234375,1.30517578125,1.31162109375,1.3470703125,1.3212890625,1.3212890625,1.3341796875,1.32451171875,1.340625,1.353515625,1.353515625,1.36318359375,1.353515625,1.3599609375,1.36962890625,1.34384765625,1.31806640625,1.301953125,1.2890625,1.29873046875,1.2826171875,1.27294921875,1.29228515625,1.20849609375,1.11826171875,1.33740234375,1.83046875,2.4556640625,2.9455078125,2.59423828125,1.65966796875,1.26650390625,1.3341796875,1.3212890625,1.31484375,1.33095703125,1.3083984375,1.3341796875,1.33740234375,1.31484375,1.327734375,1.3599609375,1.379296875,1.38251953125,1.3921875,1.41796875,1.44375,1.4630859375,1.47275390625,1.4759765625,1.51787109375,1.57265625,1.62099609375,1.66611328125,1.7015625,1.75634765625,1.79501953125,1.80146484375,1.79501953125,1.766015625,1.7015625,1.63388671875,1.55009765625,1.46630859375,1.42119140625,1.39541015625,1.35029296875,1.29873046875,1.30517578125,1.35029296875,1.3599609375,1.32451171875,1.3083984375,1.31484375,1.31806640625,1.31806640625,1.31484375,1.32451171875,1.32451171875,1.3083984375,1.3083984375,1.30517578125,1.30517578125,1.327734375,1.32451171875,1.301953125,1.327734375,1.3341796875,1.3083984375,1.301953125,1.29873046875,1.301953125,1.31484375,1.301953125,1.29228515625,1.301953125,1.31484375,1.31484375,1.29873046875,1.2890625,1.3083984375,1.31806640625,1.29873046875,1.27939453125,1.27294921875,1.2890625,1.3083984375,1.2890625,1.27294921875,1.2826171875,1.2955078125,1.27939453125,1.2697265625,1.2890625,1.2955078125,1.2890625,1.29873046875,1.29873046875,1.28583984375,1.2955078125,1.3083984375,1.2955078125,1.29873046875,1.3212890625,1.3212890625,1.32451171875,1.35029296875,1.3599609375,1.35029296875,1.340625,1.3470703125,1.35673828125,1.3212890625,1.28583984375,1.26650390625,1.24716796875,1.28583984375,1.2826171875,1.24716796875,1.24072265625,1.1279296875,1.11826171875,1.49208984375,2.03349609375,2.668359375,2.9583984375,2.27197265625,1.42763671875,1.27294921875,1.3083984375,1.29228515625,1.32451171875,1.29228515625,1.30517578125,1.32451171875,1.2955078125,1.31484375,1.32451171875,1.31806640625,1.3599609375,1.36962890625,1.37607421875,1.40830078125,1.42119140625,1.43408203125,1.47919921875,1.51142578125,1.52431640625,1.57587890625,1.637109375,1.6693359375,1.72734375,1.766015625,1.791796875,1.8111328125,1.77568359375,1.71123046875,1.662890625,1.60166015625,1.51142578125,1.42763671875,1.38251953125,1.36318359375,1.33740234375,1.3212890625,1.327734375,1.31806640625,1.3083984375,1.3212890625,1.31806640625,1.31162109375,1.31162109375,1.3083984375,1.31806640625,1.33740234375,1.32451171875,1.31162109375,1.32451171875,1.31484375,1.29873046875,1.3083984375,1.327734375,1.29873046875,1.27939453125,1.31806640625,1.3341796875,1.31806640625,1.32451171875,1.31806640625,1.30517578125,1.32451171875,1.32451171875,1.29873046875,1.2890625,1.30517578125,1.327734375,1.33740234375,1.30517578125,1.2826171875,1.32451171875,1.327734375,1.2955078125,1.3083984375,1.31806640625,1.2890625,1.3083984375,1.31806640625,1.30517578125,1.31806640625,1.3083984375,1.29228515625,1.31806640625,1.31484375,1.2890625,1.3083984375,1.31484375,1.29873046875,1.31484375,1.31484375,1.29228515625,1.29873046875,1.31484375,1.327734375,1.3341796875,1.31806640625,1.32451171875,1.3341796875,1.33740234375,1.36318359375,1.36640625,1.36318359375,1.379296875,1.353515625,1.327734375,1.327734375,1.29873046875,1.276171875,1.3083984375,1.301953125,1.27294921875,1.301953125,1.26650390625,1.11181640625,1.1859375,1.5984375,2.17529296875,2.8359375,2.89716796875,2.06572265625,1.3728515625,1.29228515625,1.327734375,1.327734375,1.33740234375,1.31484375,1.31484375,1.32451171875,1.3212890625,1.33095703125,1.35029296875,1.3599609375,1.36962890625,1.38896484375,1.42119140625,1.4115234375,1.4115234375,1.4501953125,1.4759765625,1.4888671875,1.54365234375,1.6048828125,1.64033203125,1.67900390625,1.73056640625,1.76923828125,1.80791015625,1.82080078125,1.77890625,1.73056640625,1.65966796875,1.5791015625,1.4953125,1.41796875,1.38251953125,1.36318359375,1.327734375,1.327734375,1.32451171875,1.301953125,1.301953125,1.3083984375,1.3083984375,1.31806640625,1.31806640625,1.3083984375,1.3083984375,1.3083984375,1.301953125,1.301953125,1.29873046875,1.3083984375,1.327734375,1.301953125,1.27939453125,1.31162109375,1.31162109375,1.2890625,1.31162109375,1.3083984375,1.2826171875,1.301953125,1.29873046875,1.276171875,1.2890625,1.2890625,1.2826171875,1.29228515625,1.29873046875,1.29228515625,1.27294921875,1.276171875,1.3083984375,1.31162109375,1.29873046875,1.2826171875,1.26328125,1.276171875,1.2890625,1.2826171875,1.301953125,1.31162109375,1.3083984375,1.301953125,1.29873046875,1.29228515625,1.301953125,1.301953125,1.3083984375,1.3083984375,1.2890625,1.3083984375,1.3341796875,1.3083984375,1.301953125,1.34384765625,1.36318359375,1.35673828125,1.36318359375,1.36318359375,1.353515625,1.3470703125,1.34384765625,1.3083984375,1.2697265625,1.27939453125,1.301953125,1.2890625,1.26005859375,1.26328125,1.198828125,1.11826171875,1.33740234375,1.843359375,2.487890625,2.96806640625,2.5587890625,1.6177734375,1.27294921875,1.340625,1.30517578125,1.31806640625,1.340625,1.30517578125,1.31806640625,1.32451171875,1.3341796875,1.36318359375,1.3599609375,1.36318359375,1.38896484375,1.38896484375,1.3986328125,1.44052734375,1.4501953125,1.45986328125,1.4888671875,1.52431640625,1.5662109375,1.62099609375,1.67578125,1.71123046875,1.72412109375,1.77568359375,1.81435546875,1.80146484375,1.766015625,1.70478515625,1.62099609375,1.546875,1.46630859375,1.41474609375,1.3857421875,1.33740234375,1.31162109375,1.3212890625,1.31162109375,1.2955078125,1.30517578125,1.3212890625,1.33095703125,1.33095703125,1.31806640625,1.28583984375,1.28583984375,1.301953125,1.301953125,1.3083984375,1.31806640625,1.3212890625,1.31806640625,1.29228515625,1.29228515625,1.3083984375,1.301953125,1.29873046875,1.31162109375,1.3083984375,1.2826171875,1.301953125,1.33095703125,1.2890625,1.26650390625,1.301953125,1.3083984375,1.2890625,1.301953125,1.3083984375,1.29228515625,1.2826171875,1.29228515625,1.3212890625,1.31162109375,1.27294921875,1.27294921875,1.276171875,1.29228515625,1.31162109375,1.2826171875,1.27294921875,1.301953125,1.29228515625,1.29228515625,1.327734375,1.3083984375,1.2826171875,1.29228515625,1.301953125,1.301953125,1.301953125,1.31162109375,1.3083984375,1.301953125,1.327734375,1.36318359375,1.36640625,1.3728515625,1.3728515625,1.340625,1.33095703125,1.340625,1.31806640625,1.2826171875,1.2826171875,1.301953125,1.301953125,1.2826171875,1.27294921875,1.2052734375,1.1150390625,1.31484375,1.82724609375,2.4556640625,2.951953125,2.60712890625,1.64677734375,1.2568359375,1.35029296875,1.3212890625,1.31162109375,1.3341796875,1.2890625,1.31162109375,1.35029296875,1.3341796875,1.3212890625,1.35029296875,1.3857421875,1.3857421875,1.37607421875,1.3986328125,1.430859375,1.44375,1.45986328125,1.4953125,1.54365234375,1.59521484375,1.6435546875,1.6693359375,1.70478515625,1.76279296875,1.7853515625,1.7853515625,1.8046875,1.79501953125,1.72734375,1.62421875,1.51787109375,1.46953125,1.41796875,1.353515625,1.3341796875,1.32451171875,1.3083984375,1.327734375,1.33740234375,1.31806640625,1.301953125,1.31162109375,1.31806640625,1.301953125,1.301953125,1.31806640625,1.3083984375,1.301953125,1.31806640625,1.3212890625,1.31806640625,1.31806640625,1.3212890625,1.301953125,1.29228515625,1.3212890625,1.301953125,1.28583984375,1.31806640625,1.31162109375,1.2955078125,1.301953125,1.301953125,1.31806640625,1.301953125,1.28583984375,1.31162109375,1.30517578125,1.2697265625,1.276171875,1.29228515625,1.29228515625,1.301953125,1.301953125,1.29228515625,1.2955078125,1.276171875,1.276171875,1.31162109375,1.301953125,1.276171875,1.28583984375,1.28583984375,1.30517578125,1.30517578125,1.2826171875,1.28583984375,1.28583984375,1.2955078125,1.31484375,1.2955078125,1.301953125,1.33740234375,1.3212890625,1.31806640625,1.3470703125,1.3728515625,1.3728515625,1.3470703125,1.340625,1.340625,1.327734375,1.31162109375,1.2826171875,1.24716796875,1.276171875,1.29228515625,1.26650390625,1.25361328125,1.1666015625,1.1923828125,1.5275390625,2.0689453125,2.694140625,2.8037109375,1.96904296875,1.2439453125,1.2568359375,1.31806640625,1.2697265625,1.31806640625,1.3083984375,1.30517578125,1.3341796875,1.327734375,1.353515625,1.34384765625,1.3083984375,1.3599609375,1.39541015625,1.379296875,1.4244140625,1.4759765625,1.47919921875,1.46953125,1.5146484375,1.57587890625,1.62099609375,1.65966796875,1.7015625,1.74990234375,1.8046875,1.83046875,1.83046875,1.817578125,1.7466796875,1.67578125,1.5919921875,1.49208984375,1.44375,1.38251953125,1.33095703125,1.353515625,1.3341796875,1.2826171875,1.29873046875,1.31162109375,1.31806640625,1.327734375,1.3083984375,1.29873046875,1.29873046875,1.27294921875,1.2890625,1.32451171875,1.31484375,1.31806640625,1.32451171875,1.3083984375,1.340625,1.340625,1.31162109375,1.3341796875,1.34384765625,1.301953125,1.31484375,1.3341796875,1.31484375,1.33095703125,1.31484375,1.2955078125,1.33095703125,1.33740234375,1.301953125,1.30517578125,1.31484375,1.2955078125,1.28583984375,1.30517578125,1.33740234375,1.327734375,1.28583984375,1.2826171875,1.3212890625,1.31806640625,1.29228515625,1.2826171875,1.28583984375,1.3083984375,1.3083984375,1.276171875,1.276171875,1.3083984375,1.33095703125,1.33740234375,1.340625,1.340625,1.33095703125,1.340625,1.35029296875,1.3212890625,1.29228515625,1.29228515625,1.276171875,1.2568359375,1.2568359375,1.2697265625,1.2697265625,1.1923828125,1.1408203125,1.3599609375,1.82080078125,2.40087890625,2.8294921875,2.43955078125,1.55009765625,1.2310546875,1.3212890625,1.28583984375,1.2955078125,1.3341796875,1.2955078125,1.3083984375,1.3341796875,1.30517578125,1.31806640625,1.3728515625,1.36318359375,1.353515625,1.3921875,1.3921875,1.38251953125,1.430859375,1.47275390625,1.4953125,1.55654296875,1.56943359375,1.5919921875,1.67578125,1.7208984375,1.73056640625,1.76923828125,1.7853515625,1.76279296875,1.740234375,1.67255859375,1.57265625,1.5017578125,1.4373046875,1.3921875,1.37607421875,1.327734375,1.28583984375,1.30517578125,1.31484375,1.2955078125,1.2955078125,1.30517578125,1.31484375,1.3083984375,1.30517578125,1.31484375,1.3083984375,1.2890625,1.29228515625,1.3083984375,1.31162109375,1.3083984375,1.2955078125,1.2955078125,1.31162109375,1.31484375,1.30517578125,1.301953125,1.3212890625,1.3212890625,1.2955078125,1.3083984375,1.30517578125,1.2890625,1.30517578125,1.29228515625,1.29873046875,1.3083984375,1.2826171875,1.2826171875,1.3083984375,1.29228515625,1.2826171875,1.3083984375,1.31162109375,1.2955078125,1.301953125,1.2955078125,1.276171875,1.27939453125,1.2955078125,1.29228515625,1.2890625,1.2890625,1.2890625,1.301953125,1.2955078125,1.29873046875,1.30517578125,1.2955078125,1.32451171875,1.35029296875,1.3341796875,1.34384765625,1.3341796875,1.301953125,1.31162109375,1.3212890625,1.28583984375,1.2697265625,1.26005859375,1.250390625,1.2568359375,1.2568359375,1.20205078125,1.10537109375,1.2375,1.67900390625,2.25908203125,2.784375,2.65869140625,1.78212890625,1.250390625,1.29873046875,1.29873046875,1.276171875,1.31484375,1.301953125,1.3212890625,1.3470703125,1.3212890625,1.3212890625,1.3470703125,1.3599609375,1.36962890625,1.3857421875,1.38896484375,1.405078125,1.44052734375,1.4501953125,1.4888671875,1.5275390625,1.55009765625,1.60810546875,1.65966796875,1.6822265625,1.740234375,1.80146484375,1.80791015625,1.79501953125,1.77568359375,1.7208984375,1.6306640625,1.5404296875,1.4759765625,1.43408203125,1.3986328125,1.353515625,1.3341796875,1.33740234375,1.327734375,1.31806640625,1.327734375,1.340625,1.3470703125,1.33740234375,1.327734375,1.353515625,1.34384765625,1.3083984375,1.33095703125,1.35673828125,1.327734375,1.3341796875,1.36318359375,1.3341796875,1.3212890625,1.3470703125,1.3470703125,1.3341796875,1.33740234375,1.340625,1.3341796875,1.33740234375,1.340625,1.353515625,1.353515625,1.34384765625,1.34384765625,1.35029296875,1.340625,1.340625,1.3470703125,1.3212890625,1.327734375,1.353515625,1.3341796875,1.31806640625,1.34384765625,1.34384765625,1.340625,1.35029296875,1.35029296875,1.3470703125,1.35029296875,1.3470703125,1.35673828125,1.35673828125,1.3341796875,1.33095703125,1.34384765625,1.353515625,1.340625,1.327734375,1.353515625,1.353515625,1.31162109375,1.340625,1.3857421875,1.36962890625,1.3728515625,1.3921875,1.38896484375,1.40830078125,1.40830078125,1.3857421875,1.39541015625,1.38251953125,1.3599609375,1.33740234375,1.31162109375,1.31484375,1.31806640625,1.2955078125,1.28583984375,1.2826171875,1.224609375,1.13759765625,1.24072265625,1.62744140625,2.20751953125,2.81015625,2.78115234375,1.93037109375,1.2826171875,1.26650390625,1.2826171875,1.26328125,1.2890625,1.2439453125,1.2439453125,1.27294921875,1.26650390625,1.276171875,1.2568359375,1.250390625,1.301953125,1.30517578125,1.2826171875,1.30517578125,1.32451171875,1.33095703125,1.34384765625,1.36962890625,1.41796875,1.44697265625,1.47275390625,1.49853515625
