1.48709677419355,1.50967741935484,1.50645161290323,1.50645161290323,1.50967741935484,1.50322580645161,1.50322580645161,1.48387096774194,1.46774193548387,1.44516129032258,1.43548387096774,1.40322580645161,1.40322580645161,1.40322580645161,1.39677419354839,1.39032258064516,1.3741935483871,1.35806451612903,1.36451612903226,1.34193548387097,1.34193548387097,1.35806451612903,1.35806451612903,1.3741935483871,1.39032258064516,1.38387096774194,1.39354838709677,1.41612903225806,1.42258064516129,1.42258064516129,1.4258064516129,1.44193548387097,1.4258064516129,1.42258064516129,1.43870967741935,1.40967741935484,1.42258064516129,1.40967741935484,1.39354838709677,1.38709677419355,1.38709677419355,1.38387096774194,1.38064516129032,1.40322580645161,1.39354838709677,1.3741935483871,1.39032258064516,1.39354838709677,1.37741935483871,1.4,1.40645161290323,1.4258064516129,1.42903225806452,1.43548387096774,1.43548387096774,1.40967741935484,1.40967741935484,1.40645161290323,1.41935483870968,1.40967741935484,1.40322580645161,1.40645161290323,1.39354838709677,1.39354838709677,1.38387096774194,1.37096774193548,1.38064516129032,1.4,1.39032258064516,1.39354838709677,1.39354838709677,1.38709677419355,1.38709677419355,1.39354838709677,1.36451612903226,1.3741935483871,1.3741935483871,1.3741935483871,1.36774193548387,1.3741935483871,1.38709677419355,1.39677419354839,1.39677419354839,1.41935483870968,1.41935483870968,1.41612903225806,1.41935483870968,1.41935483870968,1.4258064516129,1.43548387096774,1.43225806451613,1.42258064516129,1.4,1.40645161290323,1.40645161290323,1.41290322580645,1.39677419354839,1.40322580645161,1.39032258064516,1.36129032258065,1.35806451612903,1.33870967741935,1.36451612903226,1.34516129032258,1.33870967741935,1.35161290322581,1.35483870967742,1.37096774193548,1.38064516129032,1.3741935483871,1.38387096774194,1.41290322580645,1.4258064516129,1.41935483870968,1.4258064516129,1.43225806451613,1.44193548387097,1.44193548387097,1.43548387096774,1.4258064516129,1.41612903225806,1.40322580645161,1.39677419354839,1.38064516129032,1.38387096774194,1.3741935483871,1.37741935483871,1.37096774193548,1.34838709677419,1.33548387096774,1.46451612903226,1.78064516129032,2.13548387096774,2.05483870967742,1.25483870967742,0.8,1,1.24838709677419,1.39032258064516,1.42903225806452,1.43225806451613,1.43225806451613,1.43225806451613,1.42258064516129,1.41935483870968,1.42258064516129,1.41290322580645,1.41612903225806,1.43225806451613,1.41935483870968,1.40967741935484,1.39354838709677,1.36774193548387,1.36774193548387,1.36774193548387,1.4,1.40322580645161,1.41935483870968,1.42258064516129,1.45806451612903,1.47741935483871,1.47096774193548,1.47096774193548,1.4741935483871,1.44838709677419,1.45161290322581,1.43225806451613,1.43225806451613,1.42903225806452,1.43548387096774,1.42258064516129,1.42903225806452,1.40645161290323,1.37741935483871,1.36129032258065,1.36129032258065,1.36129032258065,1.3741935483871,1.38709677419355,1.36451612903226,1.3741935483871,1.39354838709677,1.4,1.37741935483871,1.36129032258065,1.34193548387097,1.31935483870968,1.30645161290323,1.29677419354839,1.30967741935484,1.31290322580645,1.32258064516129,1.3,1.27096774193548,1.35483870967742,1.62903225806452,2.09354838709677,1.88064516129032,1.16774193548387,0.632258064516129,0.674193548387097,1.04838709677419,1.26451612903226,1.39032258064516,1.44193548387097,1.46451612903226,1.46774193548387,1.46451612903226,1.44838709677419,1.45483870967742,1.46774193548387,1.46129032258065,1.4741935483871,1.48064516129032,1.48709677419355,1.46451612903226,1.46451612903226,1.43870967741935,1.43870967741935,1.45483870967742,1.44516129032258,1.44838709677419,1.44193548387097,1.42903225806452,1.43225806451613,1.42258064516129,1.44193548387097,1.44193548387097,1.41612903225806,1.41612903225806,1.39354838709677,1.3741935483871,1.38064516129032,1.38709677419355,1.38064516129032,1.38064516129032,1.37741935483871,1.39354838709677,1.38064516129032,1.36451612903226,1.35483870967742,1.34516129032258,1.33870967741935,1.33548387096774,1.37096774193548,1.38064516129032,1.39032258064516,1.41290322580645,1.41612903225806,1.4258064516129,1.39677419354839,1.38387096774194,1.3741935483871,1.36451612903226,1.38709677419355,1.4,1.38709677419355,1.39354838709677,1.39677419354839,1.38709677419355,1.38064516129032,1.39677419354839,1.38709677419355,1.4,1.39354838709677,1.39032258064516,1.40322580645161,1.39032258064516,1.38709677419355,1.39032258064516,1.39677419354839,1.39677419354839,1.39354838709677,1.38709677419355,1.3741935483871,1.37741935483871,1.38387096774194,1.41290322580645,1.40645161290323,1.39354838709677,1.42903225806452,1.66774193548387,1.9741935483871,2.24193548387097,1.63548387096774,0.925806451612903,0.861290322580645,1.09354838709677,1.31290322580645,1.36451612903226,1.40967741935484,1.41290322580645,1.42903225806452,1.45161290322581,1.45806451612903,1.45483870967742,1.44193548387097,1.4258064516129,1.4258064516129,1.40645161290323,1.40967741935484,1.43225806451613,1.43870967741935,1.42903225806452,1.42903225806452,1.42903225806452,1.4258064516129,1.43225806451613,1.44516129032258,1.44193548387097,1.43548387096774,1.45483870967742,1.47096774193548,1.44193548387097,1.45161290322581,1.45483870967742,1.44516129032258,1.45483870967742,1.44193548387097,1.41290322580645,1.38064516129032,1.36129032258065,1.36451612903226,1.36774193548387,1.35161290322581,1.35483870967742,1.36129032258065,1.33548387096774,1.32903225806452,1.35161290322581,1.33870967741935,1.34193548387097,1.35483870967742,1.3741935483871,1.36129032258065,1.36451612903226,1.37741935483871,1.39354838709677,1.4,1.39677419354839,1.36774193548387,1.32258064516129,1.43548387096774,1.74193548387097,2.09677419354839,1.86774193548387,1.11935483870968,0.703225806451613,0.880645161290323,1.16451612903226,1.30322580645161,1.34838709677419,1.36451612903226,1.38387096774194,1.40322580645161,1.40967741935484,1.41612903225806,1.44838709677419,1.45483870967742,1.45806451612903,1.47096774193548,1.45483870967742,1.45806451612903,1.44193548387097,1.41935483870968,1.40967741935484,1.4,1.4,1.39677419354839,1.40645161290323,1.38064516129032,1.3741935483871,1.36451612903226,1.34838709677419,1.3741935483871,1.37096774193548,1.37096774193548,1.39677419354839,1.39354838709677,1.4,1.39032258064516,1.36774193548387,1.37096774193548,1.36129032258065,1.35161290322581,1.35806451612903,1.33548387096774,1.31935483870968,1.32903225806452,1.33870967741935,1.34516129032258,1.36129032258065,1.35806451612903,1.4,1.4,1.40322580645161,1.41612903225806,1.42258064516129,1.43870967741935,1.46774193548387,1.46451612903226,1.44838709677419,1.44516129032258,1.4258064516129,1.41612903225806,1.41612903225806,1.41290322580645,1.39354838709677,1.37741935483871,1.38709677419355,1.38064516129032,1.35806451612903,1.3741935483871,1.37096774193548,1.37741935483871,1.38387096774194,1.3741935483871,1.48709677419355,1.74838709677419,2.0741935483871,2.13225806451613,1.48064516129032,0.906451612903226,0.970967741935484,1.20645161290323,1.35161290322581,1.40322580645161,1.42903225806452,1.43225806451613,1.44193548387097,1.42258064516129,1.41935483870968,1.40967741935484,1.41935483870968,1.43548387096774,1.44838709677419,1.43548387096774,1.43225806451613,1.40645161290323,1.40322580645161,1.39677419354839,1.40322580645161,1.41290322580645,1.43548387096774,1.4258064516129,1.41935483870968,1.40967741935484,1.41612903225806,1.43225806451613,1.43548387096774,1.41935483870968,1.43548387096774,1.42258064516129,1.4258064516129,1.42258064516129,1.43870967741935,1.42258064516129,1.40967741935484,1.39677419354839,1.4,1.38387096774194,1.39677419354839,1.38387096774194,1.37741935483871,1.3741935483871,1.38064516129032,1.35806451612903,1.33870967741935,1.32903225806452,1.31612903225806,1.31935483870968,1.33548387096774,1.34838709677419,1.34193548387097,1.35483870967742,1.34193548387097,1.35806451612903,1.36129032258065,1.38064516129032,1.3741935483871,1.38709677419355,1.39032258064516,1.38387096774194,1.38387096774194,1.38064516129032,1.38064516129032,1.39032258064516,1.38709677419355,1.37741935483871,1.36774193548387,1.35483870967742,1.37096774193548,1.3741935483871,1.3741935483871,1.39032258064516,1.35161290322581,1.33225806451613,1.33548387096774,1.33870967741935,1.34838709677419,1.35161290322581,1.37741935483871,1.38387096774194,1.39354838709677,1.40645161290323,1.4258064516129,1.41935483870968,1.4258064516129,1.44193548387097,1.44516129032258,1.4258064516129,1.42258064516129,1.42903225806452,1.41612903225806,1.42903225806452,1.41612903225806,1.41935483870968,1.40322580645161,1.38709677419355,1.39032258064516,1.39354838709677,1.44193548387097,1.66451612903226,1.94838709677419,2.1741935483871,1.55806451612903,0.883870967741936,0.874193548387097,1.15161290322581,1.3258064516129,1.39354838709677,1.42903225806452,1.42258064516129,1.45161290322581,1.44838709677419,1.43225806451613,1.45161290322581,1.46774193548387,1.46451612903226,1.45483870967742,1.45483870967742,1.45806451612903,1.44838709677419,1.43870967741935,1.43548387096774,1.42258064516129,1.42258064516129,1.40645161290323,1.41612903225806,1.41290322580645,1.41290322580645,1.40645161290323,1.39032258064516,1.38064516129032,1.37096774193548,1.38709677419355,1.36774193548387,1.37096774193548,1.4,1.42903225806452,1.45161290322581,1.45161290322581,1.45806451612903,1.45161290322581,1.45806451612903,1.43548387096774,1.43548387096774,1.43225806451613,1.43548387096774,1.42258064516129,1.41290322580645,1.38387096774194,1.3741935483871,1.35806451612903,1.34193548387097,1.31290322580645,1.28064516129032,1.29354838709677,1.28387096774194,1.28709677419355,1.30645161290323,1.33870967741935,1.36129032258065,1.38064516129032,1.38387096774194,1.3741935483871,1.39677419354839,1.38709677419355,1.38709677419355,1.39354838709677,1.39677419354839,1.40967741935484,1.40967741935484,1.41290322580645,1.41290322580645,1.40967741935484,1.39032258064516,1.3741935483871,1.37096774193548,1.38064516129032,1.38064516129032,1.39032258064516,1.38387096774194,1.38387096774194,1.38064516129032,1.36774193548387,1.35483870967742,1.35806451612903,1.36129032258065,1.37096774193548,1.37096774193548,1.38387096774194,1.3741935483871,1.3741935483871,1.39354838709677,1.38709677419355,1.39032258064516,1.40967741935484,1.42903225806452,1.41935483870968,1.4258064516129,1.44193548387097,1.43870967741935,1.41935483870968,1.42258064516129,1.43548387096774,1.42903225806452,1.42258064516129,1.40645161290323,1.39677419354839,1.39032258064516,1.36129032258065,1.35806451612903,1.35161290322581,1.3741935483871,1.38387096774194,1.38387096774194,1.38709677419355,1.39032258064516,1.41290322580645,1.42258064516129,1.44193548387097,1.45161290322581,1.43870967741935,1.45161290322581,1.43870967741935,1.43225806451613,1.42258064516129,1.40967741935484,1.41612903225806,1.39032258064516,1.37741935483871,1.36774193548387,1.36129032258065,1.34193548387097,1.32903225806452,1.31935483870968,1.42258064516129,1.70967741935484,2.00322580645161,2.13225806451613,1.38709677419355,0.812903225806452,0.919354838709677,1.18709677419355,1.33870967741935,1.38064516129032,1.41935483870968,1.44838709677419,1.45161290322581,1.45806451612903,1.45806451612903,1.45483870967742,1.46774193548387,1.44516129032258,1.45483870967742,1.45161290322581,1.42903225806452,1.42258064516129,1.41935483870968,1.42903225806452,1.44516129032258,1.44193548387097,1.46129032258065,1.45483870967742,1.45483870967742,1.46129032258065,1.45806451612903,1.44193548387097,1.43225806451613,1.42903225806452,1.41935483870968,1.41290322580645,1.39677419354839,1.41935483870968,1.4,1.40645161290323,1.39032258064516,1.39677419354839,1.39677419354839,1.38064516129032,1.38387096774194,1.4,1.39032258064516,1.41935483870968,1.41290322580645,1.39354838709677,1.39032258064516,1.37741935483871,1.38064516129032,1.34838709677419,1.33870967741935,1.33870967741935,1.31935483870968,1.31290322580645,1.3,1.3,1.29354838709677,1.31935483870968,1.3258064516129,1.32258064516129,1.33225806451613,1.35806451612903,1.38387096774194,1.39354838709677,1.40645161290323,1.40967741935484,1.41612903225806,1.42258064516129,1.41290322580645,1.41290322580645,1.4258064516129,1.4258064516129,1.41612903225806,1.40322580645161,1.38709677419355,1.36774193548387,1.32903225806452,1.33225806451613,1.31935483870968,1.32903225806452,1.32903225806452,1.34193548387097,1.36129032258065,1.38709677419355,1.39677419354839,1.40322580645161,1.40645161290323,1.43548387096774,1.41935483870968,1.44193548387097,1.43870967741935,1.43225806451613,1.45161290322581,1.45483870967742,1.44838709677419,1.4258064516129,1.40322580645161,1.38064516129032,1.36451612903226,1.36451612903226,1.36774193548387,1.32903225806452,1.34516129032258,1.35483870967742,1.35483870967742,1.36451612903226,1.36451612903226,1.5,1.80967741935484,2.18064516129032,2.06451612903226,1.23548387096774,0.793548387096774,0.974193548387097,1.21612903225806,1.35161290322581,1.40322580645161,1.41290322580645,1.43870967741935,1.42258064516129,1.42903225806452,1.44838709677419,1.4258064516129,1.44193548387097,1.43225806451613,1.44193548387097,1.45483870967742,1.47096774193548,1.47741935483871,1.46451612903226,1.45483870967742,1.44193548387097,1.45806451612903,1.43225806451613,1.41935483870968,1.41290322580645,1.40322580645161,1.38387096774194,1.37741935483871,1.36129032258065,1.35161290322581,1.36129032258065,1.34838709677419,1.33548387096774,1.35806451612903,1.36129032258065,1.36774193548387,1.36129032258065,1.39354838709677,1.39677419354839,1.42903225806452,1.43225806451613,1.4258064516129,1.41612903225806,1.40322580645161,1.40322580645161,1.38387096774194,1.37096774193548,1.37096774193548,1.38064516129032,1.36774193548387,1.35161290322581,1.33548387096774,1.33870967741935,1.3258064516129,1.33548387096774,1.32258064516129,1.32258064516129,1.34516129032258,1.35806451612903,1.37741935483871,1.38387096774194,1.40645161290323,1.4258064516129,1.41935483870968,1.42903225806452,1.40967741935484,1.40967741935484,1.4258064516129,1.41290322580645,1.41612903225806,1.40967741935484,1.60967741935484,1.9,2.22258064516129,1.72258064516129,1.00645161290323,0.835483870967742,1.04516129032258,1.25483870967742,1.33225806451613,1.39677419354839,1.41935483870968,1.45483870967742,1.46129032258065,1.47741935483871,1.48064516129032,1.48064516129032,1.47741935483871,1.49677419354839,1.49354838709677,1.49354838709677,1.48064516129032,1.45483870967742,1.44516129032258,1.43225806451613,1.42258064516129,1.41612903225806,1.39677419354839,1.35483870967742,1.33225806451613,1.31935483870968,1.31612903225806,1.31935483870968,1.3258064516129,1.33870967741935,1.32258064516129,1.33548387096774,1.35483870967742,1.36129032258065,1.36774193548387,1.37096774193548,1.3741935483871,1.38387096774194,1.39032258064516,1.4,1.39677419354839,1.39032258064516,1.38064516129032,1.3741935483871,1.37096774193548,1.35806451612903,1.36129032258065,1.35806451612903,1.37741935483871,1.38709677419355,1.39032258064516,1.3741935483871,1.36774193548387,1.36774193548387,1.37741935483871,1.38064516129032,1.37741935483871,1.39677419354839,1.39677419354839,1.40322580645161,1.41612903225806,1.41935483870968,1.42258064516129,1.41935483870968,1.40967741935484,1.40645161290323,1.39677419354839,1.39677419354839,1.47741935483871,1.72258064516129,2.04193548387097,2.17096774193548,1.49032258064516,0.838709677419355,0.906451612903226,1.13548387096774,1.29032258064516,1.34516129032258,1.38064516129032,1.4,1.39032258064516,1.37741935483871,1.38709677419355,1.40322580645161,1.39354838709677,1.41935483870968,1.41290322580645,1.41290322580645,1.45483870967742,1.47741935483871,1.48709677419355,1.48387096774194,1.46774193548387,1.46129032258065,1.4258064516129,1.42258064516129,1.41612903225806,1.39032258064516,1.36129032258065,1.36451612903226,1.35161290322581,1.34838709677419,1.34516129032258,1.34838709677419,1.34838709677419,1.33548387096774,1.34838709677419,1.36774193548387,1.38709677419355,1.41935483870968,1.41612903225806,1.4258064516129,1.43225806451613,1.4258064516129,1.41612903225806,1.40645161290323,1.40322580645161,1.39032258064516,1.37096774193548,1.36129032258065,1.36774193548387,1.35161290322581,1.34193548387097,1.3258064516129,1.31935483870968,1.31612903225806,1.33225806451613,1.34838709677419,1.36451612903226,1.37096774193548,1.3741935483871,1.38387096774194,1.37741935483871,1.38709677419355,1.38064516129032,1.38709677419355,1.38064516129032,1.38064516129032,1.38709677419355,1.39354838709677,1.39032258064516,1.40322580645161,1.40967741935484,1.4,1.4,1.39677419354839,1.38387096774194,1.40322580645161,1.39354838709677,1.41612903225806,1.42903225806452,1.43870967741935,1.43548387096774,1.41612903225806,1.53870967741935,1.79677419354839,2.13870967741935,2.08064516129032,1.36774193548387,0.806451612903226,0.929032258064516,1.18387096774194,1.32903225806452,1.3741935483871,1.38709677419355,1.38387096774194,1.36451612903226,1.36129032258065,1.35161290322581,1.37096774193548,1.40322580645161,1.4258064516129,1.44193548387097,1.46451612903226,1.48064516129032,1.5,1.50645161290323,1.50967741935484,1.50645161290323,1.48064516129032,1.45806451612903,1.44838709677419,1.44516129032258,1.42903225806452,1.41935483870968,1.40645161290323,1.38709677419355,1.35806451612903,1.36129032258065,1.34838709677419,1.33548387096774,1.34193548387097,1.35806451612903,1.36129032258065,1.36129032258065,1.3741935483871,1.3741935483871,1.3741935483871,1.38387096774194,1.37741935483871,1.38709677419355,1.3741935483871,1.37741935483871,1.37741935483871,1.38709677419355,1.39032258064516,1.39032258064516,1.37741935483871,1.37741935483871,1.39032258064516,1.38709677419355,1.39677419354839,1.41290322580645,1.40322580645161,1.39677419354839,1.51612903225806,1.79354838709677,2.1258064516129,1.97096774193548,1.21290322580645,0.793548387096774,0.961290322580645,1.21935483870968,1.35161290322581,1.38064516129032,1.4,1.38709677419355,1.40322580645161,1.40322580645161,1.41290322580645,1.40322580645161,1.40967741935484,1.41612903225806,1.43548387096774,1.45483870967742,1.45483870967742,1.45161290322581,1.45806451612903,1.46774193548387,1.46129032258065,1.46129032258065,1.44193548387097,1.42258064516129,1.38387096774194,1.38064516129032,1.36129032258065,1.36129032258065,1.34516129032258,1.34516129032258,1.33548387096774,1.33225806451613,1.31290322580645,1.31612903225806,1.30967741935484,1.33225806451613,1.32258064516129,1.31290322580645,1.31935483870968,1.3258064516129,1.34193548387097,1.36451612903226,1.37741935483871,1.38709677419355,1.4,1.39677419354839,1.40645161290323,1.42258064516129,1.41935483870968,1.43225806451613,1.43870967741935,1.43548387096774,1.43225806451613,1.40322580645161,1.40322580645161,1.42258064516129,1.41935483870968,1.39677419354839,1.38387096774194,1.36451612903226,1.36451612903226,1.38709677419355,1.40645161290323,1.39032258064516,1.37741935483871,1.35806451612903,1.36129032258065,1.36774193548387,1.38387096774194,1.39354838709677,1.38387096774194,1.39677419354839,1.40322580645161,1.39354838709677,1.41290322580645,1.40322580645161,1.41612903225806,1.40967741935484,1.40322580645161,1.39354838709677,1.37741935483871,1.38709677419355,1.39677419354839,1.40967741935484,1.4,1.39354838709677,1.37096774193548,1.4741935483871,1.7258064516129,2.03548387096774,2.08709677419355,1.35806451612903,0.764516129032258,0.864516129032258,1.15806451612903,1.29677419354839,1.36451612903226,1.39677419354839,1.40322580645161,1.41290322580645,1.42258064516129,1.44838709677419,1.46129032258065,1.46129032258065,1.44838709677419,1.45806451612903,1.47096774193548,1.4741935483871,1.44838709677419,1.45161290322581,1.43548387096774,1.44193548387097,1.42258064516129,1.42258064516129,1.40967741935484,1.42258064516129,1.41290322580645,1.42258064516129,1.42903225806452,1.42258064516129,1.44193548387097,1.43225806451613,1.43548387096774,1.44193548387097,1.45161290322581,1.44838709677419,1.44516129032258,1.44193548387097,1.4258064516129,1.41935483870968,1.40645161290323,1.4,1.38387096774194,1.36129032258065,1.35483870967742,1.33870967741935,1.3258064516129,1.32258064516129,1.32903225806452,1.31935483870968,1.31935483870968,1.30322580645161,1.30967741935484,1.31935483870968,1.32258064516129,1.3258064516129,1.35161290322581,1.59032258064516,1.9741935483871,2.08709677419355,1.41935483870968,0.8,0.712903225806452,1.02258064516129,1.23225806451613,1.33870967741935,1.38709677419355,1.40645161290323,1.42903225806452,1.41935483870968,1.43225806451613,1.44838709677419,1.45161290322581,1.45161290322581,1.48387096774194,1.48709677419355,1.49032258064516,1.49354838709677,1.49677419354839,1.48387096774194,1.48709677419355,1.47096774193548,1.43870967741935,1.44516129032258,1.41935483870968,1.4,1.39032258064516,1.38709677419355,1.37741935483871,1.34516129032258,1.36129032258065,1.36451612903226,1.36129032258065,1.38064516129032
1.34516129032258,1.35483870967742,1.38064516129032,1.40967741935484,1.41612903225806,1.42903225806452,1.43225806451613,1.43548387096774,1.44193548387097,1.43548387096774,1.43225806451613,1.44516129032258,1.44516129032258,1.43548387096774,1.42258064516129,1.40645161290323,1.38709677419355,1.34516129032258,1.35161290322581,1.33548387096774,1.34516129032258,1.34516129032258,1.35806451612903,1.37741935483871,1.4,1.40967741935484,1.41612903225806,1.41935483870968,1.44838709677419,1.43225806451613,1.45161290322581,1.44838709677419,1.44193548387097,1.46129032258065,1.46451612903226,1.45806451612903,1.43548387096774,1.41290322580645,1.38709677419355,1.3741935483871,1.37096774193548,1.3741935483871,1.33548387096774,1.35161290322581,1.36129032258065,1.36129032258065,1.37096774193548,1.37096774193548,1.50645161290323,1.81290322580645,2.18709677419355,2.06774193548387,1.24193548387097,0.796774193548387,0.97741935483871,1.21935483870968,1.35483870967742,1.40645161290323,1.41612903225806,1.44193548387097,1.4258064516129,1.42903225806452,1.44838709677419,1.42903225806452,1.44516129032258,1.43548387096774,1.44193548387097,1.45483870967742,1.47096774193548,1.47741935483871,1.46451612903226,1.45161290322581,1.43870967741935,1.45483870967742,1.42903225806452,1.41935483870968,1.40967741935484,1.4,1.38064516129032,1.37741935483871,1.35806451612903,1.34838709677419,1.35806451612903,1.34516129032258,1.33225806451613,1.35483870967742,1.35806451612903,1.36451612903226,1.35806451612903,1.38709677419355,1.39354838709677,1.42258064516129,1.42903225806452,1.41935483870968,1.40967741935484,1.4,1.4,1.37741935483871,1.36451612903226,1.36774193548387,1.37741935483871,1.36129032258065,1.34838709677419,1.32903225806452,1.33225806451613,1.32258064516129,1.33225806451613,1.31612903225806,1.31612903225806,1.33870967741935,1.35161290322581,1.37096774193548,1.38064516129032,1.4,1.41935483870968,1.41290322580645,1.42258064516129,1.40322580645161,1.40322580645161,1.41935483870968,1.40645161290323,1.40967741935484,1.40322580645161,1.60322580645161,1.89354838709677,2.21612903225806,1.71935483870968,1,0.829032258064516,1.03870967741935,1.24838709677419,1.3258064516129,1.39354838709677,1.41612903225806,1.44838709677419,1.45806451612903,1.47096774193548,1.4741935483871,1.4741935483871,1.47096774193548,1.49032258064516,1.48709677419355,1.49032258064516,1.47741935483871,1.45161290322581,1.43870967741935,1.4258064516129,1.41935483870968,1.41290322580645,1.39354838709677,1.34838709677419,1.3258064516129,1.31290322580645,1.30967741935484,1.31612903225806,1.32258064516129,1.33548387096774,1.31935483870968,1.33225806451613,1.34838709677419,1.35806451612903,1.36451612903226,1.36774193548387,1.37096774193548,1.38064516129032,1.38709677419355,1.39677419354839,1.39677419354839,1.39032258064516,1.38064516129032,1.3741935483871,1.36774193548387,1.35806451612903,1.35806451612903,1.35806451612903,1.37741935483871,1.38709677419355,1.39032258064516,1.37096774193548,1.36451612903226,1.36451612903226,1.3741935483871,1.38064516129032,1.37741935483871,1.39677419354839,1.39677419354839,1.40322580645161,1.41935483870968,1.41935483870968,1.42258064516129,1.41935483870968,1.40967741935484,1.40645161290323,1.4,1.4,1.47741935483871,1.7258064516129,2.04193548387097,2.1741935483871,1.49032258064516,0.838709677419355,0.909677419354839,1.13870967741935,1.29032258064516,1.34516129032258,1.38387096774194,1.4,1.39354838709677,1.38064516129032,1.39032258064516,1.40645161290323,1.39677419354839,1.42258064516129,1.41612903225806,1.41612903225806,1.45806451612903,1.48064516129032,1.49032258064516,1.48709677419355,1.47096774193548,1.46774193548387,1.43225806451613,1.4258064516129,1.41935483870968,1.39354838709677,1.36451612903226,1.37096774193548,1.35483870967742,1.35161290322581,1.34838709677419,1.35161290322581,1.35161290322581,1.33870967741935,1.35161290322581,1.37096774193548,1.39354838709677,1.4258064516129,1.41935483870968,1.42903225806452,1.43548387096774,1.43225806451613,1.41935483870968,1.40967741935484,1.40645161290323,1.39354838709677,1.37741935483871,1.36774193548387,1.37096774193548,1.35483870967742,1.34516129032258,1.33225806451613,1.32258064516129,1.31935483870968,1.33548387096774,1.35483870967742,1.37096774193548,1.3741935483871,1.37741935483871,1.39032258064516,1.38064516129032,1.39032258064516,1.38387096774194,1.39032258064516,1.38387096774194,1.38387096774194,1.39032258064516,1.39677419354839,1.39354838709677,1.40645161290323,1.41290322580645,1.40322580645161,1.40322580645161,1.4,1.38709677419355,1.40645161290323,1.39677419354839,1.41935483870968,1.43225806451613,1.44193548387097,1.43548387096774,1.41935483870968,1.53870967741935,1.8,2.13870967741935,2.08387096774194,1.37096774193548,0.809677419354839,0.929032258064516,1.18709677419355,1.32903225806452,1.3741935483871,1.38709677419355,1.38387096774194,1.36451612903226,1.36451612903226,1.35483870967742,1.37096774193548,1.40322580645161,1.4258064516129,1.44193548387097,1.46451612903226,1.48064516129032,1.5,1.50645161290323,1.50967741935484,1.50645161290323,1.47741935483871,1.45806451612903,1.44838709677419,1.44516129032258,1.4258064516129,1.41612903225806,1.40322580645161,1.38709677419355,1.35483870967742,1.36129032258065,1.34838709677419,1.33548387096774,1.34193548387097,1.35483870967742,1.36129032258065,1.35806451612903,1.37096774193548,1.37096774193548,1.37096774193548,1.38064516129032,1.3741935483871,1.38064516129032,1.37096774193548,1.3741935483871,1.3741935483871,1.38387096774194,1.38387096774194,1.38709677419355,1.3741935483871,1.37096774193548,1.38387096774194,1.38064516129032,1.39032258064516,1.40645161290323,1.39677419354839,1.39354838709677,1.51290322580645,1.79032258064516,2.11935483870968,1.96451612903226,1.20967741935484,0.790322580645161,0.954838709677419,1.21612903225806,1.34516129032258,1.3741935483871,1.39354838709677,1.38387096774194,1.39677419354839,1.39677419354839,1.40645161290323,1.39677419354839,1.40322580645161,1.40967741935484,1.42903225806452,1.44838709677419,1.44838709677419,1.44516129032258,1.45161290322581,1.46129032258065,1.45483870967742,1.45483870967742,1.43548387096774,1.41612903225806,1.37741935483871,1.3741935483871,1.35483870967742,1.35483870967742,1.33870967741935,1.33870967741935,1.32903225806452,1.3258064516129,1.30645161290323,1.31290322580645,1.30322580645161,1.32903225806452,1.31612903225806,1.30645161290323,1.31290322580645,1.32258064516129,1.33548387096774,1.35806451612903,1.37096774193548,1.38387096774194,1.39354838709677,1.39032258064516,1.40322580645161,1.41935483870968,1.41612903225806,1.42903225806452,1.43548387096774,1.43225806451613,1.42903225806452,1.4,1.4,1.41935483870968,1.41612903225806,1.39354838709677,1.38064516129032,1.36129032258065,1.36129032258065,1.38709677419355,1.40322580645161,1.38709677419355,1.37741935483871,1.35806451612903,1.36129032258065,1.36774193548387,1.38387096774194,1.39354838709677,1.38387096774194,1.39677419354839,1.40645161290323,1.39677419354839,1.41290322580645,1.40322580645161,1.41935483870968,1.41290322580645,1.40322580645161,1.39677419354839,1.38064516129032,1.39032258064516,1.40322580645161,1.41612903225806,1.40322580645161,1.39677419354839,1.37741935483871,1.48064516129032,1.73225806451613,2.04193548387097,2.09354838709677,1.36451612903226,0.770967741935484,0.870967741935484,1.16774193548387,1.30322580645161,1.3741935483871,1.40645161290323,1.41290322580645,1.42258064516129,1.43225806451613,1.45806451612903,1.4741935483871,1.47096774193548,1.45806451612903,1.47096774193548,1.48387096774194,1.48387096774194,1.46129032258065,1.46129032258065,1.44838709677419,1.45483870967742,1.43548387096774,1.43548387096774,1.42258064516129,1.43548387096774,1.42903225806452,1.43870967741935,1.44193548387097,1.43548387096774,1.45483870967742,1.44516129032258,1.44838709677419,1.45483870967742,1.46451612903226,1.46129032258065,1.46129032258065,1.45806451612903,1.43870967741935,1.43225806451613,1.42258064516129,1.41612903225806,1.4,1.37741935483871,1.37096774193548,1.35483870967742,1.33870967741935,1.33548387096774,1.34516129032258,1.33225806451613,1.33225806451613,1.31935483870968,1.32258064516129,1.33225806451613,1.33548387096774,1.33870967741935,1.36451612903226,1.60322580645161,1.98387096774194,2.09677419354839,1.42903225806452,0.809677419354839,0.72258064516129,1.02903225806452,1.23870967741935,1.34516129032258,1.39354838709677,1.40967741935484,1.43225806451613,1.42258064516129,1.43548387096774,1.44838709677419,1.45161290322581,1.45161290322581,1.48387096774194,1.48387096774194,1.48709677419355,1.48709677419355,1.49032258064516,1.4741935483871,1.47741935483871,1.46129032258065,1.4258064516129,1.43225806451613,1.40322580645161,1.38387096774194,1.37096774193548,1.36451612903226,1.35483870967742,1.32258064516129,1.33548387096774,1.33548387096774,1.33225806451613,1.34838709677419,1.35161290322581,1.34516129032258,1.35161290322581,1.36451612903226,1.36129032258065,1.37741935483871,1.40322580645161,1.39032258064516,1.38064516129032,1.38709677419355,1.37741935483871,1.38709677419355,1.39354838709677,1.39677419354839,1.39354838709677,1.38709677419355,1.38064516129032,1.37096774193548,1.36129032258065,1.36129032258065,1.36129032258065,1.36129032258065,1.35161290322581,1.37741935483871,1.4,1.4,1.41290322580645,1.40967741935484,1.40645161290323,1.42258064516129,1.42903225806452,1.43870967741935,1.42258064516129,1.41612903225806,1.4,1.39354838709677,1.39032258064516,1.38709677419355,1.3741935483871,1.36129032258065,1.3741935483871,1.36129032258065,1.33225806451613,1.33870967741935,1.33548387096774,1.35161290322581,1.36129032258065,1.37096774193548,1.4,1.42903225806452,1.45483870967742,1.47096774193548,1.45483870967742,1.44193548387097,1.4258064516129,1.40645161290323,1.39354838709677,1.39032258064516,1.38064516129032,1.37741935483871,1.39032258064516,1.38064516129032,1.38064516129032,1.36129032258065,1.36451612903226,1.35483870967742,1.35806451612903,1.36451612903226,1.39354838709677,1.39032258064516,1.42258064516129,1.43870967741935,1.44516129032258,1.46129032258065,1.45161290322581,1.45483870967742,1.40967741935484,1.41935483870968,1.40322580645161,1.41290322580645,1.4,1.39032258064516,1.51935483870968,1.79032258064516,2.11612903225806,1.96451612903226,1.15806451612903,0.780645161290323,0.980645161290323,1.23870967741935,1.34193548387097,1.38387096774194,1.4,1.42903225806452,1.44838709677419,1.45161290322581,1.44838709677419,1.43870967741935,1.43870967741935,1.43870967741935,1.45161290322581,1.44516129032258,1.43225806451613,1.44516129032258,1.43870967741935,1.43870967741935,1.43870967741935,1.41935483870968,1.43225806451613,1.44838709677419,1.46774193548387,1.48709677419355,1.46774193548387,1.47741935483871,1.47741935483871,1.46451612903226,1.46129032258065,1.45161290322581,1.44516129032258,1.43225806451613,1.4258064516129,1.41612903225806,1.38709677419355,1.38064516129032,1.38064516129032,1.36774193548387,1.38064516129032,1.37096774193548,1.38064516129032,1.38064516129032,1.39032258064516,1.37096774193548,1.37741935483871,1.38064516129032,1.38709677419355,1.37741935483871,1.37096774193548,1.34838709677419,1.35483870967742,1.36774193548387,1.34838709677419,1.33548387096774,1.33548387096774,1.3258064516129,1.30645161290323,1.2741935483871,1.29354838709677,1.30322580645161,1.29354838709677,1.29354838709677,1.31612903225806,1.32903225806452,1.33225806451613,1.34838709677419,1.36451612903226,1.36774193548387,1.37096774193548,1.40645161290323,1.41935483870968,1.43870967741935,1.44516129032258,1.44838709677419,1.45806451612903,1.46129032258065,1.45806451612903,1.42903225806452,1.4258064516129,1.39677419354839,1.37096774193548,1.34193548387097,1.34838709677419,1.33225806451613,1.32903225806452,1.34516129032258,1.33870967741935,1.35483870967742,1.36129032258065,1.37096774193548,1.38064516129032,1.3741935483871,1.41935483870968,1.43225806451613,1.4258064516129,1.44193548387097,1.55161290322581,1.83225806451613,2.16774193548387,2.2,1.44838709677419,0.870967741935484,0.990322580645161,1.21612903225806,1.33548387096774,1.36129032258065,1.34838709677419,1.3741935483871,1.35483870967742,1.33548387096774,1.34193548387097,1.34516129032258,1.35806451612903,1.37096774193548,1.40322580645161,1.43870967741935,1.44838709677419,1.45161290322581,1.45483870967742,1.46129032258065,1.46774193548387,1.45161290322581,1.47096774193548,1.46129032258065,1.46774193548387,1.44838709677419,1.43870967741935,1.41290322580645,1.4,1.3741935483871,1.3741935483871,1.36129032258065,1.34838709677419,1.3258064516129,1.3258064516129,1.35806451612903,1.37096774193548,1.38064516129032,1.38709677419355,1.38387096774194,1.40645161290323,1.4,1.39032258064516,1.4,1.38709677419355,1.40645161290323,1.40322580645161,1.41290322580645,1.4,1.39677419354839,1.3741935483871,1.35806451612903,1.36129032258065,1.34516129032258,1.31290322580645,1.32258064516129,1.33870967741935,1.34838709677419,1.36129032258065,1.36129032258065,1.35483870967742,1.34193548387097,1.35483870967742,1.35161290322581,1.35161290322581,1.38387096774194,1.39032258064516,1.39354838709677,1.42258064516129,1.44516129032258,1.44516129032258,1.44838709677419,1.45483870967742,1.45483870967742,1.43870967741935,1.4258064516129,1.41612903225806,1.59032258064516,1.88387096774194,2.23225806451613,1.7741935483871,1.0258064516129,0.809677419354839,1.03870967741935,1.26774193548387,1.36129032258065,1.39354838709677,1.41935483870968,1.42258064516129,1.41935483870968,1.41290322580645,1.42903225806452,1.43548387096774,1.43548387096774,1.43225806451613,1.43548387096774,1.46451612903226,1.46774193548387,1.48064516129032,1.46451612903226,1.44193548387097,1.43225806451613,1.41290322580645,1.39032258064516,1.39354838709677,1.3741935483871,1.34516129032258,1.35483870967742,1.3741935483871,1.36129032258065,1.37741935483871,1.39677419354839,1.4,1.39354838709677,1.39354838709677,1.40322580645161,1.3741935483871,1.35806451612903,1.35161290322581,1.33548387096774,1.33548387096774,1.36129032258065,1.34838709677419,1.36129032258065,1.36129032258065,1.3741935483871,1.36129032258065,1.37096774193548,1.3741935483871,1.38064516129032,1.38064516129032,1.39354838709677,1.40645161290323,1.41290322580645,1.43548387096774,1.43870967741935,1.43870967741935,1.4,1.55806451612903,1.80322580645161,2.13548387096774,1.79354838709677,1.02903225806452,0.716129032258065,0.964516129032258,1.24193548387097,1.3741935483871,1.40967741935484,1.44193548387097,1.43548387096774,1.45161290322581,1.44193548387097,1.46451612903226,1.46129032258065,1.46451612903226,1.47096774193548,1.45806451612903,1.4741935483871,1.4741935483871,1.47096774193548,1.44838709677419,1.42903225806452,1.39677419354839,1.38709677419355,1.39677419354839,1.36451612903226,1.36451612903226,1.34516129032258,1.33870967741935,1.34516129032258,1.34838709677419,1.34838709677419,1.34838709677419,1.38387096774194,1.35483870967742,1.3741935483871,1.35161290322581,1.3741935483871,1.37741935483871,1.3741935483871,1.3741935483871,1.3741935483871,1.37741935483871,1.35161290322581,1.35806451612903,1.34838709677419,1.3741935483871,1.39354838709677,1.39354838709677,1.38709677419355,1.39032258064516,1.39354838709677,1.39677419354839,1.4,1.40322580645161,1.4258064516129,1.41935483870968,1.42903225806452,1.41935483870968,1.40967741935484,1.39032258064516,1.38709677419355,1.3741935483871,1.36129032258065,1.3741935483871,1.38064516129032,1.38709677419355,1.36129032258065,1.36129032258065,1.35483870967742,1.36129032258065,1.34193548387097,1.34838709677419,1.36451612903226,1.38709677419355,1.40967741935484,1.4258064516129,1.44193548387097,1.45483870967742,1.46129032258065,1.46774193548387,1.43870967741935,1.44193548387097,1.41290322580645,1.4,1.38709677419355,1.37096774193548,1.37741935483871,1.39032258064516,1.38387096774194,1.39677419354839,1.5258064516129,1.76129032258065,2.08709677419355,1.9258064516129,1.19677419354839,0.741935483870968,0.932258064516129,1.20967741935484,1.34838709677419,1.41612903225806,1.45161290322581,1.45806451612903,1.47741935483871,1.48387096774194,1.47741935483871,1.48064516129032,1.46451612903226,1.45483870967742,1.44193548387097,1.44193548387097,1.44516129032258,1.43870967741935,1.43870967741935,1.44838709677419,1.43548387096774,1.42258064516129,1.41290322580645,1.39354838709677,1.41290322580645,1.41612903225806,1.42258064516129,1.43870967741935,1.44516129032258,1.44838709677419,1.44193548387097,1.44838709677419,1.44838709677419,1.44516129032258,1.4741935483871,1.45806451612903,1.44838709677419,1.44516129032258,1.43548387096774,1.42903225806452,1.40967741935484,1.38709677419355,1.38064516129032,1.35483870967742,1.34193548387097,1.33870967741935,1.31612903225806,1.32258064516129,1.32258064516129,1.32903225806452,1.30967741935484,1.3258064516129,1.33548387096774,1.3258064516129,1.32903225806452,1.33225806451613,1.34516129032258,1.35483870967742,1.36774193548387,1.36774193548387,1.3741935483871,1.38064516129032,1.39032258064516,1.40967741935484,1.39032258064516,1.35806451612903,1.35483870967742,1.35483870967742,1.36451612903226,1.36774193548387,1.3741935483871,1.37096774193548,1.36774193548387,1.37741935483871,1.37741935483871,1.39677419354839,1.40322580645161,1.4,1.41935483870968,1.40645161290323,1.4,1.41935483870968,1.39032258064516,1.39032258064516,1.4,1.38709677419355,1.38387096774194,1.3741935483871,1.35483870967742,1.36774193548387,1.37741935483871,1.37741935483871,1.39032258064516,1.38709677419355,1.39354838709677,1.39354838709677,1.41290322580645,1.48387096774194,1.75161290322581,2.05483870967742,2.21290322580645,1.53548387096774,0.867741935483871,0.912903225806452,1.16774193548387,1.32258064516129,1.36774193548387,1.39354838709677,1.39354838709677,1.39032258064516,1.39677419354839,1.38709677419355,1.37741935483871,1.3741935483871,1.38709677419355,1.41290322580645,1.43225806451613,1.44193548387097,1.44516129032258,1.44838709677419,1.46451612903226,1.44193548387097,1.44838709677419,1.44193548387097,1.44516129032258,1.44516129032258,1.43225806451613,1.43225806451613,1.40967741935484,1.41290322580645,1.40967741935484,1.40967741935484,1.39677419354839,1.4,1.38064516129032,1.38709677419355,1.39032258064516,1.37741935483871,1.36774193548387,1.39032258064516,1.39677419354839,1.39032258064516,1.41290322580645,1.41612903225806,1.41612903225806,1.40645161290323,1.39354838709677,1.3741935483871,1.36129032258065,1.36774193548387,1.36129032258065,1.35806451612903,1.35161290322581,1.32903225806452,1.33548387096774,1.34516129032258,1.36129032258065,1.35483870967742,1.35806451612903,1.35161290322581,1.34516129032258,1.36774193548387,1.39032258064516,1.41612903225806,1.44516129032258,1.43225806451613,1.41612903225806,1.41935483870968,1.41290322580645,1.4,1.4,1.3741935483871,1.38387096774194,1.37096774193548,1.36451612903226,1.37741935483871,1.37096774193548,1.36129032258065,1.37096774193548,1.34193548387097,1.36774193548387,1.36774193548387,1.35806451612903,1.36129032258065,1.37096774193548,1.38709677419355,1.39354838709677,1.39677419354839,1.39354838709677,1.40645161290323,1.40645161290323,1.39677419354839,1.38709677419355,1.41935483870968,1.41290322580645,1.40967741935484,1.40645161290323,1.38709677419355,1.39354838709677,1.57741935483871,1.87096774193548,2.25161290322581,1.97741935483871,1.15483870967742,0.825806451612903,1.0258064516129,1.27096774193548,1.35806451612903,1.40967741935484,1.4258064516129,1.43225806451613,1.43870967741935,1.41612903225806,1.4,1.39354838709677,1.37741935483871,1.39354838709677,1.4,1.41612903225806,1.4258064516129,1.44193548387097,1.43870967741935,1.46129032258065,1.46451612903226,1.44193548387097,1.43548387096774,1.43548387096774,1.44516129032258,1.45161290322581,1.43225806451613,1.41612903225806,1.4,1.4,1.39677419354839,1.37741935483871,1.3741935483871,1.36129032258065,1.36129032258065,1.36129032258065,1.36774193548387,1.38709677419355,1.38387096774194,1.39677419354839,1.40967741935484,1.41290322580645,1.39677419354839,1.40322580645161,1.41935483870968,1.4258064516129,1.4258064516129,1.40645161290323,1.39032258064516,1.3741935483871,1.38064516129032,1.3741935483871,1.35161290322581,1.34516129032258,1.32903225806452,1.31612903225806,1.33225806451613,1.36451612903226,1.36774193548387,1.37741935483871,1.39032258064516,1.39032258064516,1.39677419354839,1.39354838709677,1.4,1.40645161290323,1.41935483870968,1.42903225806452,1.41290322580645,1.40967741935484,1.39354838709677,1.39677419354839,1.41290322580645,1.4,1.39354838709677,1.37741935483871,1.35806451612903,1.37096774193548,1.37741935483871,1.39677419354839,1.40967741935484,1.42258064516129,1.4258064516129,1.42903225806452,1.41612903225806,1.41612903225806,1.41612903225806,1.44193548387097,1.43548387096774,1.44516129032258,1.41935483870968,1.39677419354839,1.39354838709677,1.39032258064516
1.39354838709677,1.38709677419355,1.36774193548387,1.38064516129032,1.3741935483871,1.4,1.39032258064516,1.37741935483871,1.35161290322581,1.32903225806452,1.33870967741935,1.35806451612903,1.35806451612903,1.39677419354839,1.38709677419355,1.39032258064516,1.38709677419355,1.40322580645161,1.40645161290323,1.41935483870968,1.40645161290323,1.40645161290323,1.41935483870968,1.40967741935484,1.41935483870968,1.4258064516129,1.4258064516129,1.4,1.39677419354839,1.38709677419355,1.37741935483871,1.38387096774194,1.38387096774194,1.3741935483871,1.36451612903226,1.37096774193548,1.38709677419355,1.38064516129032,1.4,1.40645161290323,1.40322580645161,1.41612903225806,1.43870967741935,1.44193548387097,1.44193548387097,1.43225806451613,1.43548387096774,1.42258064516129,1.42903225806452,1.43225806451613,1.4258064516129,1.41612903225806,1.40645161290323,1.40322580645161,1.39032258064516,1.37741935483871,1.37096774193548,1.3741935483871,1.37741935483871,1.37741935483871,1.38064516129032,1.39677419354839,1.42258064516129,1.41935483870968,1.41612903225806,1.42903225806452,1.41935483870968,1.41612903225806,1.41935483870968,1.43225806451613,1.42258064516129,1.44516129032258,1.41935483870968,1.4,1.39032258064516,1.38387096774194,1.38387096774194,1.38064516129032,1.37096774193548,1.36774193548387,1.3741935483871,1.36451612903226,1.3741935483871,1.35161290322581,1.34516129032258,1.35161290322581,1.34838709677419,1.35806451612903,1.35161290322581,1.37096774193548,1.39354838709677,1.41612903225806,1.4258064516129,1.43548387096774,1.43548387096774,1.43225806451613,1.44193548387097,1.44516129032258,1.42903225806452,1.44193548387097,1.42903225806452,1.40967741935484,1.40967741935484,1.41612903225806,1.39032258064516,1.3741935483871,1.5,1.79032258064516,2.09354838709677,2.03870967741935,1.23548387096774,0.767741935483871,0.945161290322581,1.21290322580645,1.33870967741935,1.38064516129032,1.39032258064516,1.43225806451613,1.42903225806452,1.43870967741935,1.45161290322581,1.45161290322581,1.45806451612903,1.45161290322581,1.45161290322581,1.45483870967742,1.44838709677419,1.42903225806452,1.4258064516129,1.41935483870968,1.41935483870968,1.41612903225806,1.40645161290323,1.41290322580645,1.40645161290323,1.40967741935484,1.39677419354839,1.41612903225806,1.39032258064516,1.36774193548387,1.37741935483871,1.38064516129032,1.39354838709677,1.40322580645161,1.38709677419355,1.39677419354839,1.41290322580645,1.4,1.41935483870968,1.43548387096774,1.41612903225806,1.41612903225806,1.41935483870968,1.41290322580645,1.42258064516129,1.41290322580645,1.4,1.37741935483871,1.38387096774194,1.35483870967742,1.33548387096774,1.3258064516129,1.31290322580645,1.31612903225806,1.3,1.28709677419355,1.28387096774194,1.30967741935484,1.30322580645161,1.33548387096774,1.35806451612903,1.36774193548387,1.35806451612903,1.38709677419355,1.39032258064516,1.41290322580645,1.41935483870968,1.42258064516129,1.41935483870968,1.40645161290323,1.41290322580645,1.39677419354839,1.38387096774194,1.38387096774194,1.38064516129032,1.36129032258065,1.37096774193548,1.35806451612903,1.35806451612903,1.36129032258065,1.36774193548387,1.35806451612903,1.37096774193548,1.38064516129032,1.38709677419355,1.40322580645161,1.40967741935484,1.41935483870968,1.42903225806452,1.43225806451613,1.44838709677419,1.44838709677419,1.45483870967742,1.43870967741935,1.4258064516129,1.42903225806452,1.40967741935484,1.4,1.38387096774194,1.38387096774194,1.39032258064516,1.38387096774194,1.4,1.38709677419355,1.36774193548387,1.34193548387097,1.34838709677419,1.43870967741935,1.74838709677419,2.09032258064516,2.2258064516129,1.4741935483871,0.848387096774194,0.948387096774194,1.21290322580645,1.35483870967742,1.39677419354839,1.41935483870968,1.42258064516129,1.40645161290323,1.41290322580645,1.41612903225806,1.42258064516129,1.43870967741935,1.44516129032258,1.45483870967742,1.44193548387097,1.41612903225806,1.40645161290323,1.41290322580645,1.41612903225806,1.4258064516129,1.42903225806452,1.42903225806452,1.41290322580645,1.40645161290323,1.39032258064516,1.36774193548387,1.35806451612903,1.34838709677419,1.34516129032258,1.35161290322581,1.35483870967742,1.34838709677419,1.36774193548387,1.3741935483871,1.3741935483871,1.36129032258065,1.39032258064516,1.37741935483871,1.36451612903226,1.3741935483871,1.37096774193548,1.37741935483871,1.39032258064516,1.39032258064516,1.38709677419355,1.39354838709677,1.38064516129032,1.38709677419355,1.4,1.38064516129032,1.36451612903226,1.34193548387097,1.42903225806452,1.71935483870968,2.10645161290323,2.13225806451613,1.38064516129032,0.793548387096774,0.858064516129032,1.10967741935484,1.29677419354839,1.40322580645161,1.41290322580645,1.44193548387097,1.45483870967742,1.44516129032258,1.44193548387097,1.45483870967742,1.45806451612903,1.44516129032258,1.44516129032258,1.44838709677419,1.44193548387097,1.44838709677419,1.46129032258065,1.44516129032258,1.4258064516129,1.40967741935484,1.39354838709677,1.38064516129032,1.38709677419355,1.36774193548387,1.34193548387097,1.33870967741935,1.33225806451613,1.33870967741935,1.33870967741935,1.33225806451613,1.35483870967742,1.37096774193548,1.36129032258065,1.3741935483871,1.36774193548387,1.36451612903226,1.36774193548387,1.37096774193548,1.39032258064516,1.3741935483871,1.38709677419355,1.4,1.39354838709677,1.41612903225806,1.41290322580645,1.39354838709677,1.39354838709677,1.38387096774194,1.37096774193548,1.36774193548387,1.3741935483871,1.3741935483871,1.34516129032258,1.35161290322581,1.35806451612903,1.36774193548387,1.38064516129032,1.39032258064516,1.39354838709677,1.40322580645161,1.41290322580645,1.41612903225806,1.42258064516129,1.4258064516129,1.43548387096774,1.44838709677419,1.46774193548387,1.45483870967742,1.44193548387097,1.43548387096774,1.45161290322581,1.43870967741935,1.41290322580645,1.40967741935484,1.38709677419355,1.36129032258065,1.35483870967742,1.34516129032258,1.33225806451613,1.31612903225806,1.3258064516129,1.34516129032258,1.35806451612903,1.37096774193548,1.3741935483871,1.38709677419355,1.38387096774194,1.39354838709677,1.40967741935484,1.58064516129032,1.87741935483871,2.25161290322581,2.0741935483871,1.23548387096774,0.825806451612903,1.03225806451613,1.2741935483871,1.38709677419355,1.42258064516129,1.43548387096774,1.40322580645161,1.39354838709677,1.39032258064516,1.37741935483871,1.37096774193548,1.39032258064516,1.36451612903226,1.4,1.41935483870968,1.41935483870968,1.42903225806452,1.45806451612903,1.47741935483871,1.47741935483871,1.48387096774194,1.4741935483871,1.46774193548387,1.45483870967742,1.45161290322581,1.45161290322581,1.44516129032258,1.4258064516129,1.41290322580645,1.38709677419355,1.38387096774194,1.3741935483871,1.35161290322581,1.34193548387097,1.32258064516129,1.33225806451613,1.33870967741935,1.36129032258065,1.36774193548387,1.38064516129032,1.40322580645161,1.40645161290323,1.42903225806452,1.40967741935484,1.40645161290323,1.40645161290323,1.39354838709677,1.38387096774194,1.39677419354839,1.39354838709677,1.38387096774194,1.36451612903226,1.33548387096774,1.31935483870968,1.31612903225806,1.30322580645161,1.28064516129032,1.28064516129032,1.2741935483871,1.28709677419355,1.3,1.31290322580645,1.38387096774194,1.68387096774194,2.00322580645161,2.14838709677419,1.46129032258065,0.87741935483871,0.932258064516129,1.16129032258065,1.34838709677419,1.41935483870968,1.43548387096774,1.45806451612903,1.4741935483871,1.49032258064516,1.45806451612903,1.45161290322581,1.44193548387097,1.4258064516129,1.40967741935484,1.39354838709677,1.39032258064516,1.38064516129032,1.3741935483871,1.3741935483871,1.38064516129032,1.39677419354839,1.38709677419355,1.37096774193548,1.37741935483871,1.39032258064516,1.37741935483871,1.39032258064516,1.38387096774194,1.38387096774194,1.39677419354839,1.40645161290323,1.41935483870968,1.41612903225806,1.4,1.38709677419355,1.37741935483871,1.36451612903226,1.39677419354839,1.34838709677419,1.34193548387097,1.34193548387097,1.35483870967742,1.35806451612903,1.37096774193548,1.37741935483871,1.38387096774194,1.38709677419355,1.39677419354839,1.41290322580645,1.41935483870968,1.43870967741935,1.43548387096774,1.44193548387097,1.43870967741935,1.42258064516129,1.41612903225806,1.39354838709677,1.3741935483871,1.37741935483871,1.35806451612903,1.35806451612903,1.3258064516129,1.34838709677419,1.33870967741935,1.34516129032258,1.36451612903226,1.35806451612903,1.36451612903226,1.38709677419355,1.40645161290323,1.40967741935484,1.40967741935484,1.41935483870968,1.42258064516129,1.4258064516129,1.44516129032258,1.44516129032258,1.44516129032258,1.40322580645161,1.38709677419355,1.36451612903226,1.42258064516129,1.69032258064516,2.00645161290323,2.15806451612903,1.48709677419355,0.851612903225806,0.887096774193548,1.12903225806452,1.29677419354839,1.38387096774194,1.43225806451613,1.44516129032258,1.44516129032258,1.45161290322581,1.47741935483871,1.49032258064516,1.49354838709677,1.51612903225806,1.49032258064516,1.46451612903226,1.44516129032258,1.43225806451613,1.43548387096774,1.44516129032258,1.41612903225806,1.41290322580645,1.40967741935484,1.40967741935484,1.39354838709677,1.39032258064516,1.38387096774194,1.4,1.40322580645161,1.39032258064516,1.38387096774194,1.37741935483871,1.38387096774194,1.40645161290323,1.42258064516129,1.41290322580645,1.40645161290323,1.39354838709677,1.39677419354839,1.37096774193548,1.38387096774194,1.39032258064516,1.39032258064516,1.39677419354839,1.40322580645161,1.4,1.37741935483871,1.3741935483871,1.36774193548387,1.37096774193548,1.39677419354839,1.35806451612903,1.35483870967742,1.36774193548387,1.34838709677419,1.36774193548387,1.3741935483871,1.36451612903226,1.34516129032258,1.31290322580645,1.30322580645161,1.30967741935484,1.3258064516129,1.30967741935484,1.44193548387097,1.76774193548387,2.13225806451613,2.10645161290323,1.37741935483871,0.829032258064516,0.938709677419355,1.20322580645161,1.38064516129032,1.44193548387097,1.45806451612903,1.46451612903226,1.46451612903226,1.4741935483871,1.47741935483871,1.49677419354839,1.46774193548387,1.4258064516129,1.41612903225806,1.40645161290323,1.40645161290323,1.39354838709677,1.39354838709677,1.3741935483871,1.37096774193548,1.35806451612903,1.33870967741935,1.32258064516129,1.30645161290323,1.32258064516129,1.32903225806452,1.33870967741935,1.35161290322581,1.37096774193548,1.38064516129032,1.40322580645161,1.42258064516129,1.43548387096774,1.42903225806452,1.41290322580645,1.41612903225806,1.40967741935484,1.39677419354839,1.39354838709677,1.39677419354839,1.38387096774194,1.39677419354839,1.38064516129032,1.37096774193548,1.35161290322581,1.33870967741935,1.36451612903226,1.35483870967742,1.34838709677419,1.33225806451613,1.35483870967742,1.36451612903226,1.3741935483871,1.39032258064516,1.40645161290323,1.40645161290323,1.40645161290323,1.41612903225806,1.4258064516129,1.43225806451613,1.43548387096774,1.42258064516129,1.4258064516129,1.4258064516129,1.42258064516129,1.41612903225806,1.40322580645161,1.4,1.43225806451613,1.40967741935484,1.40645161290323,1.41935483870968,1.4,1.39677419354839,1.40645161290323,1.39354838709677,1.38709677419355,1.35161290322581,1.34193548387097,1.33870967741935,1.36129032258065,1.36774193548387,1.36129032258065,1.38064516129032,1.37741935483871,1.37096774193548,1.39032258064516,1.38709677419355,1.41290322580645,1.42258064516129,1.43870967741935,1.43225806451613,1.4258064516129,1.42903225806452,1.44193548387097,1.42903225806452,1.44193548387097,1.4258064516129,1.4,1.38387096774194,1.39354838709677,1.3741935483871,1.39032258064516,1.36774193548387,1.36129032258065,1.35806451612903,1.36451612903226,1.34516129032258,1.34193548387097,1.34838709677419,1.38064516129032,1.39354838709677,1.39677419354839,1.42903225806452,1.4258064516129,1.43870967741935,1.44193548387097,1.44838709677419,1.45806451612903,1.44838709677419,1.41612903225806,1.41290322580645,1.40645161290323,1.39677419354839,1.4,1.38387096774194,1.36451612903226,1.35806451612903,1.35161290322581,1.35161290322581,1.34838709677419,1.48709677419355,1.80645161290323,2.2,2.03225806451613,1.18387096774194,0.77741935483871,0.990322580645161,1.24838709677419,1.3741935483871,1.40967741935484,1.41935483870968,1.42903225806452,1.42258064516129,1.43870967741935,1.43870967741935,1.44193548387097,1.42903225806452,1.43870967741935,1.42903225806452,1.43225806451613,1.41290322580645,1.41935483870968,1.43548387096774,1.44516129032258,1.44516129032258,1.44838709677419,1.44516129032258,1.43225806451613,1.44193548387097,1.46129032258065,1.46129032258065,1.44516129032258,1.45161290322581,1.43225806451613,1.43548387096774,1.44838709677419,1.43548387096774,1.42258064516129,1.39677419354839,1.4,1.40322580645161,1.4,1.41290322580645,1.41290322580645,1.41935483870968,1.4258064516129,1.40967741935484,1.39354838709677,1.38064516129032,1.37741935483871,1.3741935483871,1.35483870967742,1.34193548387097,1.3258064516129,1.30967741935484,1.29677419354839,1.31935483870968,1.29354838709677,1.2741935483871,1.27741935483871,1.24516129032258,1.24193548387097,1.32903225806452,1.61935483870968,2.05483870967742,1.93225806451613,1.23870967741935,0.687096774193548,0.735483870967742,1.09032258064516,1.29677419354839,1.40645161290323,1.45161290322581,1.46451612903226,1.4741935483871,1.46451612903226,1.45483870967742,1.44838709677419,1.45161290322581,1.45161290322581,1.44193548387097,1.44838709677419,1.43870967741935,1.41612903225806,1.41290322580645,1.41612903225806,1.40645161290323,1.40322580645161,1.4258064516129,1.45161290322581,1.43870967741935,1.43870967741935,1.4258064516129,1.4258064516129,1.42258064516129,1.42258064516129,1.4258064516129,1.42258064516129,1.4,1.39354838709677,1.40967741935484,1.39677419354839,1.37096774193548,1.36451612903226,1.35806451612903,1.33225806451613,1.31935483870968,1.31935483870968,1.31612903225806,1.32258064516129,1.33870967741935,1.35483870967742,1.38709677419355,1.38387096774194,1.38709677419355,1.49677419354839,1.7741935483871,2.09354838709677,2.09677419354839,1.36129032258065,0.838709677419355,0.948387096774194,1.20322580645161,1.34838709677419,1.39677419354839,1.40322580645161,1.41935483870968,1.40967741935484,1.40967741935484,1.42258064516129,1.4258064516129,1.43225806451613,1.43548387096774,1.46451612903226,1.45483870967742,1.45483870967742,1.45161290322581,1.44838709677419,1.44193548387097,1.43870967741935,1.42903225806452,1.40967741935484,1.4,1.38387096774194,1.39032258064516,1.3741935483871,1.37741935483871,1.36774193548387,1.36774193548387,1.3741935483871,1.3741935483871,1.3741935483871,1.39032258064516,1.38709677419355,1.41290322580645,1.4258064516129,1.4,1.40645161290323,1.39354838709677,1.38387096774194,1.40322580645161,1.39354838709677,1.38064516129032,1.36451612903226,1.34193548387097,1.36129032258065,1.35483870967742,1.34516129032258,1.34838709677419,1.33225806451613,1.32903225806452,1.33225806451613,1.33870967741935,1.34516129032258,1.36774193548387,1.40322580645161,1.41612903225806,1.4258064516129,1.40967741935484,1.41935483870968,1.42903225806452,1.44838709677419,1.44838709677419,1.44516129032258,1.43225806451613,1.41290322580645,1.38387096774194,1.38709677419355,1.38709677419355,1.38387096774194,1.3741935483871,1.36774193548387,1.35161290322581,1.35161290322581,1.33548387096774,1.33548387096774,1.34516129032258,1.3741935483871,1.40967741935484,1.41612903225806,1.41612903225806,1.41612903225806,1.42258064516129,1.4258064516129,1.42903225806452,1.43548387096774,1.4258064516129,1.39677419354839,1.39032258064516,1.37741935483871,1.38709677419355,1.39354838709677,1.38709677419355,1.55161290322581,1.82258064516129,2.11612903225806,1.76129032258065,0.987096774193548,0.770967741935484,1.01935483870968,1.24516129032258,1.34838709677419,1.39677419354839,1.41612903225806,1.43225806451613,1.45161290322581,1.44838709677419,1.46774193548387,1.46129032258065,1.45806451612903,1.44193548387097,1.45806451612903,1.44516129032258,1.43870967741935,1.43870967741935,1.44838709677419,1.43870967741935,1.43548387096774,1.4258064516129,1.40645161290323,1.41612903225806,1.43870967741935,1.45483870967742,1.47096774193548,1.46774193548387,1.46129032258065,1.47096774193548,1.48064516129032,1.49032258064516,1.48387096774194,1.44516129032258,1.44516129032258,1.44193548387097,1.42903225806452,1.41612903225806,1.39677419354839,1.39354838709677,1.3741935483871,1.37096774193548,1.35483870967742,1.34193548387097,1.32903225806452,1.3258064516129,1.30322580645161,1.31612903225806,1.3258064516129,1.3258064516129,1.30967741935484,1.31612903225806,1.32258064516129,1.31935483870968,1.31612903225806,1.32258064516129,1.32258064516129,1.31935483870968,1.3258064516129,1.34516129032258,1.36451612903226,1.37096774193548,1.38387096774194,1.38387096774194,1.3741935483871,1.3741935483871,1.50645161290323,1.79677419354839,2.14838709677419,2.02903225806452,1.31612903225806,0.867741935483871,0.990322580645161,1.2258064516129,1.35806451612903,1.40967741935484,1.42903225806452,1.40967741935484,1.41290322580645,1.3741935483871,1.3741935483871,1.38064516129032,1.40967741935484,1.41290322580645,1.42258064516129,1.43548387096774,1.43870967741935,1.43870967741935,1.44193548387097,1.41612903225806,1.40322580645161,1.40967741935484,1.41290322580645,1.40967741935484,1.40645161290323,1.39354838709677,1.39032258064516,1.36451612903226,1.36774193548387,1.36129032258065,1.35806451612903,1.32903225806452,1.3258064516129,1.32903225806452,1.33548387096774,1.34838709677419,1.34516129032258,1.36129032258065,1.36129032258065,1.37096774193548,1.36774193548387,1.37096774193548,1.37741935483871,1.39354838709677,1.41612903225806,1.43225806451613,1.4258064516129,1.42903225806452,1.43225806451613,1.43548387096774,1.43870967741935,1.42903225806452,1.40645161290323,1.38709677419355,1.35806451612903,1.37096774193548,1.36129032258065,1.36129032258065,1.36129032258065,1.37096774193548,1.36774193548387,1.36129032258065,1.38064516129032,1.36774193548387,1.36129032258065,1.39032258064516,1.41612903225806,1.4258064516129,1.41290322580645,1.43225806451613,1.43870967741935,1.4741935483871,1.46774193548387,1.46774193548387,1.45483870967742,1.41290322580645,1.40322580645161,1.3741935483871,1.38387096774194,1.36774193548387,1.38064516129032,1.39354838709677,1.63225806451613,1.90645161290323,2.20967741935484,1.65806451612903,0.945161290322581,0.832258064516129,1.08709677419355,1.3,1.36451612903226,1.39354838709677,1.42258064516129,1.44516129032258,1.46774193548387,1.49032258064516,1.49677419354839,1.45483870967742,1.43548387096774,1.42258064516129,1.42258064516129,1.42903225806452,1.43870967741935,1.41935483870968,1.41612903225806,1.4258064516129,1.40322580645161,1.40645161290323,1.39354838709677,1.40645161290323,1.4258064516129,1.4258064516129,1.43548387096774,1.42258064516129,1.43548387096774,1.42903225806452,1.44193548387097,1.43870967741935,1.44193548387097,1.43548387096774,1.39354838709677,1.38387096774194,1.38387096774194,1.38387096774194,1.39354838709677,1.39354838709677,1.39677419354839,1.40322580645161,1.3741935483871,1.36774193548387,1.34838709677419,1.36451612903226,1.37096774193548,1.38064516129032,1.35806451612903,1.35161290322581,1.35806451612903,1.36451612903226,1.37741935483871,1.37741935483871,1.38387096774194,1.35161290322581,1.32903225806452,1.31612903225806,1.32258064516129,1.31290322580645,1.30967741935484,1.31935483870968,1.33225806451613,1.36774193548387,1.36129032258065,1.38064516129032,1.38064516129032,1.39677419354839,1.41612903225806,1.43870967741935,1.43548387096774,1.43548387096774,1.42903225806452,1.43870967741935,1.44516129032258,1.45806451612903,1.41935483870968,1.41935483870968,1.38709677419355,1.35806451612903,1.35483870967742,1.35806451612903,1.35483870967742,1.35806451612903,1.34516129032258,1.36129032258065,1.35806451612903,1.35806451612903,1.36451612903226,1.37096774193548,1.39032258064516,1.43225806451613,1.43548387096774,1.42903225806452,1.42903225806452,1.43548387096774,1.44838709677419,1.62903225806452,1.90322580645161,2.22903225806452,1.80322580645161,0.970967741935484,0.770967741935484,1.00322580645161,1.23870967741935,1.33225806451613,1.35806451612903,1.36451612903226,1.37096774193548,1.36129032258065,1.36451612903226,1.35806451612903,1.38387096774194,1.40322580645161,1.44516129032258,1.46129032258065,1.48387096774194,1.49032258064516,1.47741935483871,1.49032258064516,1.45161290322581,1.43870967741935,1.41935483870968,1.40645161290323,1.40322580645161,1.40322580645161,1.40645161290323,1.4,1.41290322580645,1.41290322580645,1.39677419354839,1.39354838709677,1.36451612903226,1.36451612903226,1.3741935483871,1.37741935483871,1.40645161290323,1.43548387096774,1.43225806451613,1.43870967741935,1.43870967741935,1.45161290322581,1.44516129032258,1.40967741935484,1.39354838709677,1.38387096774194,1.36129032258065,1.36451612903226,1.35806451612903,1.34838709677419,1.34516129032258
1.44838709677419,1.45161290322581,1.45483870967742,1.45483870967742,1.41290322580645,1.38709677419355,1.38709677419355,1.6258064516129,1.88064516129032,2.15806451612903,1.64193548387097,0.938709677419355,0.803225806451613,1.02903225806452,1.27096774193548,1.36451612903226,1.41935483870968,1.44193548387097,1.46774193548387,1.47741935483871,1.49032258064516,1.5,1.49677419354839,1.50645161290323,1.50645161290323,1.50645161290323,1.49032258064516,1.46451612903226,1.43225806451613,1.43225806451613,1.4258064516129,1.4,1.39032258064516,1.37741935483871,1.34516129032258,1.34193548387097,1.33225806451613,1.33870967741935,1.34838709677419,1.36129032258065,1.38709677419355,1.39677419354839,1.40645161290323,1.41612903225806,1.44838709677419,1.43870967741935,1.43870967741935,1.42903225806452,1.43548387096774,1.39677419354839,1.38387096774194,1.38387096774194,1.36774193548387,1.35806451612903,1.34838709677419,1.35806451612903,1.36774193548387,1.34838709677419,1.34193548387097,1.33870967741935,1.33548387096774,1.35161290322581,1.35483870967742,1.3741935483871,1.39354838709677,1.40967741935484,1.41935483870968,1.42258064516129,1.42903225806452,1.41935483870968,1.41935483870968,1.39032258064516,1.38709677419355,1.39032258064516,1.37741935483871,1.36129032258065,1.35806451612903,1.36129032258065,1.36129032258065,1.35806451612903,1.38709677419355,1.38709677419355,1.38709677419355,1.35806451612903,1.34516129032258,1.34193548387097,1.33870967741935,1.35483870967742,1.38387096774194,1.39677419354839,1.40967741935484,1.41290322580645,1.40967741935484,1.40645161290323,1.38064516129032,1.37741935483871,1.38387096774194,1.39354838709677,1.38709677419355,1.39032258064516,1.40645161290323,1.40322580645161,1.40645161290323,1.38064516129032,1.37741935483871,1.50645161290323,1.78387096774194,2.1258064516129,2.07096774193548,1.28387096774194,0.787096774193548,0.961290322580645,1.20645161290323,1.31290322580645,1.3741935483871,1.41290322580645,1.40967741935484,1.40645161290323,1.41612903225806,1.42258064516129,1.42903225806452,1.44838709677419,1.45806451612903,1.42903225806452,1.43870967741935,1.43548387096774,1.43225806451613,1.4258064516129,1.43870967741935,1.43870967741935,1.42903225806452,1.41935483870968,1.43870967741935,1.4258064516129,1.41290322580645,1.38709677419355,1.40967741935484,1.43548387096774,1.42903225806452,1.43870967741935,1.43548387096774,1.43225806451613,1.44838709677419,1.41290322580645,1.41935483870968,1.41612903225806,1.41290322580645,1.4,1.38709677419355,1.38709677419355,1.37096774193548,1.3741935483871,1.38064516129032,1.37096774193548,1.36129032258065,1.33225806451613,1.3258064516129,1.30967741935484,1.28064516129032,1.30645161290323,1.31612903225806,1.31935483870968,1.31935483870968,1.31290322580645,1.30322580645161,1.29354838709677,1.30967741935484,1.32258064516129,1.31612903225806,1.51935483870968,1.83225806451613,2.21935483870968,1.91290322580645,1.15483870967742,0.77741935483871,1.00967741935484,1.25483870967742,1.38064516129032,1.40967741935484,1.44193548387097,1.44193548387097,1.44838709677419,1.46129032258065,1.45161290322581,1.44516129032258,1.43870967741935,1.44516129032258,1.43870967741935,1.42258064516129,1.39354838709677,1.4,1.42258064516129,1.39677419354839,1.42258064516129,1.42903225806452,1.41612903225806,1.40967741935484,1.3741935483871,1.36129032258065,1.36129032258065,1.36129032258065,1.36451612903226,1.36774193548387,1.4,1.40645161290323,1.4,1.40645161290323,1.40967741935484,1.40322580645161,1.38064516129032,1.39354838709677,1.3741935483871,1.39032258064516,1.38387096774194,1.38064516129032,1.38064516129032,1.3741935483871,1.38064516129032,1.36129032258065,1.34193548387097,1.35806451612903,1.34838709677419,1.36129032258065,1.37741935483871,1.38387096774194,1.40645161290323,1.41935483870968,1.42258064516129,1.40322580645161,1.52903225806452,1.81612903225806,2.15806451612903,2.06451612903226,1.31612903225806,0.783870967741935,0.925806451612903,1.19032258064516,1.32903225806452,1.38387096774194,1.39354838709677,1.41612903225806,1.41290322580645,1.41612903225806,1.43225806451613,1.43225806451613,1.42903225806452,1.4258064516129,1.43548387096774,1.44838709677419,1.45806451612903,1.44516129032258,1.42903225806452,1.43870967741935,1.43870967741935,1.4258064516129,1.44193548387097,1.43548387096774,1.41612903225806,1.40645161290323,1.40322580645161,1.40967741935484,1.41612903225806,1.40645161290323,1.41290322580645,1.41612903225806,1.40967741935484,1.4,1.39354838709677,1.40322580645161,1.39032258064516,1.40967741935484,1.40645161290323,1.39032258064516,1.37741935483871,1.39032258064516,1.38387096774194,1.36129032258065,1.37096774193548,1.34193548387097,1.3258064516129,1.32903225806452,1.33225806451613,1.36451612903226,1.38387096774194,1.3741935483871,1.35806451612903,1.34516129032258,1.37096774193548,1.38709677419355,1.39032258064516,1.39677419354839,1.40322580645161,1.40322580645161,1.38709677419355,1.41935483870968,1.39354838709677,1.38387096774194,1.38064516129032,1.39677419354839,1.39032258064516,1.41612903225806,1.40645161290323,1.40322580645161,1.38064516129032,1.35806451612903,1.35161290322581,1.33870967741935,1.35161290322581,1.34516129032258,1.36451612903226,1.38064516129032,1.38064516129032,1.39677419354839,1.39354838709677,1.41612903225806,1.40967741935484,1.40645161290323,1.40322580645161,1.39677419354839,1.40967741935484,1.4258064516129,1.4258064516129,1.43225806451613,1.42258064516129,1.40322580645161,1.3741935483871,1.36774193548387,1.37096774193548,1.34193548387097,1.34193548387097,1.33870967741935,1.36129032258065,1.36451612903226,1.38064516129032,1.38709677419355,1.40322580645161,1.4,1.41290322580645,1.41612903225806,1.40322580645161,1.4258064516129,1.43225806451613,1.43870967741935,1.44193548387097,1.43548387096774,1.4258064516129,1.40967741935484,1.40967741935484,1.39354838709677,1.39032258064516,1.38387096774194,1.39032258064516,1.38709677419355,1.37741935483871,1.36774193548387,1.37096774193548,1.34516129032258,1.33870967741935,1.40967741935484,1.6741935483871,2,2.14193548387097,1.43225806451613,0.829032258064516,0.916129032258065,1.16451612903226,1.32903225806452,1.38064516129032,1.41612903225806,1.43225806451613,1.45161290322581,1.44516129032258,1.45806451612903,1.44838709677419,1.44193548387097,1.45806451612903,1.43870967741935,1.43225806451613,1.43225806451613,1.44193548387097,1.44193548387097,1.44838709677419,1.45483870967742,1.45161290322581,1.44838709677419,1.45483870967742,1.44838709677419,1.44516129032258,1.44193548387097,1.46129032258065,1.47741935483871,1.4741935483871,1.48709677419355,1.48387096774194,1.48709677419355,1.48709677419355,1.47096774193548,1.47096774193548,1.44838709677419,1.44838709677419,1.45483870967742,1.43548387096774,1.42258064516129,1.40967741935484,1.39677419354839,1.38387096774194,1.3741935483871,1.37096774193548,1.35483870967742,1.34193548387097,1.32903225806452,1.30645161290323,1.29032258064516,1.30322580645161,1.30322580645161,1.32258064516129,1.31612903225806,1.32903225806452,1.33225806451613,1.33870967741935,1.34838709677419,1.35161290322581,1.34516129032258,1.36774193548387,1.36451612903226,1.36451612903226,1.36129032258065,1.3741935483871,1.37096774193548,1.38064516129032,1.37741935483871,1.37741935483871,1.37741935483871,1.33870967741935,1.34838709677419,1.35806451612903,1.3741935483871,1.4,1.40322580645161,1.41612903225806,1.4258064516129,1.42903225806452,1.42903225806452,1.41612903225806,1.40967741935484,1.40967741935484,1.39354838709677,1.41612903225806,1.41290322580645,1.41290322580645,1.42258064516129,1.41612903225806,1.42258064516129,1.41290322580645,1.38709677419355,1.35483870967742,1.36774193548387,1.36129032258065,1.38387096774194,1.38387096774194,1.37741935483871,1.39032258064516,1.38709677419355,1.38064516129032,1.38387096774194,1.37741935483871,1.35806451612903,1.35806451612903,1.35806451612903,1.38709677419355,1.38387096774194,1.38709677419355,1.40322580645161,1.3741935483871,1.38387096774194,1.39354838709677,1.4,1.39677419354839,1.39032258064516,1.39354838709677,1.39032258064516,1.39677419354839,1.41935483870968,1.4258064516129,1.43870967741935,1.43225806451613,1.43225806451613,1.42903225806452,1.40645161290323,1.40322580645161,1.41290322580645,1.39677419354839,1.39032258064516,1.3741935483871,1.56129032258065,1.83870967741935,2.18709677419355,1.97741935483871,1.13548387096774,0.82258064516129,1.01612903225806,1.24838709677419,1.34193548387097,1.3741935483871,1.40967741935484,1.42258064516129,1.41935483870968,1.42903225806452,1.4258064516129,1.43548387096774,1.42903225806452,1.44838709677419,1.43225806451613,1.42258064516129,1.43870967741935,1.41612903225806,1.39677419354839,1.40967741935484,1.42258064516129,1.4258064516129,1.43548387096774,1.42903225806452,1.42258064516129,1.42258064516129,1.43870967741935,1.43870967741935,1.44516129032258,1.44838709677419,1.43870967741935,1.43225806451613,1.39354838709677,1.36774193548387,1.34516129032258,1.35161290322581,1.36451612903226,1.38709677419355,1.39354838709677,1.38387096774194,1.37096774193548,1.37741935483871,1.39354838709677,1.40645161290323,1.41935483870968,1.40967741935484,1.40967741935484,1.39354838709677,1.38709677419355,1.39677419354839,1.40322580645161,1.39032258064516,1.38709677419355,1.3741935483871,1.36451612903226,1.34193548387097,1.30645161290323,1.29677419354839,1.31290322580645,1.32258064516129,1.33225806451613,1.33225806451613,1.33548387096774,1.34193548387097,1.35483870967742,1.36774193548387,1.38387096774194,1.38064516129032,1.39354838709677,1.38387096774194,1.37741935483871,1.37741935483871,1.38064516129032,1.3741935483871,1.3741935483871,1.38387096774194,1.41290322580645,1.4258064516129,1.43870967741935,1.44193548387097,1.40645161290323,1.38064516129032,1.38064516129032,1.36451612903226,1.35161290322581,1.37096774193548,1.39354838709677,1.40322580645161,1.39677419354839,1.39032258064516,1.4,1.41290322580645,1.41290322580645,1.40967741935484,1.40322580645161,1.41290322580645,1.40967741935484,1.40645161290323,1.40967741935484,1.39677419354839,1.41290322580645,1.43225806451613,1.45483870967742,1.45483870967742,1.45161290322581,1.41290322580645,1.39032258064516,1.59032258064516,1.87741935483871,2.17096774193548,1.68709677419355,0.929032258064516,0.832258064516129,1.09032258064516,1.28387096774194,1.35483870967742,1.40645161290323,1.42903225806452,1.45483870967742,1.45806451612903,1.46129032258065,1.46451612903226,1.45483870967742,1.48387096774194,1.50645161290323,1.50645161290323,1.50645161290323,1.48387096774194,1.43870967741935,1.41612903225806,1.4,1.38064516129032,1.38709677419355,1.3741935483871,1.36129032258065,1.37741935483871,1.38064516129032,1.37741935483871,1.37741935483871,1.38387096774194,1.36774193548387,1.3741935483871,1.38709677419355,1.4,1.40322580645161,1.4,1.43870967741935,1.45806451612903,1.43870967741935,1.42258064516129,1.41290322580645,1.39354838709677,1.37096774193548,1.34193548387097,1.33548387096774,1.33225806451613,1.30967741935484,1.31612903225806,1.31935483870968,1.31935483870968,1.33870967741935,1.34193548387097,1.34516129032258,1.34193548387097,1.36451612903226,1.38064516129032,1.37096774193548,1.40322580645161,1.43225806451613,1.44193548387097,1.43870967741935,1.43548387096774,1.41935483870968,1.38709677419355,1.37741935483871,1.34516129032258,1.35806451612903,1.34838709677419,1.35161290322581,1.36129032258065,1.3741935483871,1.37741935483871,1.38064516129032,1.35806451612903,1.54193548387097,1.83225806451613,2.19032258064516,1.90645161290323,1.1741935483871,0.825806451612903,1.00967741935484,1.26451612903226,1.37741935483871,1.41612903225806,1.44516129032258,1.44838709677419,1.44193548387097,1.41612903225806,1.39354838709677,1.37741935483871,1.40645161290323,1.40967741935484,1.40645161290323,1.41612903225806,1.43870967741935,1.45483870967742,1.46451612903226,1.46129032258065,1.44838709677419,1.43870967741935,1.42903225806452,1.43225806451613,1.41612903225806,1.4,1.39677419354839,1.38387096774194,1.37096774193548,1.35806451612903,1.34838709677419,1.32903225806452,1.3258064516129,1.31290322580645,1.3258064516129,1.34516129032258,1.35483870967742,1.34838709677419,1.37741935483871,1.37096774193548,1.39354838709677,1.38387096774194,1.39354838709677,1.39354838709677,1.4,1.41290322580645,1.43548387096774,1.42258064516129,1.44193548387097,1.44516129032258,1.41290322580645,1.40967741935484,1.40967741935484,1.39354838709677,1.3741935483871,1.35483870967742,1.35806451612903,1.36451612903226,1.36774193548387,1.36774193548387,1.3741935483871,1.39032258064516,1.61290322580645,1.91612903225806,2.19032258064516,1.66774193548387,0.951612903225806,0.825806451612903,1.09677419354839,1.30967741935484,1.39677419354839,1.43548387096774,1.45806451612903,1.43548387096774,1.44516129032258,1.43548387096774,1.41290322580645,1.39677419354839,1.41290322580645,1.40322580645161,1.41290322580645,1.41935483870968,1.41935483870968,1.44516129032258,1.45161290322581,1.45161290322581,1.45483870967742,1.43870967741935,1.42258064516129,1.40645161290323,1.39032258064516,1.39354838709677,1.39032258064516,1.40645161290323,1.40967741935484,1.41935483870968,1.39677419354839,1.38709677419355,1.36129032258065,1.35806451612903,1.34838709677419,1.34193548387097,1.33225806451613,1.33870967741935,1.35161290322581,1.35483870967742,1.35806451612903,1.36451612903226,1.36451612903226,1.36129032258065,1.38709677419355,1.36774193548387,1.37741935483871,1.38387096774194,1.39354838709677,1.40322580645161,1.41612903225806,1.4258064516129,1.41612903225806,1.41935483870968,1.40645161290323,1.38387096774194,1.37096774193548,1.35806451612903,1.35806451612903,1.34516129032258,1.3258064516129,1.34838709677419,1.36129032258065,1.38064516129032,1.38709677419355,1.39677419354839,1.41290322580645,1.41290322580645,1.41612903225806,1.40967741935484,1.42903225806452,1.41935483870968,1.43870967741935,1.43225806451613,1.43548387096774,1.44193548387097,1.42903225806452,1.41290322580645,1.37741935483871,1.36451612903226,1.35161290322581,1.34516129032258,1.34193548387097,1.33225806451613,1.32258064516129,1.32903225806452,1.35161290322581,1.36451612903226,1.38709677419355,1.41290322580645,1.40645161290323,1.40967741935484,1.41612903225806,1.41935483870968,1.43548387096774,1.42258064516129,1.4258064516129,1.43870967741935,1.43548387096774,1.4258064516129,1.42258064516129,1.4,1.38064516129032,1.37741935483871,1.36129032258065,1.34516129032258,1.32903225806452,1.52258064516129,1.81612903225806,2.15806451612903,1.89354838709677,1.09032258064516,0.861290322580645,1.05483870967742,1.2741935483871,1.36774193548387,1.4258064516129,1.42903225806452,1.43225806451613,1.46774193548387,1.46451612903226,1.47741935483871,1.46774193548387,1.45806451612903,1.44193548387097,1.42258064516129,1.42258064516129,1.4258064516129,1.41612903225806,1.41290322580645,1.40967741935484,1.40967741935484,1.39032258064516,1.39677419354839,1.41935483870968,1.43870967741935,1.44516129032258,1.45806451612903,1.46774193548387,1.47096774193548,1.47741935483871,1.47096774193548,1.47096774193548,1.46451612903226,1.43225806451613,1.42903225806452,1.4258064516129,1.40967741935484,1.4,1.39032258064516,1.40322580645161,1.37096774193548,1.36451612903226,1.36774193548387,1.38064516129032,1.37096774193548,1.36774193548387,1.3741935483871,1.36774193548387,1.38387096774194,1.36774193548387,1.37741935483871,1.38387096774194,1.35806451612903,1.38064516129032,1.39677419354839,1.39354838709677,1.37741935483871,1.35161290322581,1.33225806451613,1.3258064516129,1.31612903225806,1.31290322580645,1.31290322580645,1.30322580645161,1.3258064516129,1.33225806451613,1.36129032258065,1.36774193548387,1.36451612903226,1.38709677419355,1.39032258064516,1.39677419354839,1.39032258064516,1.39032258064516,1.40322580645161,1.40645161290323,1.40645161290323,1.42903225806452,1.42258064516129,1.40967741935484,1.38709677419355,1.35483870967742,1.34516129032258,1.32258064516129,1.34838709677419,1.32258064516129,1.34193548387097,1.36129032258065,1.37741935483871,1.41290322580645,1.40645161290323,1.43225806451613,1.42903225806452,1.43548387096774,1.44193548387097,1.45483870967742,1.45806451612903,1.46129032258065,1.46451612903226,1.43548387096774,1.57741935483871,1.84838709677419,2.18064516129032,1.99032258064516,1.16451612903226,0.790322580645161,0.974193548387097,1.19677419354839,1.32258064516129,1.35806451612903,1.3741935483871,1.38387096774194,1.39032258064516,1.4,1.40967741935484,1.43870967741935,1.45483870967742,1.45806451612903,1.47741935483871,1.49354838709677,1.48387096774194,1.45806451612903,1.45161290322581,1.45161290322581,1.43870967741935,1.41290322580645,1.41935483870968,1.41290322580645,1.40322580645161,1.39032258064516,1.39354838709677,1.38387096774194,1.38387096774194,1.38387096774194,1.37741935483871,1.38064516129032,1.38064516129032,1.39354838709677,1.38709677419355,1.37741935483871,1.3741935483871,1.37096774193548,1.37741935483871,1.4,1.40322580645161,1.39677419354839,1.39354838709677,1.38387096774194,1.38064516129032,1.36451612903226,1.3741935483871,1.38064516129032,1.36774193548387,1.36129032258065,1.35161290322581,1.34516129032258,1.35483870967742,1.36129032258065,1.37096774193548,1.36129032258065,1.35161290322581,1.34193548387097,1.32903225806452,1.33870967741935,1.32903225806452,1.32903225806452,1.32903225806452,1.31612903225806,1.33870967741935,1.35806451612903,1.38064516129032,1.40322580645161,1.41612903225806,1.4,1.4258064516129,1.42258064516129,1.41612903225806,1.4258064516129,1.41612903225806,1.41612903225806,1.40645161290323,1.39677419354839,1.39677419354839,1.38387096774194,1.4,1.36774193548387,1.38709677419355,1.36774193548387,1.38387096774194,1.38064516129032,1.38064516129032,1.40322580645161,1.3741935483871,1.38064516129032,1.3741935483871,1.38709677419355,1.41290322580645,1.41612903225806,1.43548387096774,1.4258064516129,1.40967741935484,1.55161290322581,1.82903225806452,2.20322580645161,2.07096774193548,1.20967741935484,0.770967741935484,0.958064516129032,1.22903225806452,1.35161290322581,1.38387096774194,1.40967741935484,1.44838709677419,1.45161290322581,1.45806451612903,1.45161290322581,1.46129032258065,1.46129032258065,1.44516129032258,1.43225806451613,1.40645161290323,1.40322580645161,1.4,1.39677419354839,1.41935483870968,1.41935483870968,1.42258064516129,1.43225806451613,1.42258064516129,1.44838709677419,1.43870967741935,1.43548387096774,1.43870967741935,1.43870967741935,1.43225806451613,1.43870967741935,1.43870967741935,1.41290322580645,1.40967741935484,1.41290322580645,1.39032258064516,1.36774193548387,1.37741935483871,1.34516129032258,1.34838709677419,1.34193548387097,1.33870967741935,1.35483870967742,1.34838709677419,1.36129032258065,1.3741935483871,1.39354838709677,1.4,1.41935483870968,1.40967741935484,1.42903225806452,1.43548387096774,1.43225806451613,1.43225806451613,1.42258064516129,1.40967741935484,1.38387096774194,1.36451612903226,1.34838709677419,1.33225806451613,1.49354838709677,1.78064516129032,2.09354838709677,1.79354838709677,1.01935483870968,0.67741935483871,0.893548387096774,1.17096774193548,1.31935483870968,1.34516129032258,1.38387096774194,1.41290322580645,1.43225806451613,1.44838709677419,1.45483870967742,1.46451612903226,1.47096774193548,1.4741935483871,1.44838709677419,1.47096774193548,1.46451612903226,1.45806451612903,1.44838709677419,1.41612903225806,1.41290322580645,1.42258064516129,1.40322580645161,1.40967741935484,1.39677419354839,1.38709677419355,1.37741935483871,1.39032258064516,1.36129032258065,1.36451612903226,1.36129032258065,1.35161290322581,1.32258064516129,1.33870967741935,1.36129032258065,1.36451612903226,1.36129032258065,1.37096774193548,1.38064516129032,1.40322580645161,1.40645161290323,1.40967741935484,1.40967741935484,1.43548387096774,1.42258064516129,1.40645161290323,1.41290322580645,1.41612903225806,1.40645161290323,1.41290322580645,1.40967741935484,1.39032258064516,1.38064516129032,1.35483870967742,1.34516129032258,1.34838709677419,1.35161290322581,1.36129032258065,1.36774193548387,1.39354838709677,1.39354838709677,1.40967741935484,1.39677419354839,1.40645161290323,1.4258064516129,1.41612903225806,1.41612903225806,1.40645161290323,1.40967741935484,1.40967741935484,1.4258064516129,1.39677419354839,1.38709677419355,1.36774193548387,1.35161290322581,1.36129032258065,1.35806451612903,1.35161290322581,1.35806451612903,1.36451612903226,1.53870967741935,1.81290322580645,2.1258064516129,1.80322580645161,1.07741935483871,0.803225806451613,1.04516129032258,1.28387096774194,1.38387096774194,1.41612903225806,1.43870967741935,1.43870967741935,1.45483870967742,1.43870967741935,1.44838709677419,1.44838709677419,1.44193548387097,1.45161290322581,1.44516129032258,1.43548387096774,1.41612903225806,1.4258064516129,1.40645161290323,1.41935483870968,1.41935483870968,1.41935483870968,1.41935483870968,1.41290322580645,1.40322580645161,1.39032258064516,1.34193548387097,1.35483870967742,1.37096774193548,1.3741935483871,1.39032258064516,1.36774193548387,1.37741935483871,1.37096774193548
1.42258064516129,1.41290322580645,1.40322580645161,1.39677419354839,1.39032258064516,1.38064516129032,1.34516129032258,1.36451612903226,1.37096774193548,1.39354838709677,1.40967741935484,1.41935483870968,1.43225806451613,1.46451612903226,1.48709677419355,1.49677419354839,1.50322580645161,1.52258064516129,1.52903225806452,1.51612903225806,1.5,1.50322580645161,1.48064516129032,1.45806451612903,1.44516129032258,1.4258064516129,1.41290322580645,1.41612903225806,1.4,1.4,1.37096774193548,1.37741935483871,1.36451612903226,1.38064516129032,1.38387096774194,1.36129032258065,1.3741935483871,1.3741935483871,1.37096774193548,1.34516129032258,1.34193548387097,1.32903225806452,1.31935483870968,1.31612903225806,1.31290322580645,1.30322580645161,1.30322580645161,1.33225806451613,1.3258064516129,1.33225806451613,1.33225806451613,1.34516129032258,1.36774193548387,1.36774193548387,1.37096774193548,1.37741935483871,1.40322580645161,1.39677419354839,1.38387096774194,1.39354838709677,1.37741935483871,1.36774193548387,1.35483870967742,1.33225806451613,1.33548387096774,1.33548387096774,1.34516129032258,1.34838709677419,1.36129032258065,1.37096774193548,1.36774193548387,1.38387096774194,1.39677419354839,1.42258064516129,1.44193548387097,1.4258064516129,1.44838709677419,1.44516129032258,1.43870967741935,1.44838709677419,1.4258064516129,1.4258064516129,1.40645161290323,1.4,1.4,1.38387096774194,1.38064516129032,1.35161290322581,1.4,1.61290322580645,1.88064516129032,2.15161290322581,1.56774193548387,0.870967741935484,0.832258064516129,1.1,1.31612903225806,1.39032258064516,1.4258064516129,1.42903225806452,1.44838709677419,1.46129032258065,1.47741935483871,1.46451612903226,1.43870967741935,1.44193548387097,1.45806451612903,1.44838709677419,1.43225806451613,1.43870967741935,1.44193548387097,1.43548387096774,1.42258064516129,1.4258064516129,1.43870967741935,1.44193548387097,1.44193548387097,1.44193548387097,1.41290322580645,1.40645161290323,1.41612903225806,1.41290322580645,1.40645161290323,1.40645161290323,1.41612903225806,1.40322580645161,1.40645161290323,1.38709677419355,1.39677419354839,1.40322580645161,1.41290322580645,1.40322580645161,1.41290322580645,1.40322580645161,1.39354838709677,1.38387096774194,1.38709677419355,1.37741935483871,1.3741935483871,1.38064516129032,1.35483870967742,1.35161290322581,1.3258064516129,1.30645161290323,1.30322580645161,1.31612903225806,1.3258064516129,1.36451612903226,1.35806451612903,1.36129032258065,1.38064516129032,1.36774193548387,1.4,1.40967741935484,1.42258064516129,1.39677419354839,1.42903225806452,1.42258064516129,1.43225806451613,1.44193548387097,1.42903225806452,1.41290322580645,1.41290322580645,1.38709677419355,1.38064516129032,1.37096774193548,1.35161290322581,1.34838709677419,1.33548387096774,1.33548387096774,1.34838709677419,1.36774193548387,1.37096774193548,1.39354838709677,1.4,1.4,1.40645161290323,1.40645161290323,1.4258064516129,1.41612903225806,1.4258064516129,1.40322580645161,1.4,1.39677419354839,1.38709677419355,1.38064516129032,1.37741935483871,1.3741935483871,1.38064516129032,1.38387096774194,1.36774193548387,1.36451612903226,1.36129032258065,1.35161290322581,1.36451612903226,1.39032258064516,1.39677419354839,1.43225806451613,1.4258064516129,1.43870967741935,1.43225806451613,1.64516129032258,1.91290322580645,2.22258064516129,1.77096774193548,0.980645161290323,0.835483870967742,1.06451612903226,1.28709677419355,1.36129032258065,1.4,1.42258064516129,1.43548387096774,1.42903225806452,1.40322580645161,1.42903225806452,1.43225806451613,1.41935483870968,1.4258064516129,1.40645161290323,1.41935483870968,1.43225806451613,1.45161290322581,1.44838709677419,1.43548387096774,1.43870967741935,1.45161290322581,1.44193548387097,1.44516129032258,1.44516129032258,1.43548387096774,1.44516129032258,1.43225806451613,1.42258064516129,1.42258064516129,1.43225806451613,1.43548387096774,1.44516129032258,1.44193548387097,1.40645161290323,1.38387096774194,1.36774193548387,1.38387096774194,1.3741935483871,1.38064516129032,1.4,1.40645161290323,1.4,1.40645161290323,1.4,1.39677419354839,1.39354838709677,1.38709677419355,1.37096774193548,1.38387096774194,1.38064516129032,1.38387096774194,1.38709677419355,1.39354838709677,1.3741935483871,1.36129032258065,1.34516129032258,1.32903225806452,1.30967741935484,1.31935483870968,1.32258064516129,1.3258064516129,1.35161290322581,1.34838709677419,1.37096774193548,1.38387096774194,1.37741935483871,1.38709677419355,1.41935483870968,1.41290322580645,1.4258064516129,1.43225806451613,1.41935483870968,1.41935483870968,1.4258064516129,1.41290322580645,1.40645161290323,1.41290322580645,1.38387096774194,1.38064516129032,1.35806451612903,1.36774193548387,1.35806451612903,1.33870967741935,1.34516129032258,1.42258064516129,1.69677419354839,2.00322580645161,2.13225806451613,1.46129032258065,0.867741935483871,0.932258064516129,1.20322580645161,1.36451612903226,1.41290322580645,1.43548387096774,1.43548387096774,1.41935483870968,1.40322580645161,1.40322580645161,1.39677419354839,1.40322580645161,1.40967741935484,1.40645161290323,1.4,1.40967741935484,1.41935483870968,1.4,1.40645161290323,1.4258064516129,1.39677419354839,1.4,1.42258064516129,1.42258064516129,1.45161290322581,1.44838709677419,1.43548387096774,1.40967741935484,1.39354838709677,1.38064516129032,1.38387096774194,1.38387096774194,1.3741935483871,1.36774193548387,1.38387096774194,1.39032258064516,1.39032258064516,1.38064516129032,1.39677419354839,1.3741935483871,1.37096774193548,1.38064516129032,1.38709677419355,1.40322580645161,1.4,1.39354838709677,1.40967741935484,1.40967741935484,1.3741935483871,1.3741935483871,1.36129032258065,1.36129032258065,1.3741935483871,1.38387096774194,1.38387096774194,1.3741935483871,1.39032258064516,1.39354838709677,1.39677419354839,1.39032258064516,1.39677419354839,1.39354838709677,1.41935483870968,1.41935483870968,1.4258064516129,1.41290322580645,1.41612903225806,1.39677419354839,1.39354838709677,1.38064516129032,1.38387096774194,1.35806451612903,1.36129032258065,1.36129032258065,1.36774193548387,1.36774193548387,1.35161290322581,1.33225806451613,1.34516129032258,1.36129032258065,1.39354838709677,1.41935483870968,1.4258064516129,1.42903225806452,1.42903225806452,1.4258064516129,1.41290322580645,1.41612903225806,1.39677419354839,1.40645161290323,1.39677419354839,1.39677419354839,1.39354838709677,1.38387096774194,1.37741935483871,1.37096774193548,1.38064516129032,1.37741935483871,1.3741935483871,1.38709677419355,1.36774193548387,1.35806451612903,1.38709677419355,1.39354838709677,1.41290322580645,1.4258064516129,1.43225806451613,1.43225806451613,1.43225806451613,1.44516129032258,1.43225806451613,1.42903225806452,1.41935483870968,1.41290322580645,1.40645161290323,1.40645161290323,1.40967741935484,1.4,1.38709677419355,1.3741935483871,1.36774193548387,1.38064516129032,1.36774193548387,1.34838709677419,1.35806451612903,1.3741935483871,1.39354838709677,1.38709677419355,1.40322580645161,1.4,1.40967741935484,1.39677419354839,1.39032258064516,1.39677419354839,1.41612903225806,1.40322580645161,1.4,1.40967741935484,1.44516129032258,1.70967741935484,1.99677419354839,2.23548387096774,1.60645161290323,0.887096774193548,0.916129032258065,1.14193548387097,1.31612903225806,1.36129032258065,1.38709677419355,1.41290322580645,1.43225806451613,1.43870967741935,1.42258064516129,1.43870967741935,1.4258064516129,1.44193548387097,1.46129032258065,1.46129032258065,1.45161290322581,1.45483870967742,1.43548387096774,1.44516129032258,1.4258064516129,1.40645161290323,1.43225806451613,1.42258064516129,1.43225806451613,1.40322580645161,1.40967741935484,1.41612903225806,1.40645161290323,1.4258064516129,1.40967741935484,1.41935483870968,1.41935483870968,1.41290322580645,1.42258064516129,1.41290322580645,1.41290322580645,1.42258064516129,1.40967741935484,1.41290322580645,1.41935483870968,1.41935483870968,1.40645161290323,1.41290322580645,1.40322580645161,1.38709677419355,1.37096774193548,1.36129032258065,1.33548387096774,1.33548387096774,1.33548387096774,1.31935483870968,1.31612903225806,1.31290322580645,1.32903225806452,1.33870967741935,1.34516129032258,1.35161290322581,1.36129032258065,1.37096774193548,1.36129032258065,1.38387096774194,1.38387096774194,1.39354838709677,1.4,1.40967741935484,1.39677419354839,1.39354838709677,1.37096774193548,1.37741935483871,1.37741935483871,1.37096774193548,1.36451612903226,1.34516129032258,1.35483870967742,1.36129032258065,1.35161290322581,1.36129032258065,1.34838709677419,1.34838709677419,1.35483870967742,1.36774193548387,1.36774193548387,1.40645161290323,1.41935483870968,1.43225806451613,1.42903225806452,1.44838709677419,1.43870967741935,1.41935483870968,1.40322580645161,1.47741935483871,1.75483870967742,2.06129032258065,2.17741935483871,1.41935483870968,0.832258064516129,0.919354838709677,1.1741935483871,1.3258064516129,1.3741935483871,1.39677419354839,1.38387096774194,1.39032258064516,1.4258064516129,1.42903225806452,1.45483870967742,1.4741935483871,1.47096774193548,1.46774193548387,1.47096774193548,1.47741935483871,1.47096774193548,1.46451612903226,1.43225806451613,1.40322580645161,1.4,1.39677419354839,1.39032258064516,1.39032258064516,1.35806451612903,1.34516129032258,1.33870967741935,1.31612903225806,1.29677419354839,1.32258064516129,1.33870967741935,1.35483870967742,1.35161290322581,1.36451612903226,1.3741935483871,1.38064516129032,1.4,1.37096774193548,1.3741935483871,1.36774193548387,1.39032258064516,1.38387096774194,1.37741935483871,1.39354838709677,1.39677419354839,1.38064516129032,1.37741935483871,1.35161290322581,1.36129032258065,1.35161290322581,1.37741935483871,1.38064516129032,1.38709677419355,1.38709677419355,1.38709677419355,1.38709677419355,1.39677419354839,1.39032258064516,1.38387096774194,1.36129032258065,1.36774193548387,1.36129032258065,1.34838709677419,1.4,1.66129032258065,1.98387096774194,2.22258064516129,1.56774193548387,0.870967741935484,0.861290322580645,1.08709677419355,1.30645161290323,1.37741935483871,1.42258064516129,1.4258064516129,1.43225806451613,1.44516129032258,1.45161290322581,1.45161290322581,1.45483870967742,1.44838709677419,1.4258064516129,1.42903225806452,1.43225806451613,1.44516129032258,1.43870967741935,1.45806451612903,1.44838709677419,1.45483870967742,1.45806451612903,1.44516129032258,1.43548387096774,1.38387096774194,1.33870967741935,1.31935483870968,1.3258064516129,1.33870967741935,1.33870967741935,1.33225806451613,1.34516129032258,1.36129032258065,1.35806451612903,1.36129032258065,1.36451612903226,1.38387096774194,1.36774193548387,1.3741935483871,1.39032258064516,1.40322580645161,1.40967741935484,1.39354838709677,1.39354838709677,1.38064516129032,1.3741935483871,1.34838709677419,1.35483870967742,1.36774193548387,1.37096774193548,1.38064516129032,1.38709677419355,1.38387096774194,1.4,1.39032258064516,1.3741935483871,1.38064516129032,1.46129032258065,1.73225806451613,2.06451612903226,2.16129032258065,1.44193548387097,0.835483870967742,0.912903225806452,1.16129032258065,1.34193548387097,1.38064516129032,1.40967741935484,1.38064516129032,1.39354838709677,1.41935483870968,1.41935483870968,1.43548387096774,1.45483870967742,1.46451612903226,1.4741935483871,1.46774193548387,1.48387096774194,1.46774193548387,1.46451612903226,1.48387096774194,1.46774193548387,1.46129032258065,1.4741935483871,1.45806451612903,1.43870967741935,1.41612903225806,1.38387096774194,1.35483870967742,1.31612903225806,1.32903225806452,1.30322580645161,1.33225806451613,1.32903225806452,1.33225806451613,1.33870967741935,1.35806451612903,1.35483870967742,1.35806451612903,1.37096774193548,1.39032258064516,1.39032258064516,1.39354838709677,1.39354838709677,1.40322580645161,1.40967741935484,1.40645161290323,1.39354838709677,1.39354838709677,1.36451612903226,1.36774193548387,1.36129032258065,1.34838709677419,1.35806451612903,1.34838709677419,1.37096774193548,1.37741935483871,1.39032258064516,1.39677419354839,1.38387096774194,1.55483870967742,1.85161290322581,2.18387096774194,1.88709677419355,1.12903225806452,0.790322580645161,1.00967741935484,1.27096774193548,1.37096774193548,1.40322580645161,1.40645161290323,1.4,1.4,1.39354838709677,1.38387096774194,1.38064516129032,1.38064516129032,1.38709677419355,1.4,1.41935483870968,1.45483870967742,1.46129032258065,1.46774193548387,1.45806451612903,1.46774193548387,1.45161290322581,1.43870967741935,1.4258064516129,1.41612903225806,1.42258064516129,1.41612903225806,1.40645161290323,1.40967741935484,1.4,1.3741935483871,1.3741935483871,1.3741935483871,1.37096774193548,1.34516129032258,1.32903225806452,1.32903225806452,1.35161290322581,1.3741935483871,1.39354838709677,1.39677419354839,1.4,1.3741935483871,1.40645161290323,1.39677419354839,1.39032258064516,1.39354838709677,1.4,1.40967741935484,1.40645161290323,1.4,1.41612903225806,1.41612903225806,1.42258064516129,1.4,1.39032258064516,1.35483870967742,1.36129032258065,1.55806451612903,1.84193548387097,2.04838709677419,1.45806451612903,0.829032258064516,0.812903225806452,1.08387096774194,1.3,1.3741935483871,1.39677419354839,1.4258064516129,1.4258064516129,1.43548387096774,1.45161290322581,1.44193548387097,1.45161290322581,1.46451612903226,1.48064516129032,1.49032258064516,1.47096774193548,1.46451612903226,1.43548387096774,1.41290322580645,1.39677419354839,1.38064516129032,1.38709677419355,1.39032258064516,1.40967741935484,1.39677419354839,1.38709677419355,1.38064516129032,1.38387096774194,1.38709677419355,1.39354838709677,1.4,1.40322580645161,1.41290322580645,1.4258064516129,1.42903225806452,1.43225806451613,1.42258064516129,1.40645161290323,1.39032258064516,1.39354838709677,1.35161290322581,1.33225806451613,1.3258064516129,1.33548387096774,1.33548387096774,1.31290322580645,1.3258064516129,1.35483870967742,1.35483870967742,1.36451612903226,1.36774193548387,1.37741935483871,1.39032258064516,1.37741935483871,1.39677419354839,1.4,1.40967741935484,1.41935483870968,1.41290322580645,1.37741935483871,1.36451612903226,1.36451612903226,1.34516129032258,1.36129032258065,1.35161290322581,1.34516129032258,1.34193548387097,1.35161290322581,1.35806451612903,1.3741935483871,1.39677419354839,1.40967741935484,1.41290322580645,1.40645161290323,1.40645161290323,1.40967741935484,1.40645161290323,1.43548387096774,1.43548387096774,1.4258064516129,1.40645161290323,1.41935483870968,1.4,1.37741935483871,1.46129032258065,1.68387096774194,1.98064516129032,2.05483870967742,1.37741935483871,0.841935483870968,0.938709677419355,1.19354838709677,1.33225806451613,1.39354838709677,1.42903225806452,1.43870967741935,1.44838709677419,1.46129032258065,1.46774193548387,1.48387096774194,1.46774193548387,1.46129032258065,1.46129032258065,1.45483870967742,1.43548387096774,1.42903225806452,1.4258064516129,1.41935483870968,1.42258064516129,1.41290322580645,1.41290322580645,1.41935483870968,1.41935483870968,1.42903225806452,1.43870967741935,1.44838709677419,1.44193548387097,1.44838709677419,1.46451612903226,1.46451612903226,1.46451612903226,1.44838709677419,1.43225806451613,1.43870967741935,1.40645161290323,1.40967741935484,1.4,1.4,1.37741935483871,1.3741935483871,1.37741935483871,1.36451612903226,1.3741935483871,1.37096774193548,1.34516129032258,1.32903225806452,1.32903225806452,1.33225806451613,1.33870967741935,1.35483870967742,1.36774193548387,1.36451612903226,1.35483870967742,1.36129032258065,1.37096774193548,1.35806451612903,1.36774193548387,1.37096774193548,1.36129032258065,1.36451612903226,1.3741935483871,1.38064516129032,1.37741935483871,1.38064516129032,1.38064516129032,1.36451612903226,1.37096774193548,1.42258064516129,1.66451612903226,1.93548387096774,2.15806451612903,1.55806451612903,0.909677419354839,0.861290322580645,1.10967741935484,1.30645161290323,1.38387096774194,1.4,1.41612903225806,1.43225806451613,1.44838709677419,1.43870967741935,1.45483870967742,1.44838709677419,1.46129032258065,1.44516129032258,1.42903225806452,1.44193548387097,1.43225806451613,1.42258064516129,1.4258064516129,1.44193548387097,1.40322580645161,1.38387096774194,1.36129032258065,1.34516129032258,1.35483870967742,1.35161290322581,1.35161290322581,1.36451612903226,1.36451612903226,1.36451612903226,1.38709677419355,1.40967741935484,1.42258064516129,1.41290322580645,1.41612903225806,1.41935483870968,1.40322580645161,1.40645161290323,1.40967741935484,1.41935483870968,1.40322580645161,1.39677419354839,1.36774193548387,1.35806451612903,1.34193548387097,1.3258064516129,1.30967741935484,1.31612903225806,1.32903225806452,1.34193548387097,1.34193548387097,1.35161290322581,1.38387096774194,1.38709677419355,1.39032258064516,1.38387096774194,1.38709677419355,1.4258064516129,1.66129032258065,2.00645161290323,2.21290322580645,1.59354838709677,0.880645161290323,0.838709677419355,1.08064516129032,1.26451612903226,1.31290322580645,1.33548387096774,1.35806451612903,1.35806451612903,1.38709677419355,1.40967741935484,1.42903225806452,1.43548387096774,1.45161290322581,1.44838709677419,1.46451612903226,1.48064516129032,1.48387096774194,1.49032258064516,1.49354838709677,1.49032258064516,1.48064516129032,1.44838709677419,1.42903225806452,1.40322580645161,1.39354838709677,1.38709677419355,1.38709677419355,1.38387096774194,1.36451612903226,1.38387096774194,1.37096774193548,1.3741935483871,1.37096774193548,1.3741935483871,1.35806451612903,1.3741935483871,1.35806451612903,1.3741935483871,1.39677419354839,1.40645161290323,1.4258064516129,1.38709677419355,1.38064516129032,1.36451612903226,1.37741935483871,1.37741935483871,1.35806451612903,1.34838709677419,1.35161290322581,1.34838709677419,1.34838709677419,1.36774193548387,1.36451612903226,1.36774193548387,1.37741935483871,1.37741935483871,1.40645161290323,1.38709677419355,1.40967741935484,1.4,1.39677419354839,1.37741935483871,1.38064516129032,1.38064516129032,1.38709677419355,1.39677419354839,1.38064516129032,1.38387096774194,1.39032258064516,1.40322580645161,1.41612903225806,1.41612903225806,1.41612903225806,1.42258064516129,1.43225806451613,1.42258064516129,1.42903225806452,1.43225806451613,1.41290322580645,1.41290322580645,1.39032258064516,1.38064516129032,1.36451612903226,1.36451612903226,1.35483870967742,1.36129032258065,1.36129032258065,1.36451612903226,1.36129032258065,1.52903225806452,1.8,2.16129032258065,1.92903225806452,1.1741935483871,0.8,1.04193548387097,1.27096774193548,1.39032258064516,1.4258064516129,1.4258064516129,1.4258064516129,1.43225806451613,1.42258064516129,1.41612903225806,1.41935483870968,1.39354838709677,1.38387096774194,1.38064516129032,1.39354838709677,1.41612903225806,1.41290322580645,1.41612903225806,1.44193548387097,1.45483870967742,1.46129032258065,1.50322580645161,1.50645161290323,1.5258064516129,1.5258064516129,1.51612903225806,1.50645161290323,1.50322580645161,1.48709677419355,1.47096774193548,1.44516129032258,1.42258064516129,1.4,1.38709677419355,1.36774193548387,1.34838709677419,1.35806451612903,1.34516129032258,1.34838709677419,1.36129032258065,1.38064516129032,1.37741935483871,1.38709677419355,1.40645161290323,1.40322580645161,1.38387096774194,1.39032258064516,1.38064516129032,1.36129032258065,1.35806451612903,1.34838709677419,1.3258064516129,1.32258064516129,1.33225806451613,1.3258064516129,1.33548387096774,1.32258064516129,1.32258064516129,1.33870967741935,1.34838709677419,1.36129032258065,1.35161290322581,1.34838709677419,1.39032258064516,1.41612903225806,1.41935483870968,1.42903225806452,1.41935483870968,1.4258064516129,1.41612903225806,1.38387096774194,1.38387096774194,1.38387096774194,1.39032258064516,1.38064516129032,1.39354838709677,1.37741935483871,1.37741935483871,1.38387096774194,1.37741935483871,1.39677419354839,1.39032258064516,1.39032258064516,1.40322580645161,1.4,1.40322580645161,1.40645161290323,1.41290322580645,1.40322580645161,1.40322580645161,1.37741935483871,1.36451612903226,1.36774193548387,1.40322580645161,1.38709677419355,1.38387096774194,1.37741935483871,1.36129032258065,1.39032258064516,1.58064516129032,1.86451612903226,2.16451612903226,1.73870967741935,1.00967741935484,0.829032258064516,1.0741935483871,1.27741935483871,1.36774193548387,1.37741935483871,1.40645161290323,1.4,1.4,1.37741935483871,1.36129032258065,1.36129032258065,1.36451612903226,1.37741935483871,1.39354838709677,1.43225806451613,1.43870967741935,1.44516129032258,1.48064516129032,1.47741935483871,1.48709677419355,1.48387096774194,1.48709677419355,1.49354838709677,1.47741935483871,1.45806451612903,1.43225806451613,1.41290322580645,1.40967741935484,1.39032258064516,1.39032258064516,1.37741935483871,1.36774193548387,1.33225806451613,1.34516129032258,1.33870967741935,1.34838709677419,1.37096774193548,1.38709677419355,1.4,1.40322580645161,1.38709677419355
