1.35483870967742,1.35483870967742,1.35483870967742,1.35806451612903,1.36129032258065,1.36129032258065,1.36129032258065,1.36451612903226,1.36451612903226,1.36774193548387,1.37096774193548,1.37096774193548,1.37096774193548,1.37096774193548,1.37096774193548,1.36774193548387,1.36774193548387,1.37096774193548,1.37096774193548,1.37096774193548,1.37096774193548,1.37096774193548,1.3741935483871,1.3741935483871,1.37741935483871,1.39032258064516,1.39354838709677,1.39354838709677,1.39032258064516,1.4,1.41935483870968,1.44516129032258,1.44838709677419,1.43548387096774,1.41935483870968,1.39354838709677,1.36774193548387,1.35806451612903,1.36129032258065,1.36129032258065,1.35483870967742,1.35483870967742,1.35483870967742,1.35161290322581,1.35161290322581,1.33870967741935,1.32258064516129,1.43225806451613,1.71612903225806,1.94838709677419,1.86451612903226,1.46451612903226,1.15806451612903,1.23870967741935,1.39354838709677,1.38387096774194,1.35483870967742,1.36129032258065,1.37096774193548,1.37741935483871,1.37741935483871,1.38064516129032,1.38709677419355,1.39032258064516,1.4,1.40322580645161,1.40645161290323,1.41935483870968,1.42903225806452,1.43870967741935,1.45161290322581,1.4741935483871,1.49354838709677,1.51612903225806,1.53870967741935,1.55483870967742,1.57096774193548,1.57741935483871,1.57096774193548,1.54838709677419,1.50322580645161,1.45483870967742,1.41290322580645,1.38387096774194,1.36774193548387,1.35483870967742,1.34516129032258,1.34193548387097,1.33870967741935,1.34193548387097,1.33870967741935,1.34193548387097,1.34516129032258,1.34193548387097,1.34516129032258,1.34516129032258,1.34838709677419,1.34838709677419,1.35161290322581,1.35161290322581,1.35161290322581,1.35161290322581,1.35483870967742,1.35483870967742,1.35806451612903,1.35483870967742,1.35806451612903,1.36129032258065,1.36129032258065,1.36129032258065,1.36451612903226,1.36129032258065,1.36129032258065,1.35806451612903,1.36451612903226,1.36451612903226,1.36129032258065,1.36129032258065,1.36129032258065,1.36451612903226,1.36451612903226,1.36774193548387,1.37741935483871,1.38387096774194,1.38387096774194,1.38387096774194,1.38709677419355,1.39677419354839,1.41612903225806,1.44193548387097,1.44193548387097,1.42903225806452,1.41290322580645,1.38387096774194,1.35806451612903,1.35161290322581,1.35806451612903,1.35483870967742,1.34838709677419,1.34838709677419,1.34838709677419,1.35161290322581,1.34838709677419,1.33548387096774,1.31290322580645,1.42258064516129,1.71935483870968,1.9741935483871,1.89354838709677,1.47096774193548,1.14516129032258,1.22903225806452,1.39032258064516,1.38709677419355,1.35806451612903,1.35806451612903,1.36774193548387,1.37096774193548,1.3741935483871,1.38064516129032,1.38709677419355,1.39032258064516,1.39354838709677,1.40322580645161,1.41290322580645,1.41935483870968,1.4258064516129,1.43870967741935,1.45483870967742,1.47096774193548,1.49354838709677,1.51290322580645,1.53548387096774,1.55806451612903,1.57741935483871,1.58064516129032,1.57096774193548,1.54838709677419,1.50322580645161,1.45806451612903,1.41612903225806,1.38709677419355,1.36774193548387,1.35483870967742,1.34516129032258,1.34193548387097,1.34193548387097,1.34193548387097,1.34193548387097,1.34516129032258,1.33870967741935,1.34193548387097,1.34516129032258,1.34193548387097,1.34516129032258,1.34516129032258,1.34193548387097,1.34516129032258,1.34516129032258,1.35161290322581,1.35161290322581,1.35483870967742,1.35806451612903,1.35806451612903,1.35806451612903,1.35806451612903,1.36129032258065,1.36129032258065,1.36129032258065,1.36129032258065,1.36129032258065,1.36451612903226,1.36451612903226,1.36129032258065,1.36129032258065,1.36129032258065,1.36451612903226,1.36451612903226,1.36451612903226,1.36774193548387,1.37096774193548,1.38064516129032,1.38064516129032,1.38064516129032,1.38387096774194,1.38709677419355,1.40322580645161,1.42903225806452,1.44193548387097,1.43225806451613,1.41935483870968,1.39677419354839,1.36774193548387,1.35483870967742,1.35806451612903,1.35806451612903,1.35806451612903,1.35806451612903,1.35161290322581,1.35161290322581,1.35161290322581,1.35161290322581,1.32903225806452,1.36774193548387,1.58709677419355,1.85483870967742,1.91290322580645,1.63548387096774,1.23548387096774,1.16129032258065,1.33870967741935,1.40645161290323,1.37096774193548,1.36129032258065,1.3741935483871,1.3741935483871,1.37741935483871,1.38709677419355,1.39032258064516,1.39354838709677,1.39677419354839,1.4,1.40645161290323,1.41612903225806,1.4258064516129,1.43548387096774,1.45161290322581,1.47096774193548,1.48709677419355,1.50645161290323,1.5258064516129,1.54516129032258,1.56129032258065,1.56774193548387,1.56774193548387,1.55161290322581,1.51612903225806,1.46774193548387,1.42258064516129,1.39677419354839,1.38064516129032,1.36129032258065,1.34838709677419,1.34516129032258,1.34516129032258,1.34516129032258,1.34838709677419,1.34838709677419,1.34516129032258,1.34516129032258,1.34516129032258,1.34838709677419,1.34838709677419,1.34838709677419,1.35161290322581,1.35161290322581,1.35483870967742,1.35806451612903,1.35806451612903,1.35806451612903,1.36129032258065,1.36451612903226,1.36451612903226,1.36451612903226,1.36451612903226,1.36774193548387,1.36774193548387,1.37096774193548,1.36774193548387,1.36774193548387,1.36774193548387,1.36451612903226,1.36774193548387,1.36774193548387,1.37096774193548,1.36774193548387,1.37096774193548,1.37741935483871,1.38064516129032,1.38387096774194,1.38709677419355,1.39032258064516,1.39354838709677,1.40967741935484,1.43548387096774,1.43870967741935,1.43225806451613,1.41935483870968,1.39032258064516,1.36451612903226,1.35483870967742,1.35806451612903,1.35806451612903,1.35161290322581,1.35161290322581,1.35161290322581,1.35483870967742,1.35483870967742,1.34516129032258,1.3258064516129,1.40322580645161,1.65161290322581,1.88064516129032,1.84838709677419,1.50645161290323,1.18064516129032,1.21612903225806,1.38064516129032,1.39354838709677,1.36451612903226,1.36451612903226,1.37096774193548,1.37741935483871,1.38064516129032,1.38709677419355,1.39032258064516,1.39354838709677,1.39677419354839,1.40645161290323,1.41290322580645,1.41935483870968,1.4258064516129,1.43548387096774,1.45161290322581,1.47096774193548,1.49032258064516,1.50967741935484,1.52903225806452,1.54838709677419,1.56774193548387,1.5741935483871,1.56774193548387,1.54193548387097,1.5,1.45806451612903,1.41935483870968,1.39032258064516,1.37096774193548,1.35161290322581,1.34838709677419,1.34838709677419,1.34838709677419,1.34193548387097,1.34193548387097,1.34516129032258,1.34516129032258,1.34516129032258,1.34838709677419,1.34838709677419,1.34838709677419,1.34838709677419,1.35161290322581,1.35161290322581,1.35161290322581,1.35806451612903,1.35161290322581,1.35483870967742,1.36451612903226,1.36129032258065,1.36129032258065,1.36129032258065,1.36129032258065,1.36451612903226,1.36451612903226,1.36774193548387,1.36774193548387,1.36451612903226,1.36129032258065,1.36451612903226,1.36774193548387,1.36774193548387,1.36774193548387,1.36451612903226,1.36451612903226,1.36774193548387,1.36774193548387,1.36451612903226,1.36774193548387,1.3741935483871,1.38064516129032,1.37741935483871,1.37096774193548,1.38064516129032,1.39354838709677,1.4,1.40645161290323,1.4258064516129,1.43870967741935,1.4258064516129,1.4,1.37096774193548,1.36129032258065,1.36129032258065,1.36129032258065,1.35806451612903,1.35806451612903,1.35806451612903,1.35483870967742,1.35483870967742,1.34838709677419,1.3258064516129,1.39032258064516,1.64193548387097,1.91290322580645,1.92903225806452,1.58387096774194,1.20645161290323,1.20967741935484,1.38064516129032,1.4,1.36129032258065,1.36451612903226,1.37096774193548,1.37096774193548,1.38064516129032,1.38387096774194,1.39032258064516,1.39677419354839,1.4,1.40645161290323,1.41290322580645,1.42258064516129,1.42903225806452,1.43870967741935,1.45483870967742,1.46774193548387,1.49032258064516,1.51290322580645,1.53548387096774,1.55483870967742,1.5741935483871,1.58387096774194,1.58064516129032,1.55806451612903,1.51935483870968,1.46774193548387,1.4258064516129,1.39354838709677,1.37096774193548,1.35806451612903,1.34516129032258,1.34516129032258,1.34516129032258,1.34193548387097,1.34516129032258,1.34516129032258,1.34516129032258,1.34838709677419,1.34516129032258,1.34838709677419,1.34838709677419,1.34838709677419,1.35161290322581,1.35483870967742,1.35483870967742,1.35161290322581,1.35806451612903,1.36129032258065,1.36129032258065,1.36129032258065,1.36129032258065,1.36129032258065,1.36129032258065,1.36451612903226,1.36774193548387,1.36451612903226,1.36451612903226,1.36451612903226,1.36451612903226,1.36774193548387,1.36451612903226,1.36451612903226,1.36451612903226,1.36129032258065,1.36774193548387,1.37096774193548,1.36774193548387,1.36774193548387,1.36774193548387,1.37096774193548,1.37096774193548,1.37096774193548,1.36774193548387,1.36774193548387,1.37096774193548,1.37096774193548,1.37096774193548,1.3741935483871,1.3741935483871,1.38064516129032,1.38387096774194,1.38064516129032,1.38064516129032,1.39032258064516,1.40322580645161,1.40645161290323,1.42258064516129,1.43870967741935,1.43870967741935,1.41935483870968,1.39032258064516,1.37096774193548,1.36774193548387,1.37096774193548,1.36774193548387,1.36129032258065,1.36451612903226,1.36129032258065,1.35806451612903,1.35806451612903,1.33870967741935,1.35161290322581,1.53548387096774,1.84193548387097,1.98709677419355,1.76129032258065,1.32258064516129,1.15483870967742,1.31935483870968,1.40967741935484,1.3741935483871,1.36129032258065,1.3741935483871,1.37741935483871,1.38064516129032,1.38387096774194,1.39032258064516,1.4,1.40322580645161,1.40967741935484,1.40967741935484,1.41612903225806,1.4258064516129,1.43870967741935,1.45483870967742,1.46774193548387,1.48387096774194,1.50645161290323,1.5258064516129,1.54838709677419,1.56774193548387,1.58064516129032,1.58064516129032,1.56451612903226,1.53548387096774,1.49032258064516,1.44516129032258,1.40967741935484,1.38064516129032,1.36451612903226,1.35483870967742,1.35161290322581,1.34516129032258,1.34193548387097,1.34193548387097,1.34193548387097,1.34516129032258,1.34516129032258,1.34516129032258,1.34838709677419,1.34838709677419,1.35161290322581,1.34838709677419,1.34838709677419,1.35483870967742,1.35483870967742,1.35483870967742,1.35806451612903,1.35806451612903,1.36129032258065,1.36129032258065,1.36129032258065,1.36129032258065,1.36451612903226,1.36774193548387,1.36451612903226,1.36774193548387,1.36451612903226,1.36451612903226,1.36774193548387,1.3741935483871,1.36774193548387,1.36129032258065,1.35806451612903,1.36129032258065,1.36451612903226,1.36774193548387,1.36774193548387,1.36774193548387,1.37096774193548,1.37096774193548,1.37096774193548,1.37096774193548,1.3741935483871,1.37096774193548,1.37096774193548,1.3741935483871,1.37741935483871,1.37741935483871,1.37741935483871,1.3741935483871,1.38387096774194,1.4,1.40645161290323,1.41935483870968,1.43870967741935,1.43548387096774,1.41612903225806,1.38387096774194,1.36774193548387,1.36774193548387,1.3741935483871,1.37096774193548,1.36451612903226,1.36451612903226,1.35806451612903,1.35806451612903,1.36129032258065,1.34516129032258,1.3741935483871,1.56451612903226,1.81612903225806,1.87741935483871,1.63225806451613,1.25806451612903,1.16774193548387,1.33870967741935,1.40967741935484,1.37741935483871,1.36774193548387,1.37741935483871,1.38387096774194,1.38709677419355,1.39032258064516,1.39677419354839,1.39677419354839,1.4,1.40645161290323,1.41612903225806,1.42258064516129,1.42903225806452,1.43870967741935,1.45161290322581,1.46774193548387,1.48709677419355,1.50322580645161,1.52258064516129,1.54193548387097,1.55483870967742,1.57096774193548,1.57096774193548,1.55161290322581,1.51612903225806,1.4741935483871,1.43548387096774,1.4,1.37741935483871,1.36451612903226,1.35161290322581,1.34516129032258,1.34516129032258,1.34516129032258,1.34838709677419,1.34516129032258,1.34516129032258,1.34193548387097,1.34516129032258,1.34516129032258,1.34516129032258,1.34838709677419,1.34838709677419,1.35161290322581,1.35161290322581,1.35483870967742,1.35806451612903,1.35806451612903,1.36129032258065,1.36451612903226,1.36451612903226,1.36774193548387,1.36451612903226,1.36774193548387,1.37096774193548,1.36774193548387,1.36774193548387,1.37096774193548,1.37096774193548,1.37096774193548,1.36774193548387,1.37096774193548,1.36774193548387,1.36774193548387,1.37096774193548,1.37096774193548,1.37096774193548,1.37096774193548,1.37096774193548,1.3741935483871,1.37096774193548,1.3741935483871,1.3741935483871,1.38387096774194,1.38064516129032,1.3741935483871,1.37741935483871,1.39032258064516,1.4,1.41290322580645,1.42258064516129,1.43870967741935,1.43225806451613,1.41290322580645,1.37741935483871,1.35806451612903,1.36129032258065,1.36451612903226,1.36451612903226,1.36129032258065,1.35806451612903,1.35806451612903,1.35806451612903,1.35483870967742,1.33225806451613,1.38387096774194,1.60967741935484,1.86451612903226,1.89354838709677,1.60322580645161,1.23548387096774,1.2,1.36774193548387,1.4,1.36774193548387,1.36451612903226,1.3741935483871,1.38064516129032,1.38387096774194,1.38709677419355,1.39354838709677,1.39677419354839,1.39677419354839,1.40645161290323,1.41290322580645,1.41935483870968,1.4258064516129,1.43548387096774,1.45161290322581,1.46774193548387,1.48387096774194,1.50645161290323,1.5258064516129,1.54516129032258,1.56451612903226,1.5741935483871,1.5741935483871,1.55483870967742,1.51935483870968,1.4741935483871,1.42903225806452,1.4,1.3741935483871,1.35806451612903,1.34838709677419,1.34516129032258,1.34193548387097,1.33870967741935,1.34193548387097,1.34516129032258,1.34516129032258,1.34838709677419,1.34516129032258,1.34516129032258,1.34516129032258,1.34516129032258,1.35161290322581,1.35161290322581,1.35161290322581,1.35483870967742,1.35483870967742,1.35806451612903,1.35483870967742,1.35806451612903,1.36129032258065,1.36129032258065,1.36451612903226,1.36451612903226,1.36774193548387,1.37096774193548,1.36774193548387,1.36774193548387,1.36774193548387,1.36774193548387,1.37096774193548,1.36774193548387,1.36774193548387,1.36774193548387,1.37096774193548,1.37096774193548,1.36774193548387,1.37096774193548,1.37096774193548,1.37096774193548,1.3741935483871,1.37096774193548,1.3741935483871,1.38064516129032,1.38387096774194,1.37741935483871,1.37741935483871,1.39032258064516,1.4,1.41290322580645,1.42903225806452,1.44516129032258,1.44193548387097,1.41612903225806,1.38387096774194,1.36451612903226,1.36451612903226,1.36774193548387,1.36129032258065,1.35806451612903,1.35483870967742,1.35483870967742,1.35806451612903,1.35161290322581,1.32903225806452,1.35161290322581,1.55483870967742,1.86129032258065,1.97096774193548,1.71290322580645,1.28709677419355,1.16451612903226,1.34193548387097,1.40645161290323,1.36774193548387,1.35806451612903,1.36774193548387,1.37741935483871,1.38064516129032,1.38387096774194,1.38709677419355,1.39032258064516,1.4,1.40322580645161,1.40645161290323,1.41612903225806,1.42903225806452,1.43870967741935,1.44838709677419,1.46129032258065,1.48064516129032,1.50322580645161,1.52903225806452,1.55161290322581,1.56774193548387,1.58387096774194,1.58387096774194,1.56774193548387,1.52903225806452,1.48387096774194,1.44193548387097,1.40322580645161,1.37741935483871,1.36129032258065,1.34838709677419,1.34193548387097,1.33870967741935,1.34193548387097,1.34193548387097,1.34193548387097,1.33870967741935,1.33870967741935,1.34193548387097,1.34516129032258,1.34193548387097,1.34516129032258,1.34516129032258,1.34838709677419,1.34838709677419,1.34838709677419,1.35161290322581,1.35483870967742,1.35483870967742,1.35806451612903,1.36129032258065,1.36129032258065,1.35806451612903,1.36129032258065,1.36451612903226,1.36129032258065,1.36129032258065,1.36451612903226,1.36129032258065,1.36129032258065,1.36774193548387,1.36774193548387,1.36451612903226,1.36774193548387,1.36774193548387,1.37096774193548,1.36774193548387,1.36774193548387,1.36774193548387,1.36774193548387,1.3741935483871,1.37096774193548,1.36774193548387,1.37096774193548,1.3741935483871,1.37741935483871,1.3741935483871,1.37741935483871,1.38709677419355,1.39354838709677,1.40322580645161,1.41612903225806,1.43225806451613,1.42903225806452,1.40645161290323,1.37741935483871,1.36451612903226,1.36451612903226,1.36774193548387,1.36451612903226,1.36129032258065,1.35483870967742,1.35483870967742,1.36129032258065,1.35806451612903,1.33548387096774,1.37741935483871,1.59032258064516,1.84193548387097,1.88709677419355,1.61290322580645,1.23225806451613,1.16774193548387,1.34838709677419,1.40322580645161,1.3741935483871,1.36774193548387,1.3741935483871,1.38064516129032,1.38064516129032,1.38709677419355,1.39032258064516,1.39677419354839,1.40322580645161,1.40322580645161,1.40967741935484,1.41935483870968,1.43225806451613,1.44193548387097,1.44838709677419,1.46129032258065,1.48064516129032,1.50322580645161,1.52903225806452,1.54516129032258,1.56129032258065,1.57096774193548,1.57096774193548,1.55483870967742,1.51612903225806,1.4741935483871,1.43225806451613,1.4,1.38064516129032,1.36129032258065,1.35161290322581,1.34838709677419,1.34516129032258,1.34838709677419,1.34838709677419,1.34838709677419,1.34838709677419,1.34838709677419,1.34838709677419,1.34838709677419,1.34838709677419,1.34838709677419,1.35161290322581,1.35806451612903,1.35806451612903,1.35483870967742,1.35483870967742,1.35806451612903,1.36451612903226,1.36451612903226,1.36451612903226,1.36774193548387,1.36774193548387,1.36774193548387,1.36451612903226,1.36451612903226,1.36774193548387,1.36774193548387,1.37096774193548,1.36774193548387,1.36774193548387,1.37096774193548,1.37096774193548,1.36774193548387,1.36774193548387,1.37096774193548,1.37096774193548,1.37096774193548,1.37741935483871,1.38709677419355,1.39354838709677,1.39354838709677,1.39032258064516,1.38709677419355,1.40322580645161,1.43225806451613,1.43870967741935,1.42903225806452,1.42258064516129,1.40645161290323,1.38064516129032,1.36451612903226,1.36129032258065,1.36451612903226,1.36451612903226,1.36129032258065,1.35483870967742,1.35483870967742,1.35483870967742,1.35161290322581,1.33225806451613,1.38709677419355,1.61612903225806,1.85806451612903,1.86774193548387,1.56774193548387,1.21935483870968,1.20322580645161,1.37096774193548,1.4,1.37096774193548,1.3741935483871,1.38064516129032,1.38064516129032,1.38064516129032,1.38709677419355,1.39677419354839,1.4,1.40645161290323,1.40967741935484,1.41612903225806,1.42258064516129,1.42903225806452,1.44516129032258,1.45483870967742,1.46774193548387,1.48709677419355,1.50645161290323,1.52903225806452,1.55161290322581,1.56774193548387,1.5741935483871,1.57096774193548,1.55161290322581,1.51290322580645,1.47096774193548,1.42903225806452,1.39677419354839,1.37741935483871,1.36129032258065,1.35483870967742,1.34838709677419,1.34516129032258,1.34516129032258,1.34516129032258,1.34838709677419,1.34838709677419,1.34516129032258,1.34838709677419,1.34838709677419,1.34838709677419,1.34838709677419,1.34838709677419,1.35161290322581,1.35161290322581,1.35161290322581,1.35161290322581,1.35161290322581,1.35806451612903,1.35806451612903,1.35806451612903,1.36129032258065,1.36129032258065,1.36451612903226,1.36129032258065,1.36129032258065,1.36451612903226,1.36451612903226,1.36451612903226,1.36451612903226,1.36451612903226,1.36451612903226,1.36129032258065,1.36451612903226,1.36451612903226,1.36451612903226,1.36451612903226,1.36451612903226,1.36774193548387,1.37096774193548,1.37741935483871,1.37741935483871,1.37741935483871,1.38387096774194,1.39032258064516,1.40322580645161,1.42258064516129,1.43548387096774,1.43225806451613,1.41290322580645,1.38709677419355,1.36129032258065,1.34838709677419,1.35161290322581,1.35161290322581,1.34838709677419,1.34516129032258,1.34193548387097,1.34193548387097,1.34193548387097,1.33548387096774,1.30967741935484,1.38709677419355,1.65483870967742,1.91935483870968,1.90322580645161,1.53548387096774,1.17741935483871,1.20322580645161,1.37096774193548,1.38064516129032,1.34516129032258,1.34516129032258,1.35483870967742,1.35806451612903,1.36451612903226,1.37096774193548,1.37741935483871,1.38064516129032,1.38387096774194,1.39677419354839,1.40322580645161,1.40645161290323,1.41612903225806,1.42903225806452,1.44193548387097,1.45806451612903,1.48064516129032,1.50322580645161,1.5258064516129,1.54838709677419,1.56774193548387,1.5741935483871,1.57096774193548,1.54838709677419,1.50967741935484,1.46129032258065,1.41935483870968,1.39032258064516,1.36774193548387,1.35161290322581,1.34516129032258,1.33870967741935,1.34193548387097,1.34193548387097,1.34516129032258,1.34516129032258,1.34193548387097,1.34516129032258,1.34838709677419,1.35161290322581,1.35483870967742,1.35806451612903,1.35806451612903,1.35806451612903,1.36129032258065,1.36451612903226,1.36774193548387,1.37741935483871,1.37741935483871,1.38064516129032,1.38387096774194,1.38709677419355,1.38709677419355,1.38709677419355,1.39032258064516,1.39354838709677,1.4,1.40322580645161,1.4,1.40322580645161,1.40967741935484,1.40967741935484,1.41290322580645,1.41935483870968,1.42258064516129,1.4258064516129,1.42903225806452,1.43225806451613
1.37096774193548,1.37096774193548,1.37096774193548,1.36774193548387,1.36774193548387,1.36774193548387,1.37096774193548,1.36774193548387,1.36774193548387,1.37096774193548,1.36774193548387,1.36774193548387,1.37096774193548,1.36774193548387,1.36774193548387,1.36774193548387,1.36774193548387,1.37096774193548,1.3741935483871,1.38387096774194,1.38387096774194,1.38064516129032,1.38387096774194,1.39354838709677,1.40322580645161,1.41935483870968,1.43870967741935,1.44838709677419,1.42903225806452,1.39677419354839,1.36774193548387,1.36129032258065,1.36774193548387,1.36129032258065,1.36129032258065,1.35806451612903,1.35483870967742,1.35806451612903,1.35806451612903,1.34838709677419,1.3258064516129,1.40645161290323,1.68064516129032,1.94516129032258,1.90645161290323,1.51290322580645,1.16451612903226,1.21935483870968,1.39032258064516,1.39677419354839,1.36451612903226,1.36774193548387,1.37741935483871,1.37741935483871,1.38064516129032,1.38709677419355,1.39354838709677,1.39677419354839,1.39677419354839,1.40645161290323,1.41612903225806,1.42258064516129,1.43548387096774,1.44193548387097,1.45483870967742,1.4741935483871,1.49354838709677,1.51612903225806,1.53870967741935,1.55806451612903,1.57096774193548,1.5741935483871,1.56451612903226,1.53548387096774,1.49032258064516,1.44516129032258,1.40645161290323,1.38387096774194,1.36451612903226,1.35483870967742,1.34516129032258,1.33870967741935,1.34193548387097,1.33870967741935,1.33870967741935,1.33870967741935,1.33870967741935,1.34193548387097,1.34193548387097,1.34516129032258,1.34516129032258,1.34516129032258,1.35161290322581,1.35161290322581,1.35483870967742,1.35806451612903,1.35806451612903,1.36451612903226,1.36451612903226,1.36451612903226,1.36451612903226,1.36451612903226,1.36774193548387,1.36129032258065,1.36451612903226,1.36774193548387,1.36774193548387,1.36774193548387,1.36774193548387,1.36774193548387,1.36451612903226,1.36451612903226,1.36774193548387,1.36451612903226,1.36774193548387,1.3741935483871,1.38064516129032,1.38709677419355,1.38387096774194,1.38387096774194,1.38387096774194,1.39677419354839,1.4258064516129,1.44193548387097,1.43548387096774,1.42258064516129,1.40645161290323,1.38064516129032,1.35806451612903,1.35806451612903,1.36129032258065,1.35806451612903,1.35806451612903,1.35483870967742,1.35161290322581,1.35161290322581,1.34838709677419,1.33225806451613,1.33548387096774,1.50322580645161,1.77741935483871,1.90645161290323,1.70645161290323,1.3,1.13870967741935,1.3,1.4,1.3741935483871,1.35483870967742,1.36451612903226,1.37096774193548,1.37096774193548,1.38064516129032,1.38709677419355,1.39354838709677,1.39677419354839,1.4,1.40645161290323,1.41290322580645,1.42258064516129,1.43548387096774,1.44838709677419,1.46129032258065,1.48064516129032,1.5,1.51935483870968,1.54193548387097,1.56129032258065,1.56451612903226,1.55806451612903,1.53870967741935,1.5,1.45806451612903,1.42258064516129,1.39354838709677,1.36774193548387,1.35161290322581,1.34838709677419,1.34516129032258,1.34838709677419,1.34516129032258,1.34193548387097,1.34193548387097,1.34516129032258,1.34838709677419,1.34516129032258,1.34516129032258,1.34838709677419,1.34838709677419,1.34838709677419,1.35161290322581,1.35483870967742,1.35806451612903,1.35483870967742,1.35806451612903,1.36129032258065,1.36129032258065,1.36451612903226,1.36451612903226,1.36774193548387,1.36774193548387,1.36774193548387,1.36774193548387,1.36451612903226,1.37096774193548,1.37096774193548,1.36774193548387,1.36774193548387,1.36774193548387,1.36774193548387,1.3741935483871,1.38064516129032,1.39032258064516,1.39032258064516,1.38709677419355,1.38064516129032,1.39354838709677,1.42903225806452,1.44838709677419,1.44193548387097,1.42903225806452,1.40967741935484,1.38387096774194,1.36129032258065,1.35483870967742,1.35806451612903,1.35483870967742,1.35161290322581,1.34838709677419,1.34838709677419,1.34838709677419,1.35161290322581,1.33870967741935,1.3258064516129,1.45483870967742,1.73548387096774,1.92903225806452,1.80322580645161,1.4,1.15483870967742,1.2741935483871,1.4,1.38064516129032,1.35483870967742,1.36129032258065,1.37096774193548,1.3741935483871,1.38064516129032,1.38387096774194,1.39032258064516,1.39354838709677,1.4,1.40645161290323,1.40967741935484,1.41935483870968,1.42903225806452,1.44193548387097,1.46129032258065,1.47741935483871,1.49677419354839,1.51935483870968,1.54193548387097,1.56129032258065,1.57096774193548,1.57096774193548,1.55483870967742,1.51935483870968,1.47741935483871,1.43548387096774,1.40322580645161,1.37741935483871,1.36451612903226,1.35483870967742,1.34516129032258,1.34516129032258,1.34516129032258,1.34193548387097,1.34516129032258,1.34516129032258,1.34838709677419,1.34838709677419,1.34838709677419,1.35161290322581,1.35161290322581,1.35161290322581,1.34838709677419,1.35161290322581,1.35806451612903,1.35806451612903,1.35806451612903,1.35806451612903,1.35806451612903,1.36129032258065,1.36451612903226,1.36774193548387,1.37096774193548,1.36774193548387,1.37096774193548,1.37096774193548,1.37096774193548,1.36774193548387,1.36774193548387,1.36774193548387,1.36774193548387,1.36774193548387,1.36774193548387,1.36774193548387,1.36774193548387,1.36774193548387,1.37096774193548,1.37096774193548,1.36774193548387,1.37096774193548,1.37096774193548,1.38064516129032,1.38387096774194,1.38064516129032,1.38709677419355,1.39677419354839,1.40967741935484,1.43225806451613,1.44516129032258,1.44516129032258,1.42903225806452,1.40322580645161,1.37741935483871,1.36129032258065,1.36451612903226,1.36451612903226,1.36129032258065,1.36129032258065,1.35806451612903,1.35806451612903,1.35806451612903,1.34838709677419,1.3258064516129,1.40322580645161,1.6741935483871,1.94193548387097,1.91612903225806,1.53225806451613,1.17741935483871,1.21612903225806,1.38387096774194,1.39032258064516,1.35806451612903,1.36129032258065,1.37096774193548,1.3741935483871,1.37741935483871,1.38064516129032,1.38709677419355,1.39354838709677,1.4,1.40645161290323,1.40967741935484,1.41612903225806,1.42903225806452,1.44193548387097,1.45483870967742,1.4741935483871,1.49677419354839,1.51935483870968,1.53870967741935,1.55806451612903,1.57741935483871,1.58387096774194,1.5741935483871,1.54193548387097,1.5,1.45483870967742,1.41612903225806,1.38709677419355,1.36451612903226,1.35483870967742,1.34838709677419,1.34193548387097,1.34193548387097,1.33870967741935,1.33870967741935,1.34193548387097,1.34193548387097,1.34516129032258,1.34193548387097,1.34838709677419,1.34838709677419,1.34838709677419,1.34838709677419,1.35161290322581,1.35806451612903,1.35806451612903,1.35806451612903,1.35806451612903,1.35806451612903,1.35806451612903,1.36129032258065,1.36451612903226,1.36451612903226,1.36129032258065,1.36129032258065,1.36451612903226,1.36451612903226,1.36774193548387,1.36451612903226,1.36129032258065,1.36129032258065,1.35806451612903,1.36451612903226,1.36451612903226,1.36451612903226,1.36451612903226,1.36451612903226,1.37096774193548,1.36774193548387,1.36774193548387,1.36774193548387,1.36774193548387,1.36774193548387,1.36774193548387,1.37096774193548,1.38064516129032,1.38064516129032,1.37741935483871,1.38387096774194,1.39677419354839,1.41290322580645,1.43225806451613,1.44193548387097,1.43225806451613,1.41612903225806,1.38709677419355,1.36451612903226,1.36451612903226,1.36451612903226,1.36451612903226,1.36129032258065,1.35806451612903,1.35806451612903,1.35806451612903,1.35483870967742,1.33548387096774,1.33548387096774,1.5,1.79677419354839,1.95483870967742,1.76129032258065,1.33548387096774,1.14516129032258,1.3,1.40967741935484,1.38064516129032,1.36129032258065,1.3741935483871,1.38064516129032,1.38387096774194,1.38709677419355,1.39354838709677,1.4,1.40322580645161,1.40967741935484,1.41612903225806,1.41935483870968,1.42903225806452,1.44516129032258,1.45483870967742,1.46774193548387,1.48709677419355,1.50967741935484,1.52903225806452,1.54516129032258,1.56451612903226,1.57741935483871,1.5741935483871,1.55161290322581,1.51612903225806,1.47096774193548,1.43225806451613,1.40322580645161,1.37741935483871,1.36129032258065,1.34838709677419,1.34516129032258,1.34516129032258,1.34516129032258,1.34516129032258,1.34193548387097,1.34516129032258,1.34838709677419,1.34516129032258,1.34838709677419,1.35161290322581,1.35161290322581,1.35161290322581,1.35161290322581,1.35483870967742,1.35806451612903,1.35483870967742,1.36129032258065,1.36451612903226,1.36774193548387,1.36774193548387,1.36774193548387,1.37096774193548,1.37096774193548,1.37096774193548,1.37096774193548,1.37096774193548,1.36774193548387,1.36451612903226,1.36774193548387,1.37096774193548,1.36774193548387,1.36774193548387,1.36774193548387,1.36774193548387,1.37096774193548,1.37096774193548,1.3741935483871,1.37096774193548,1.37096774193548,1.37096774193548,1.3741935483871,1.37741935483871,1.3741935483871,1.38387096774194,1.38064516129032,1.3741935483871,1.38064516129032,1.39032258064516,1.40322580645161,1.41612903225806,1.43548387096774,1.43870967741935,1.42258064516129,1.4,1.3741935483871,1.36129032258065,1.36451612903226,1.36451612903226,1.36129032258065,1.35806451612903,1.35806451612903,1.35806451612903,1.35483870967742,1.34838709677419,1.33225806451613,1.42903225806452,1.67741935483871,1.88387096774194,1.81612903225806,1.46129032258065,1.17096774193548,1.23870967741935,1.39354838709677,1.39677419354839,1.36774193548387,1.3741935483871,1.38064516129032,1.38064516129032,1.38387096774194,1.39032258064516,1.39354838709677,1.39677419354839,1.4,1.40645161290323,1.41290322580645,1.42258064516129,1.43225806451613,1.44193548387097,1.45806451612903,1.47741935483871,1.49677419354839,1.51935483870968,1.53870967741935,1.55806451612903,1.56774193548387,1.57096774193548,1.56451612903226,1.53225806451613,1.49032258064516,1.44516129032258,1.40967741935484,1.38387096774194,1.36451612903226,1.35483870967742,1.34838709677419,1.34838709677419,1.34838709677419,1.34838709677419,1.34838709677419,1.34838709677419,1.34838709677419,1.35161290322581,1.34838709677419,1.35161290322581,1.34838709677419,1.34838709677419,1.35483870967742,1.35483870967742,1.35483870967742,1.35806451612903,1.35806451612903,1.36129032258065,1.36451612903226,1.36774193548387,1.36774193548387,1.36774193548387,1.37096774193548,1.36451612903226,1.36774193548387,1.37096774193548,1.37096774193548,1.37096774193548,1.36774193548387,1.37096774193548,1.37096774193548,1.36774193548387,1.36774193548387,1.36774193548387,1.36774193548387,1.37096774193548,1.37096774193548,1.3741935483871,1.37096774193548,1.37096774193548,1.37096774193548,1.37096774193548,1.3741935483871,1.37741935483871,1.38387096774194,1.37741935483871,1.37741935483871,1.38709677419355,1.39677419354839,1.40645161290323,1.42258064516129,1.43870967741935,1.44193548387097,1.42258064516129,1.39677419354839,1.37096774193548,1.36129032258065,1.36774193548387,1.36451612903226,1.35806451612903,1.35806451612903,1.35806451612903,1.35806451612903,1.35483870967742,1.33548387096774,1.33548387096774,1.48709677419355,1.78387096774194,1.96129032258065,1.79677419354839,1.3741935483871,1.15161290322581,1.29354838709677,1.40645161290323,1.37741935483871,1.35483870967742,1.36451612903226,1.3741935483871,1.3741935483871,1.37741935483871,1.38387096774194,1.39032258064516,1.39677419354839,1.4,1.40967741935484,1.41612903225806,1.4258064516129,1.43548387096774,1.44516129032258,1.46129032258065,1.48064516129032,1.5,1.52258064516129,1.54516129032258,1.56451612903226,1.5741935483871,1.57741935483871,1.56774193548387,1.52903225806452,1.48387096774194,1.44193548387097,1.40645161290323,1.38064516129032,1.35806451612903,1.34838709677419,1.34516129032258,1.34193548387097,1.34193548387097,1.33870967741935,1.34193548387097,1.34193548387097,1.33870967741935,1.34193548387097,1.34193548387097,1.34516129032258,1.34516129032258,1.34838709677419,1.35161290322581,1.35161290322581,1.35483870967742,1.35161290322581,1.35483870967742,1.35806451612903,1.35806451612903,1.36129032258065,1.36129032258065,1.36129032258065,1.36451612903226,1.36129032258065,1.36451612903226,1.36451612903226,1.36451612903226,1.36774193548387,1.37096774193548,1.36774193548387,1.36451612903226,1.36451612903226,1.36774193548387,1.36774193548387,1.37096774193548,1.37096774193548,1.37096774193548,1.36774193548387,1.36774193548387,1.36774193548387,1.37096774193548,1.37096774193548,1.37096774193548,1.37096774193548,1.37741935483871,1.38064516129032,1.38064516129032,1.38064516129032,1.38709677419355,1.39677419354839,1.40645161290323,1.41935483870968,1.44193548387097,1.44193548387097,1.42258064516129,1.39354838709677,1.36774193548387,1.36451612903226,1.36451612903226,1.36129032258065,1.35806451612903,1.35806451612903,1.35806451612903,1.35806451612903,1.35806451612903,1.33870967741935,1.34193548387097,1.50322580645161,1.8,1.96451612903226,1.77096774193548,1.33870967741935,1.14193548387097,1.29354838709677,1.40645161290323,1.38064516129032,1.36129032258065,1.37096774193548,1.38064516129032,1.38387096774194,1.38064516129032,1.38709677419355,1.39677419354839,1.39677419354839,1.40322580645161,1.40967741935484,1.41935483870968,1.42903225806452,1.43548387096774,1.44838709677419,1.46451612903226,1.48387096774194,1.50322580645161,1.52258064516129,1.54516129032258,1.56451612903226,1.5741935483871,1.5741935483871,1.55483870967742,1.5258064516129,1.48064516129032,1.43548387096774,1.40322580645161,1.37741935483871,1.36129032258065,1.34838709677419,1.34516129032258,1.34838709677419,1.34516129032258,1.34516129032258,1.34516129032258,1.34516129032258,1.34838709677419,1.34516129032258,1.34516129032258,1.34516129032258,1.34516129032258,1.34838709677419,1.34838709677419,1.34838709677419,1.35161290322581,1.35483870967742,1.36129032258065,1.36451612903226,1.36451612903226,1.36774193548387,1.36774193548387,1.36774193548387,1.36774193548387,1.37096774193548,1.37096774193548,1.37096774193548,1.37096774193548,1.36774193548387,1.36774193548387,1.36774193548387,1.37096774193548,1.37096774193548,1.37096774193548,1.3741935483871,1.37096774193548,1.37096774193548,1.3741935483871,1.37096774193548,1.37096774193548,1.36774193548387,1.37096774193548,1.3741935483871,1.38064516129032,1.38387096774194,1.38064516129032,1.38064516129032,1.39032258064516,1.4,1.40967741935484,1.42903225806452,1.43870967741935,1.43225806451613,1.41290322580645,1.38709677419355,1.36774193548387,1.36451612903226,1.36451612903226,1.36129032258065,1.36129032258065,1.36129032258065,1.36129032258065,1.36129032258065,1.35806451612903,1.34193548387097,1.35483870967742,1.52903225806452,1.79354838709677,1.89032258064516,1.68064516129032,1.29677419354839,1.15806451612903,1.31935483870968,1.40967741935484,1.38387096774194,1.36774193548387,1.3741935483871,1.38064516129032,1.38709677419355,1.39032258064516,1.39354838709677,1.39677419354839,1.40645161290323,1.40967741935484,1.41290322580645,1.41935483870968,1.42903225806452,1.43548387096774,1.44838709677419,1.47096774193548,1.48709677419355,1.50645161290323,1.52903225806452,1.54516129032258,1.56451612903226,1.5741935483871,1.57096774193548,1.55161290322581,1.51612903225806,1.4741935483871,1.43225806451613,1.4,1.37741935483871,1.35806451612903,1.35161290322581,1.35161290322581,1.34838709677419,1.34516129032258,1.34516129032258,1.34838709677419,1.34838709677419,1.34516129032258,1.34838709677419,1.34838709677419,1.34838709677419,1.34838709677419,1.35161290322581,1.35161290322581,1.34838709677419,1.35161290322581,1.35483870967742,1.35806451612903,1.36129032258065,1.36129032258065,1.36451612903226,1.36451612903226,1.36451612903226,1.36774193548387,1.36774193548387,1.36774193548387,1.36451612903226,1.36451612903226,1.36774193548387,1.36451612903226,1.36451612903226,1.36451612903226,1.36451612903226,1.36774193548387,1.36774193548387,1.37096774193548,1.37096774193548,1.36774193548387,1.36774193548387,1.36774193548387,1.3741935483871,1.37741935483871,1.38064516129032,1.38387096774194,1.38064516129032,1.38387096774194,1.39354838709677,1.4,1.40967741935484,1.42258064516129,1.43870967741935,1.43225806451613,1.40967741935484,1.38387096774194,1.36451612903226,1.36129032258065,1.35806451612903,1.35806451612903,1.35806451612903,1.35161290322581,1.35161290322581,1.35161290322581,1.35161290322581,1.33225806451613,1.34516129032258,1.52903225806452,1.81612903225806,1.92903225806452,1.7,1.29354838709677,1.16129032258065,1.3258064516129,1.4,1.36774193548387,1.35483870967742,1.36451612903226,1.37096774193548,1.37741935483871,1.38387096774194,1.38387096774194,1.39032258064516,1.39677419354839,1.4,1.40645161290323,1.41290322580645,1.42258064516129,1.42903225806452,1.44193548387097,1.45806451612903,1.4741935483871,1.49677419354839,1.52258064516129,1.54193548387097,1.56129032258065,1.56774193548387,1.57096774193548,1.55483870967742,1.51612903225806,1.47096774193548,1.42903225806452,1.39677419354839,1.3741935483871,1.36129032258065,1.35161290322581,1.34193548387097,1.34193548387097,1.34193548387097,1.33870967741935,1.33870967741935,1.33870967741935,1.34516129032258,1.34516129032258,1.34516129032258,1.34516129032258,1.34516129032258,1.34838709677419,1.35161290322581,1.35161290322581,1.35483870967742,1.35483870967742,1.35806451612903,1.35806451612903,1.36129032258065,1.36129032258065,1.36451612903226,1.36451612903226,1.36451612903226,1.36451612903226,1.36774193548387,1.36774193548387,1.37096774193548,1.37096774193548,1.37096774193548,1.37096774193548,1.36774193548387,1.36774193548387,1.37096774193548,1.36774193548387,1.37096774193548,1.3741935483871,1.37741935483871,1.3741935483871,1.37096774193548,1.3741935483871,1.3741935483871,1.3741935483871,1.3741935483871,1.3741935483871,1.38064516129032,1.38064516129032,1.38387096774194,1.38064516129032,1.38064516129032,1.39354838709677,1.40322580645161,1.40967741935484,1.4258064516129,1.44516129032258,1.44838709677419,1.42258064516129,1.39354838709677,1.37096774193548,1.37096774193548,1.37096774193548,1.36451612903226,1.36451612903226,1.36451612903226,1.36451612903226,1.36451612903226,1.36129032258065,1.34193548387097,1.35483870967742,1.54838709677419,1.85161290322581,1.97096774193548,1.71935483870968,1.29354838709677,1.16451612903226,1.33870967741935,1.41612903225806,1.38064516129032,1.37096774193548,1.38064516129032,1.38709677419355,1.38709677419355,1.39354838709677,1.39677419354839,1.4,1.40645161290323,1.41290322580645,1.42258064516129,1.42903225806452,1.43548387096774,1.44516129032258,1.45483870967742,1.4741935483871,1.49677419354839,1.51612903225806,1.53870967741935,1.55806451612903,1.57741935483871,1.58709677419355,1.58387096774194,1.56451612903226,1.5258064516129,1.48064516129032,1.43870967741935,1.40322580645161,1.38387096774194,1.36451612903226,1.35806451612903,1.34516129032258,1.34193548387097,1.34838709677419,1.34516129032258,1.34516129032258,1.34516129032258,1.34193548387097,1.34516129032258,1.34838709677419,1.35161290322581,1.35161290322581,1.35161290322581,1.35161290322581,1.35161290322581,1.35161290322581,1.35483870967742,1.35806451612903,1.36129032258065,1.36129032258065,1.36129032258065,1.35806451612903,1.36129032258065,1.36774193548387,1.36451612903226,1.36451612903226,1.36451612903226,1.36774193548387,1.36774193548387,1.36451612903226,1.36451612903226,1.36451612903226,1.36451612903226,1.36451612903226,1.36451612903226,1.36451612903226,1.36774193548387,1.37096774193548,1.36774193548387,1.36774193548387,1.36774193548387,1.36451612903226,1.36774193548387,1.36451612903226,1.36129032258065,1.37096774193548,1.3741935483871,1.3741935483871,1.37741935483871,1.37096774193548,1.3741935483871,1.38064516129032,1.39032258064516,1.40645161290323,1.42258064516129,1.43548387096774,1.42258064516129,1.39677419354839,1.36774193548387,1.35161290322581,1.35806451612903,1.35806451612903,1.35483870967742,1.35161290322581,1.34838709677419,1.34838709677419,1.34516129032258,1.34516129032258,1.3258064516129,1.38387096774194,1.62903225806452,1.8741935483871,1.87096774193548,1.54193548387097,1.18064516129032,1.18064516129032,1.36129032258065,1.39354838709677,1.36129032258065,1.35483870967742,1.36774193548387,1.37096774193548,1.3741935483871,1.37741935483871,1.38064516129032,1.38709677419355,1.39354838709677,1.39677419354839,1.40322580645161,1.40967741935484,1.42258064516129,1.43225806451613,1.44516129032258,1.46451612903226,1.48064516129032,1.5,1.52258064516129,1.54516129032258,1.55806451612903,1.56129032258065,1.55806451612903,1.53548387096774,1.49677419354839,1.45483870967742,1.41612903225806,1.38709677419355,1.36129032258065,1.34838709677419,1.34516129032258,1.34193548387097,1.34193548387097,1.34193548387097,1.34193548387097,1.34838709677419,1.35161290322581,1.35161290322581,1.35161290322581,1.35161290322581,1.35161290322581,1.35483870967742,1.36451612903226,1.36451612903226,1.36451612903226,1.37096774193548,1.3741935483871,1.37741935483871,1.38387096774194,1.38709677419355,1.39354838709677,1.39354838709677,1.39677419354839,1.4,1.40322580645161,1.40967741935484,1.40967741935484,1.41290322580645,1.41290322580645,1.41612903225806,1.41612903225806,1.41935483870968,1.4258064516129
1.36129032258065,1.36451612903226,1.36451612903226,1.36451612903226,1.36451612903226,1.36774193548387,1.36451612903226,1.37096774193548,1.37096774193548,1.36774193548387,1.36774193548387,1.36774193548387,1.37096774193548,1.3741935483871,1.3741935483871,1.3741935483871,1.37096774193548,1.37096774193548,1.3741935483871,1.3741935483871,1.3741935483871,1.37741935483871,1.39354838709677,1.40322580645161,1.40645161290323,1.41935483870968,1.43870967741935,1.45161290322581,1.45161290322581,1.43548387096774,1.42258064516129,1.41290322580645,1.39032258064516,1.36451612903226,1.35483870967742,1.35483870967742,1.35483870967742,1.35483870967742,1.34838709677419,1.34838709677419,1.35161290322581,1.35161290322581,1.34193548387097,1.32903225806452,1.44193548387097,1.69677419354839,1.8741935483871,1.77741935483871,1.41612903225806,1.14838709677419,1.23870967741935,1.38064516129032,1.38387096774194,1.35483870967742,1.36129032258065,1.3741935483871,1.3741935483871,1.37741935483871,1.38387096774194,1.38709677419355,1.39354838709677,1.4,1.40645161290323,1.40967741935484,1.41935483870968,1.43225806451613,1.44193548387097,1.45483870967742,1.47096774193548,1.49032258064516,1.51290322580645,1.53548387096774,1.55806451612903,1.5741935483871,1.58064516129032,1.57741935483871,1.55806451612903,1.52258064516129,1.4741935483871,1.43225806451613,1.40322580645161,1.37741935483871,1.36129032258065,1.35161290322581,1.34516129032258,1.34516129032258,1.34193548387097,1.34516129032258,1.34516129032258,1.34516129032258,1.34838709677419,1.34838709677419,1.34838709677419,1.35161290322581,1.34838709677419,1.34838709677419,1.34838709677419,1.35161290322581,1.35483870967742,1.35161290322581,1.35483870967742,1.35806451612903,1.35806451612903,1.35806451612903,1.36451612903226,1.36774193548387,1.36451612903226,1.36451612903226,1.36129032258065,1.36451612903226,1.36451612903226,1.36129032258065,1.36129032258065,1.36451612903226,1.36451612903226,1.36774193548387,1.36774193548387,1.36774193548387,1.36774193548387,1.36774193548387,1.36774193548387,1.3741935483871,1.39032258064516,1.39677419354839,1.4,1.41935483870968,1.43548387096774,1.44838709677419,1.44193548387097,1.4258064516129,1.41290322580645,1.4,1.38064516129032,1.35806451612903,1.34516129032258,1.34838709677419,1.34516129032258,1.34193548387097,1.33870967741935,1.33870967741935,1.34193548387097,1.33870967741935,1.31935483870968,1.31935483870968,1.47741935483871,1.78064516129032,1.94838709677419,1.78387096774194,1.37096774193548,1.15483870967742,1.29032258064516,1.39354838709677,1.36451612903226,1.34516129032258,1.35483870967742,1.36451612903226,1.36774193548387,1.37096774193548,1.3741935483871,1.38064516129032,1.39032258064516,1.39354838709677,1.40322580645161,1.40967741935484,1.41935483870968,1.42903225806452,1.43548387096774,1.44838709677419,1.46774193548387,1.48709677419355,1.51290322580645,1.53548387096774,1.55806451612903,1.57741935483871,1.58709677419355,1.58709677419355,1.56129032258065,1.51935483870968,1.4741935483871,1.42903225806452,1.39677419354839,1.37096774193548,1.35806451612903,1.35161290322581,1.34516129032258,1.34193548387097,1.33548387096774,1.33548387096774,1.33870967741935,1.34516129032258,1.34516129032258,1.34193548387097,1.34516129032258,1.34838709677419,1.34516129032258,1.34516129032258,1.34838709677419,1.35161290322581,1.35161290322581,1.35161290322581,1.35161290322581,1.35161290322581,1.35483870967742,1.35483870967742,1.35806451612903,1.35806451612903,1.35806451612903,1.35806451612903,1.35806451612903,1.35806451612903,1.36129032258065,1.36129032258065,1.36129032258065,1.36129032258065,1.36129032258065,1.36451612903226,1.36451612903226,1.36451612903226,1.36451612903226,1.36774193548387,1.37096774193548,1.36774193548387,1.37096774193548,1.38709677419355,1.4,1.40645161290323,1.41612903225806,1.43870967741935,1.45483870967742,1.45161290322581,1.43548387096774,1.42258064516129,1.41290322580645,1.39032258064516,1.36129032258065,1.34838709677419,1.34193548387097,1.34838709677419,1.34838709677419,1.34516129032258,1.34193548387097,1.34193548387097,1.34193548387097,1.33225806451613,1.30322580645161,1.35806451612903,1.61612903225806,1.92903225806452,1.97741935483871,1.63870967741935,1.22258064516129,1.17741935483871,1.35806451612903,1.39677419354839,1.35483870967742,1.35161290322581,1.36129032258065,1.36774193548387,1.37096774193548,1.3741935483871,1.38387096774194,1.38709677419355,1.39354838709677,1.4,1.40645161290323,1.41612903225806,1.42258064516129,1.43548387096774,1.44838709677419,1.46451612903226,1.48387096774194,1.50322580645161,1.53225806451613,1.56129032258065,1.58064516129032,1.59677419354839,1.6,1.59032258064516,1.55483870967742,1.50645161290323,1.45806451612903,1.41612903225806,1.38709677419355,1.36451612903226,1.35161290322581,1.34838709677419,1.34516129032258,1.34193548387097,1.34193548387097,1.34193548387097,1.34516129032258,1.34193548387097,1.34516129032258,1.34838709677419,1.34838709677419,1.35161290322581,1.34838709677419,1.35161290322581,1.35161290322581,1.35161290322581,1.35483870967742,1.35161290322581,1.35483870967742,1.35483870967742,1.35806451612903,1.35806451612903,1.35806451612903,1.36129032258065,1.36129032258065,1.35806451612903,1.36129032258065,1.36129032258065,1.36774193548387,1.36451612903226,1.36129032258065,1.36451612903226,1.36129032258065,1.36451612903226,1.36451612903226,1.36451612903226,1.36774193548387,1.36451612903226,1.36451612903226,1.36774193548387,1.36774193548387,1.37096774193548,1.37096774193548,1.37096774193548,1.38064516129032,1.39677419354839,1.40322580645161,1.40645161290323,1.4258064516129,1.44516129032258,1.45806451612903,1.44838709677419,1.4258064516129,1.41935483870968,1.40322580645161,1.37741935483871,1.35483870967742,1.34838709677419,1.34838709677419,1.34838709677419,1.34516129032258,1.34516129032258,1.34516129032258,1.34516129032258,1.34838709677419,1.34193548387097,1.31612903225806,1.39032258064516,1.65161290322581,1.91290322580645,1.89677419354839,1.54193548387097,1.17741935483871,1.19677419354839,1.36774193548387,1.39032258064516,1.35806451612903,1.35161290322581,1.36451612903226,1.3741935483871,1.3741935483871,1.38064516129032,1.38387096774194,1.38709677419355,1.39677419354839,1.40645161290323,1.41290322580645,1.41612903225806,1.42903225806452,1.43870967741935,1.45161290322581,1.46774193548387,1.48709677419355,1.50967741935484,1.53225806451613,1.55483870967742,1.5741935483871,1.58709677419355,1.58709677419355,1.57096774193548,1.53548387096774,1.49354838709677,1.44516129032258,1.40645161290323,1.38387096774194,1.36774193548387,1.35483870967742,1.34516129032258,1.34516129032258,1.34838709677419,1.34838709677419,1.34516129032258,1.34516129032258,1.34838709677419,1.34838709677419,1.35161290322581,1.35483870967742,1.35161290322581,1.35161290322581,1.35483870967742,1.35483870967742,1.35806451612903,1.35806451612903,1.36129032258065,1.36129032258065,1.35806451612903,1.36129032258065,1.36129032258065,1.36451612903226,1.36451612903226,1.36774193548387,1.37096774193548,1.37096774193548,1.37096774193548,1.36774193548387,1.36774193548387,1.37096774193548,1.37096774193548,1.37096774193548,1.3741935483871,1.37096774193548,1.37096774193548,1.36774193548387,1.36774193548387,1.37096774193548,1.37096774193548,1.3741935483871,1.37096774193548,1.37096774193548,1.36774193548387,1.37096774193548,1.3741935483871,1.37096774193548,1.38387096774194,1.4,1.40645161290323,1.40645161290323,1.41935483870968,1.44516129032258,1.45806451612903,1.45161290322581,1.43225806451613,1.41612903225806,1.40967741935484,1.38709677419355,1.36451612903226,1.35483870967742,1.35483870967742,1.35161290322581,1.34838709677419,1.34838709677419,1.35161290322581,1.34838709677419,1.34516129032258,1.34193548387097,1.32258064516129,1.39032258064516,1.63225806451613,1.88387096774194,1.89032258064516,1.56774193548387,1.20322580645161,1.19032258064516,1.36451612903226,1.39354838709677,1.35806451612903,1.35806451612903,1.36451612903226,1.37096774193548,1.3741935483871,1.38064516129032,1.38709677419355,1.39032258064516,1.39354838709677,1.4,1.40645161290323,1.41612903225806,1.42258064516129,1.43548387096774,1.44838709677419,1.46451612903226,1.48064516129032,1.50322580645161,1.52903225806452,1.54838709677419,1.56774193548387,1.58387096774194,1.58709677419355,1.57096774193548,1.53870967741935,1.49354838709677,1.44838709677419,1.41290322580645,1.38709677419355,1.36451612903226,1.35483870967742,1.34838709677419,1.34193548387097,1.34193548387097,1.34193548387097,1.34193548387097,1.34516129032258,1.34516129032258,1.34838709677419,1.35161290322581,1.35161290322581,1.34838709677419,1.34838709677419,1.35161290322581,1.35483870967742,1.35483870967742,1.35483870967742,1.35483870967742,1.35806451612903,1.36129032258065,1.36129032258065,1.36451612903226,1.36451612903226,1.36774193548387,1.36774193548387,1.36774193548387,1.37096774193548,1.36774193548387,1.36451612903226,1.37096774193548,1.3741935483871,1.37096774193548,1.36451612903226,1.36774193548387,1.37096774193548,1.3741935483871,1.37741935483871,1.37096774193548,1.37096774193548,1.37096774193548,1.37096774193548,1.3741935483871,1.37096774193548,1.3741935483871,1.3741935483871,1.3741935483871,1.3741935483871,1.3741935483871,1.3741935483871,1.3741935483871,1.3741935483871,1.37741935483871,1.39032258064516,1.40645161290323,1.40967741935484,1.41612903225806,1.43870967741935,1.45806451612903,1.46129032258065,1.44516129032258,1.42903225806452,1.41935483870968,1.4,1.3741935483871,1.35483870967742,1.35161290322581,1.35161290322581,1.34838709677419,1.34838709677419,1.34838709677419,1.34838709677419,1.35161290322581,1.34516129032258,1.3258064516129,1.32258064516129,1.49032258064516,1.80322580645161,1.98709677419355,1.81935483870968,1.38064516129032,1.15483870967742,1.29354838709677,1.40322580645161,1.37096774193548,1.35161290322581,1.35806451612903,1.36451612903226,1.37096774193548,1.3741935483871,1.38064516129032,1.38709677419355,1.39032258064516,1.39354838709677,1.40322580645161,1.40967741935484,1.42258064516129,1.43225806451613,1.43870967741935,1.45806451612903,1.47741935483871,1.49677419354839,1.51935483870968,1.54193548387097,1.56774193548387,1.58709677419355,1.59677419354839,1.59354838709677,1.57096774193548,1.53225806451613,1.48387096774194,1.43548387096774,1.40322580645161,1.37741935483871,1.36129032258065,1.35161290322581,1.34516129032258,1.34516129032258,1.34193548387097,1.34516129032258,1.34516129032258,1.34193548387097,1.34516129032258,1.34516129032258,1.34838709677419,1.35161290322581,1.35161290322581,1.35161290322581,1.35161290322581,1.35483870967742,1.35483870967742,1.35483870967742,1.35483870967742,1.35483870967742,1.35483870967742,1.35806451612903,1.36129032258065,1.36129032258065,1.36129032258065,1.36129032258065,1.36451612903226,1.36451612903226,1.36451612903226,1.36129032258065,1.36129032258065,1.36451612903226,1.36451612903226,1.36774193548387,1.36451612903226,1.36774193548387,1.36774193548387,1.36451612903226,1.36451612903226,1.36451612903226,1.36774193548387,1.36451612903226,1.36451612903226,1.37096774193548,1.37096774193548,1.37096774193548,1.37096774193548,1.37096774193548,1.37096774193548,1.37096774193548,1.3741935483871,1.3741935483871,1.37096774193548,1.37741935483871,1.39032258064516,1.40645161290323,1.41290322580645,1.41935483870968,1.44193548387097,1.45806451612903,1.46129032258065,1.44516129032258,1.42903225806452,1.41935483870968,1.39677419354839,1.37096774193548,1.35483870967742,1.35161290322581,1.35161290322581,1.34838709677419,1.35161290322581,1.34838709677419,1.34838709677419,1.35161290322581,1.34193548387097,1.31935483870968,1.34193548387097,1.54193548387097,1.84193548387097,1.96129032258065,1.71935483870968,1.29032258064516,1.14838709677419,1.31935483870968,1.4,1.36774193548387,1.35483870967742,1.35806451612903,1.36774193548387,1.3741935483871,1.38064516129032,1.38387096774194,1.38709677419355,1.39677419354839,1.40322580645161,1.40967741935484,1.41290322580645,1.42258064516129,1.43548387096774,1.44516129032258,1.46129032258065,1.48064516129032,1.50322580645161,1.5258064516129,1.54516129032258,1.56774193548387,1.58387096774194,1.59032258064516,1.58709677419355,1.56451612903226,1.51935483870968,1.4741935483871,1.42903225806452,1.39677419354839,1.3741935483871,1.36129032258065,1.34838709677419,1.34193548387097,1.34193548387097,1.34193548387097,1.34838709677419,1.34838709677419,1.34838709677419,1.34838709677419,1.34516129032258,1.34838709677419,1.34838709677419,1.34838709677419,1.34838709677419,1.35161290322581,1.35483870967742,1.35483870967742,1.35483870967742,1.36129032258065,1.36129032258065,1.36129032258065,1.36129032258065,1.36129032258065,1.36129032258065,1.36129032258065,1.36774193548387,1.36774193548387,1.36774193548387,1.37096774193548,1.37096774193548,1.37096774193548,1.36774193548387,1.36774193548387,1.37096774193548,1.36774193548387,1.36774193548387,1.37096774193548,1.37096774193548,1.3741935483871,1.3741935483871,1.3741935483871,1.37096774193548,1.36774193548387,1.3741935483871,1.3741935483871,1.3741935483871,1.3741935483871,1.3741935483871,1.37741935483871,1.37741935483871,1.38064516129032,1.37741935483871,1.39032258064516,1.40967741935484,1.41612903225806,1.42258064516129,1.43870967741935,1.45806451612903,1.46451612903226,1.44516129032258,1.42903225806452,1.41935483870968,1.40322580645161,1.38064516129032,1.36129032258065,1.35483870967742,1.35161290322581,1.35161290322581,1.35483870967742,1.35161290322581,1.35161290322581,1.34838709677419,1.34838709677419,1.32903225806452,1.34838709677419,1.54516129032258,1.81612903225806,1.90967741935484,1.68387096774194,1.28387096774194,1.15483870967742,1.31935483870968,1.4,1.36774193548387,1.35483870967742,1.36774193548387,1.3741935483871,1.37741935483871,1.38387096774194,1.38387096774194,1.39032258064516,1.39677419354839,1.4,1.40967741935484,1.41612903225806,1.4258064516129,1.43548387096774,1.44516129032258,1.45806451612903,1.47741935483871,1.5,1.52258064516129,1.54516129032258,1.56774193548387,1.58064516129032,1.59354838709677,1.58387096774194,1.55806451612903,1.51612903225806,1.47096774193548,1.43225806451613,1.4,1.3741935483871,1.36129032258065,1.34838709677419,1.34838709677419,1.34838709677419,1.34516129032258,1.34193548387097,1.33870967741935,1.34193548387097,1.34516129032258,1.34516129032258,1.34838709677419,1.34516129032258,1.34516129032258,1.34838709677419,1.35161290322581,1.35483870967742,1.35161290322581,1.35161290322581,1.35483870967742,1.35806451612903,1.36129032258065,1.36129032258065,1.36451612903226,1.36451612903226,1.36451612903226,1.36774193548387,1.36774193548387,1.36774193548387,1.36774193548387,1.36451612903226,1.36774193548387,1.37096774193548,1.36774193548387,1.36451612903226,1.36774193548387,1.37096774193548,1.36774193548387,1.36774193548387,1.37096774193548,1.36774193548387,1.36774193548387,1.36774193548387,1.37096774193548,1.3741935483871,1.37096774193548,1.37096774193548,1.37096774193548,1.3741935483871,1.3741935483871,1.37096774193548,1.3741935483871,1.3741935483871,1.37741935483871,1.37741935483871,1.39032258064516,1.40645161290323,1.40645161290323,1.41935483870968,1.44193548387097,1.46129032258065,1.45806451612903,1.43548387096774,1.4258064516129,1.41290322580645,1.38709677419355,1.36774193548387,1.35161290322581,1.34838709677419,1.34838709677419,1.34193548387097,1.34516129032258,1.34193548387097,1.34516129032258,1.34516129032258,1.33548387096774,1.31290322580645,1.40322580645161,1.6741935483871,1.93548387096774,1.90645161290323,1.53548387096774,1.18387096774194,1.21612903225806,1.37741935483871,1.38709677419355,1.35806451612903,1.36129032258065,1.37096774193548,1.38709677419355,1.37741935483871,1.36451612903226,1.37741935483871,1.38709677419355,1.39032258064516,1.39677419354839,1.40645161290323,1.41290322580645,1.4258064516129,1.43870967741935,1.45161290322581,1.46774193548387,1.48709677419355,1.51290322580645,1.53548387096774,1.56129032258065,1.58387096774194,1.59677419354839,1.59677419354839,1.58709677419355,1.55483870967742,1.50645161290323,1.45806451612903,1.41935483870968,1.38709677419355,1.36774193548387,1.36129032258065,1.35161290322581,1.34838709677419,1.34193548387097,1.34516129032258,1.34516129032258,1.34516129032258,1.34838709677419,1.34838709677419,1.34838709677419,1.35161290322581,1.34838709677419,1.35161290322581,1.35161290322581,1.35161290322581,1.35483870967742,1.35161290322581,1.35483870967742,1.35806451612903,1.36129032258065,1.36129032258065,1.36129032258065,1.36451612903226,1.36129032258065,1.36451612903226,1.37096774193548,1.37096774193548,1.36774193548387,1.36774193548387,1.36774193548387,1.36774193548387,1.36774193548387,1.37096774193548,1.36774193548387,1.36451612903226,1.36451612903226,1.36129032258065,1.36451612903226,1.36774193548387,1.36774193548387,1.37096774193548,1.36774193548387,1.37096774193548,1.37096774193548,1.37096774193548,1.37096774193548,1.36774193548387,1.37096774193548,1.37096774193548,1.37096774193548,1.37096774193548,1.37096774193548,1.37741935483871,1.38709677419355,1.40322580645161,1.41612903225806,1.41612903225806,1.43225806451613,1.45161290322581,1.46451612903226,1.45483870967742,1.43225806451613,1.42258064516129,1.41290322580645,1.38709677419355,1.36451612903226,1.35161290322581,1.35161290322581,1.35483870967742,1.35483870967742,1.35483870967742,1.34516129032258,1.34516129032258,1.35161290322581,1.33870967741935,1.3258064516129,1.45806451612903,1.75483870967742,1.96129032258065,1.84193548387097,1.42903225806452,1.14838709677419,1.25806451612903,1.39677419354839,1.38064516129032,1.35483870967742,1.36129032258065,1.37096774193548,1.37741935483871,1.38064516129032,1.38387096774194,1.38709677419355,1.39677419354839,1.40322580645161,1.40645161290323,1.41290322580645,1.41935483870968,1.4258064516129,1.43870967741935,1.45806451612903,1.47741935483871,1.49354838709677,1.51612903225806,1.53870967741935,1.56129032258065,1.58064516129032,1.59032258064516,1.59354838709677,1.57741935483871,1.53548387096774,1.49032258064516,1.44516129032258,1.40967741935484,1.38387096774194,1.36774193548387,1.35483870967742,1.34516129032258,1.34193548387097,1.33870967741935,1.33870967741935,1.33870967741935,1.34193548387097,1.34193548387097,1.34193548387097,1.34516129032258,1.34838709677419,1.34516129032258,1.34838709677419,1.35161290322581,1.35161290322581,1.35483870967742,1.35161290322581,1.35161290322581,1.35483870967742,1.35483870967742,1.35806451612903,1.35483870967742,1.35806451612903,1.36129032258065,1.36451612903226,1.36451612903226,1.36451612903226,1.36774193548387,1.36451612903226,1.36451612903226,1.36451612903226,1.36129032258065,1.36451612903226,1.36451612903226,1.36451612903226,1.36774193548387,1.36451612903226,1.36129032258065,1.36451612903226,1.36451612903226,1.36774193548387,1.36774193548387,1.36774193548387,1.36774193548387,1.36774193548387,1.36774193548387,1.36774193548387,1.36774193548387,1.36774193548387,1.37096774193548,1.38387096774194,1.39354838709677,1.40967741935484,1.41290322580645,1.41935483870968,1.44516129032258,1.46129032258065,1.45161290322581,1.43225806451613,1.42258064516129,1.40967741935484,1.38387096774194,1.36129032258065,1.35161290322581,1.35161290322581,1.35161290322581,1.34516129032258,1.34516129032258,1.34516129032258,1.34838709677419,1.35161290322581,1.33870967741935,1.32903225806452,1.44838709677419,1.70967741935484,1.88709677419355,1.78387096774194,1.41290322580645,1.14516129032258,1.23870967741935,1.38709677419355,1.38064516129032,1.35483870967742,1.35806451612903,1.36451612903226,1.3741935483871,1.38064516129032,1.38387096774194,1.38709677419355,1.39032258064516,1.4,1.40322580645161,1.40967741935484,1.41935483870968,1.4258064516129,1.43870967741935,1.45483870967742,1.47741935483871,1.49354838709677,1.51290322580645,1.53870967741935,1.56129032258065,1.57741935483871,1.58709677419355,1.58709677419355,1.57096774193548,1.53548387096774,1.49032258064516,1.44838709677419,1.40967741935484,1.38387096774194,1.36451612903226,1.35806451612903,1.34838709677419,1.34516129032258,1.34516129032258,1.34193548387097,1.34516129032258,1.34516129032258,1.34516129032258,1.34838709677419,1.34516129032258,1.35161290322581,1.35483870967742,1.35161290322581,1.35483870967742,1.35483870967742,1.35806451612903,1.36129032258065,1.36451612903226,1.36774193548387,1.36774193548387,1.36774193548387,1.37096774193548,1.37741935483871,1.37741935483871,1.3741935483871,1.3741935483871,1.37741935483871,1.37741935483871,1.38064516129032,1.38064516129032,1.38064516129032,1.38064516129032,1.38064516129032,1.38387096774194,1.38064516129032,1.38064516129032,1.38709677419355,1.38709677419355,1.38709677419355,1.38387096774194,1.38387096774194,1.38709677419355,1.38709677419355,1.39032258064516,1.39032258064516,1.39032258064516,1.39032258064516,1.39354838709677,1.4,1.40645161290323,1.41935483870968,1.42903225806452,1.43225806451613,1.44838709677419,1.4741935483871,1.48709677419355,1.4741935483871,1.45806451612903,1.45161290322581,1.43225806451613,1.40967741935484,1.38709677419355,1.38064516129032,1.38387096774194,1.38064516129032,1.38064516129032,1.37741935483871,1.38064516129032
1.36451612903226,1.36451612903226,1.36451612903226,1.36451612903226,1.36774193548387,1.36451612903226,1.36451612903226,1.36774193548387,1.36774193548387,1.36774193548387,1.37096774193548,1.36774193548387,1.36774193548387,1.36451612903226,1.35806451612903,1.36129032258065,1.37096774193548,1.3741935483871,1.37741935483871,1.38064516129032,1.38709677419355,1.39032258064516,1.38709677419355,1.38709677419355,1.39677419354839,1.41935483870968,1.43225806451613,1.43225806451613,1.41935483870968,1.4,1.37741935483871,1.36451612903226,1.35806451612903,1.35806451612903,1.35806451612903,1.35483870967742,1.35161290322581,1.35161290322581,1.35483870967742,1.36129032258065,1.35806451612903,1.34193548387097,1.41935483870968,1.65161290322581,1.85483870967742,1.78709677419355,1.45483870967742,1.18387096774194,1.23870967741935,1.38709677419355,1.39677419354839,1.36451612903226,1.37096774193548,1.37741935483871,1.38387096774194,1.39354838709677,1.39354838709677,1.39354838709677,1.4,1.40967741935484,1.41290322580645,1.41935483870968,1.4258064516129,1.43225806451613,1.44516129032258,1.45806451612903,1.47741935483871,1.5,1.51935483870968,1.53870967741935,1.55483870967742,1.56451612903226,1.56129032258065,1.54193548387097,1.50967741935484,1.47096774193548,1.43548387096774,1.40645161290323,1.38387096774194,1.36774193548387,1.35806451612903,1.35483870967742,1.35161290322581,1.34516129032258,1.34838709677419,1.36129032258065,1.36129032258065,1.35806451612903,1.35806451612903,1.35483870967742,1.35161290322581,1.35483870967742,1.35806451612903,1.35161290322581,1.35161290322581,1.36129032258065,1.36774193548387,1.36774193548387,1.37096774193548,1.37096774193548,1.36774193548387,1.36774193548387,1.37096774193548,1.37096774193548,1.36774193548387,1.36451612903226,1.36129032258065,1.37096774193548,1.3741935483871,1.37096774193548,1.37096774193548,1.37096774193548,1.36774193548387,1.36774193548387,1.37096774193548,1.36774193548387,1.36774193548387,1.3741935483871,1.38387096774194,1.38709677419355,1.38387096774194,1.38064516129032,1.38709677419355,1.40645161290323,1.41935483870968,1.41935483870968,1.42258064516129,1.41935483870968,1.39677419354839,1.37096774193548,1.35806451612903,1.35806451612903,1.36129032258065,1.35806451612903,1.35161290322581,1.35161290322581,1.36129032258065,1.36451612903226,1.35483870967742,1.34516129032258,1.43225806451613,1.64193548387097,1.79677419354839,1.72903225806452,1.42903225806452,1.19032258064516,1.24838709677419,1.38387096774194,1.39677419354839,1.37741935483871,1.3741935483871,1.38064516129032,1.38709677419355,1.38709677419355,1.39032258064516,1.39032258064516,1.4,1.40967741935484,1.40645161290323,1.40967741935484,1.42258064516129,1.43225806451613,1.44516129032258,1.45483870967742,1.46774193548387,1.49354838709677,1.51935483870968,1.5258064516129,1.54193548387097,1.55806451612903,1.55161290322581,1.53548387096774,1.50967741935484,1.47096774193548,1.42903225806452,1.39677419354839,1.37741935483871,1.37096774193548,1.36129032258065,1.35806451612903,1.35161290322581,1.35161290322581,1.35483870967742,1.35161290322581,1.35483870967742,1.35483870967742,1.35483870967742,1.35806451612903,1.35806451612903,1.35483870967742,1.35483870967742,1.35483870967742,1.35806451612903,1.35806451612903,1.36451612903226,1.36774193548387,1.36451612903226,1.36774193548387,1.37096774193548,1.3741935483871,1.37096774193548,1.37096774193548,1.3741935483871,1.3741935483871,1.36774193548387,1.37096774193548,1.3741935483871,1.37096774193548,1.37096774193548,1.3741935483871,1.3741935483871,1.37096774193548,1.37096774193548,1.36774193548387,1.36774193548387,1.3741935483871,1.37741935483871,1.37741935483871,1.38387096774194,1.38709677419355,1.38709677419355,1.39032258064516,1.4,1.41290322580645,1.4258064516129,1.42903225806452,1.42258064516129,1.40645161290323,1.37096774193548,1.35806451612903,1.36451612903226,1.36129032258065,1.35806451612903,1.36129032258065,1.36451612903226,1.36129032258065,1.36129032258065,1.36451612903226,1.34516129032258,1.34193548387097,1.48387096774194,1.74516129032258,1.88064516129032,1.71290322580645,1.35483870967742,1.19032258064516,1.31612903225806,1.40322580645161,1.37741935483871,1.36451612903226,1.37096774193548,1.38064516129032,1.38387096774194,1.38709677419355,1.39032258064516,1.39677419354839,1.4,1.40645161290323,1.40967741935484,1.41290322580645,1.42258064516129,1.43548387096774,1.45161290322581,1.45806451612903,1.4741935483871,1.5,1.51612903225806,1.54193548387097,1.55806451612903,1.55806451612903,1.55806451612903,1.54193548387097,1.50322580645161,1.45806451612903,1.42903225806452,1.40645161290323,1.38387096774194,1.3741935483871,1.35806451612903,1.35161290322581,1.34838709677419,1.34838709677419,1.35483870967742,1.35806451612903,1.35483870967742,1.35483870967742,1.36129032258065,1.36451612903226,1.36129032258065,1.35806451612903,1.35806451612903,1.36129032258065,1.36129032258065,1.36129032258065,1.36129032258065,1.36451612903226,1.37096774193548,1.36774193548387,1.36451612903226,1.37096774193548,1.37096774193548,1.36451612903226,1.36129032258065,1.36774193548387,1.3741935483871,1.36774193548387,1.36451612903226,1.36451612903226,1.36451612903226,1.36451612903226,1.36774193548387,1.36774193548387,1.36129032258065,1.36451612903226,1.3741935483871,1.37096774193548,1.36451612903226,1.36451612903226,1.36774193548387,1.3741935483871,1.3741935483871,1.37096774193548,1.36774193548387,1.36774193548387,1.37096774193548,1.36774193548387,1.36774193548387,1.38064516129032,1.38709677419355,1.39032258064516,1.38709677419355,1.38709677419355,1.39677419354839,1.41290322580645,1.43548387096774,1.44193548387097,1.43225806451613,1.42258064516129,1.40967741935484,1.39032258064516,1.3741935483871,1.36451612903226,1.36774193548387,1.36451612903226,1.36129032258065,1.35483870967742,1.35483870967742,1.36129032258065,1.35806451612903,1.34838709677419,1.33870967741935,1.42258064516129,1.66774193548387,1.89032258064516,1.84193548387097,1.49677419354839,1.20322580645161,1.25161290322581,1.39677419354839,1.4,1.36129032258065,1.36774193548387,1.39032258064516,1.39032258064516,1.38709677419355,1.39032258064516,1.4,1.40645161290323,1.40322580645161,1.40645161290323,1.41935483870968,1.43225806451613,1.43870967741935,1.44516129032258,1.46129032258065,1.47741935483871,1.49677419354839,1.5258064516129,1.54516129032258,1.55806451612903,1.5741935483871,1.57741935483871,1.56129032258065,1.5258064516129,1.48387096774194,1.44838709677419,1.41612903225806,1.39032258064516,1.37096774193548,1.36451612903226,1.35806451612903,1.35806451612903,1.35806451612903,1.35161290322581,1.35483870967742,1.35806451612903,1.35483870967742,1.36129032258065,1.36451612903226,1.35806451612903,1.35806451612903,1.36451612903226,1.36774193548387,1.36129032258065,1.36129032258065,1.36451612903226,1.36451612903226,1.36774193548387,1.36774193548387,1.36451612903226,1.36451612903226,1.37096774193548,1.36774193548387,1.36129032258065,1.36774193548387,1.37096774193548,1.36451612903226,1.36451612903226,1.36451612903226,1.36451612903226,1.36451612903226,1.36451612903226,1.36774193548387,1.36129032258065,1.36451612903226,1.36774193548387,1.36129032258065,1.36451612903226,1.36774193548387,1.36774193548387,1.36774193548387,1.37096774193548,1.37096774193548,1.37096774193548,1.37096774193548,1.37096774193548,1.37096774193548,1.36774193548387,1.36451612903226,1.3741935483871,1.38064516129032,1.38387096774194,1.39032258064516,1.38709677419355,1.38709677419355,1.39032258064516,1.39677419354839,1.41290322580645,1.43548387096774,1.44193548387097,1.42258064516129,1.40645161290323,1.40645161290323,1.39354838709677,1.37096774193548,1.36129032258065,1.36129032258065,1.36129032258065,1.36129032258065,1.36129032258065,1.36129032258065,1.36129032258065,1.35806451612903,1.34516129032258,1.35806451612903,1.49032258064516,1.7258064516129,1.84838709677419,1.7,1.35483870967742,1.17741935483871,1.29677419354839,1.40322580645161,1.38709677419355,1.37096774193548,1.37741935483871,1.39032258064516,1.39677419354839,1.39032258064516,1.39677419354839,1.40645161290323,1.40645161290323,1.40645161290323,1.41612903225806,1.4258064516129,1.42903225806452,1.43548387096774,1.45483870967742,1.47096774193548,1.48709677419355,1.5,1.51935483870968,1.54193548387097,1.55806451612903,1.56451612903226,1.55483870967742,1.53225806451613,1.50645161290323,1.47096774193548,1.43548387096774,1.40322580645161,1.38064516129032,1.37096774193548,1.36451612903226,1.36129032258065,1.35806451612903,1.35161290322581,1.35161290322581,1.36129032258065,1.35806451612903,1.35806451612903,1.36129032258065,1.35806451612903,1.36129032258065,1.36129032258065,1.36451612903226,1.36129032258065,1.36129032258065,1.36774193548387,1.36774193548387,1.36451612903226,1.37096774193548,1.3741935483871,1.37096774193548,1.37096774193548,1.3741935483871,1.37096774193548,1.37096774193548,1.36774193548387,1.37096774193548,1.36774193548387,1.36451612903226,1.36774193548387,1.3741935483871,1.37096774193548,1.36774193548387,1.37096774193548,1.36774193548387,1.36129032258065,1.36129032258065,1.37096774193548,1.3741935483871,1.37096774193548,1.36774193548387,1.36451612903226,1.37096774193548,1.37096774193548,1.3741935483871,1.3741935483871,1.36774193548387,1.37096774193548,1.38387096774194,1.39032258064516,1.38709677419355,1.38387096774194,1.39032258064516,1.4,1.40967741935484,1.42258064516129,1.4258064516129,1.4258064516129,1.42258064516129,1.40645161290323,1.37741935483871,1.36451612903226,1.36129032258065,1.36129032258065,1.36129032258065,1.36451612903226,1.36451612903226,1.35806451612903,1.35806451612903,1.36129032258065,1.35161290322581,1.36129032258065,1.49677419354839,1.73225806451613,1.84516129032258,1.68387096774194,1.34193548387097,1.18709677419355,1.32258064516129,1.41612903225806,1.38387096774194,1.37096774193548,1.38064516129032,1.39032258064516,1.39354838709677,1.39677419354839,1.39677419354839,1.39677419354839,1.40645161290323,1.41612903225806,1.41935483870968,1.4258064516129,1.43548387096774,1.44516129032258,1.45161290322581,1.46451612903226,1.48709677419355,1.50322580645161,1.51935483870968,1.54838709677419,1.56129032258065,1.56774193548387,1.56451612903226,1.54516129032258,1.50967741935484,1.46451612903226,1.42903225806452,1.40645161290323,1.38064516129032,1.36451612903226,1.35806451612903,1.35806451612903,1.35161290322581,1.35161290322581,1.35161290322581,1.35161290322581,1.34838709677419,1.34838709677419,1.34838709677419,1.35483870967742,1.35483870967742,1.35483870967742,1.35161290322581,1.35806451612903,1.36129032258065,1.35806451612903,1.35806451612903,1.35806451612903,1.36451612903226,1.36774193548387,1.36451612903226,1.36774193548387,1.36774193548387,1.36774193548387,1.3741935483871,1.37096774193548,1.36774193548387,1.37096774193548,1.3741935483871,1.37096774193548,1.36451612903226,1.36451612903226,1.3741935483871,1.3741935483871,1.36451612903226,1.36129032258065,1.37096774193548,1.3741935483871,1.37096774193548,1.3741935483871,1.36774193548387,1.36451612903226,1.36774193548387,1.3741935483871,1.3741935483871,1.37096774193548,1.3741935483871,1.3741935483871,1.3741935483871,1.37741935483871,1.38709677419355,1.39032258064516,1.38387096774194,1.38387096774194,1.4,1.41612903225806,1.42903225806452,1.43870967741935,1.43870967741935,1.42258064516129,1.40322580645161,1.38064516129032,1.36451612903226,1.36451612903226,1.36129032258065,1.35806451612903,1.36451612903226,1.36451612903226,1.36129032258065,1.36451612903226,1.36129032258065,1.34516129032258,1.35161290322581,1.5,1.76774193548387,1.9,1.7258064516129,1.35483870967742,1.19032258064516,1.32258064516129,1.40967741935484,1.38387096774194,1.36774193548387,1.3741935483871,1.38064516129032,1.38387096774194,1.38709677419355,1.38709677419355,1.39677419354839,1.40645161290323,1.40322580645161,1.40967741935484,1.4258064516129,1.43225806451613,1.43870967741935,1.44838709677419,1.46451612903226,1.48064516129032,1.5,1.52258064516129,1.54193548387097,1.55806451612903,1.57096774193548,1.56774193548387,1.54516129032258,1.50645161290323,1.47096774193548,1.43548387096774,1.40322580645161,1.38387096774194,1.36451612903226,1.35806451612903,1.35161290322581,1.34838709677419,1.34838709677419,1.34516129032258,1.34838709677419,1.35161290322581,1.34838709677419,1.34838709677419,1.35161290322581,1.35161290322581,1.35161290322581,1.35161290322581,1.35483870967742,1.35483870967742,1.35806451612903,1.36129032258065,1.35806451612903,1.35806451612903,1.35161290322581,1.35483870967742,1.3741935483871,1.37741935483871,1.37096774193548,1.3741935483871,1.37096774193548,1.36774193548387,1.36774193548387,1.36774193548387,1.36774193548387,1.36774193548387,1.36451612903226,1.35806451612903,1.36774193548387,1.3741935483871,1.3741935483871,1.36774193548387,1.36451612903226,1.36774193548387,1.36774193548387,1.36774193548387,1.37096774193548,1.36774193548387,1.36774193548387,1.36774193548387,1.37741935483871,1.39354838709677,1.39354838709677,1.38709677419355,1.39032258064516,1.39677419354839,1.41612903225806,1.43548387096774,1.44193548387097,1.4258064516129,1.41290322580645,1.39677419354839,1.3741935483871,1.35483870967742,1.36129032258065,1.37096774193548,1.36129032258065,1.35806451612903,1.36451612903226,1.35806451612903,1.35806451612903,1.36129032258065,1.35161290322581,1.3741935483871,1.54193548387097,1.76451612903226,1.81290322580645,1.59677419354839,1.27096774193548,1.19032258064516,1.34193548387097,1.40967741935484,1.38064516129032,1.37096774193548,1.38064516129032,1.39032258064516,1.39354838709677,1.39354838709677,1.4,1.4,1.40645161290323,1.41290322580645,1.41612903225806,1.42903225806452,1.43870967741935,1.44516129032258,1.45806451612903,1.47096774193548,1.48709677419355,1.50645161290323,1.5258064516129,1.53870967741935,1.55161290322581,1.56129032258065,1.55161290322581,1.5258064516129,1.49354838709677,1.45806451612903,1.4258064516129,1.39677419354839,1.37741935483871,1.36774193548387,1.35483870967742,1.35161290322581,1.35161290322581,1.35483870967742,1.35483870967742,1.34838709677419,1.34838709677419,1.35161290322581,1.35806451612903,1.35806451612903,1.35483870967742,1.36451612903226,1.36774193548387,1.36129032258065,1.36129032258065,1.36129032258065,1.36129032258065,1.36451612903226,1.36774193548387,1.36774193548387,1.36451612903226,1.36451612903226,1.35806451612903,1.36451612903226,1.38064516129032,1.38064516129032,1.37096774193548,1.36774193548387,1.37096774193548,1.3741935483871,1.37096774193548,1.37096774193548,1.36774193548387,1.36451612903226,1.36774193548387,1.37096774193548,1.37741935483871,1.37741935483871,1.37741935483871,1.38387096774194,1.38709677419355,1.38387096774194,1.38387096774194,1.39032258064516,1.40967741935484,1.42903225806452,1.42903225806452,1.41612903225806,1.41290322580645,1.39677419354839,1.37096774193548,1.36451612903226,1.36451612903226,1.36129032258065,1.35806451612903,1.35806451612903,1.36129032258065,1.35483870967742,1.35806451612903,1.35161290322581,1.33870967741935,1.43225806451613,1.65483870967742,1.82903225806452,1.76129032258065,1.44516129032258,1.18709677419355,1.25806451612903,1.39677419354839,1.39354838709677,1.36451612903226,1.37096774193548,1.38064516129032,1.38387096774194,1.38709677419355,1.38709677419355,1.39354838709677,1.40322580645161,1.40645161290323,1.40645161290323,1.41290322580645,1.41935483870968,1.4258064516129,1.44516129032258,1.46774193548387,1.4741935483871,1.49032258064516,1.50967741935484,1.53225806451613,1.55161290322581,1.55806451612903,1.55483870967742,1.53870967741935,1.51612903225806,1.48064516129032,1.44193548387097,1.40645161290323,1.38064516129032,1.37096774193548,1.36129032258065,1.35483870967742,1.34838709677419,1.34516129032258,1.34838709677419,1.34838709677419,1.35161290322581,1.36129032258065,1.36129032258065,1.35161290322581,1.35161290322581,1.35161290322581,1.35483870967742,1.35161290322581,1.35806451612903,1.36129032258065,1.35483870967742,1.36129032258065,1.36774193548387,1.36774193548387,1.36774193548387,1.36774193548387,1.36451612903226,1.35806451612903,1.36774193548387,1.36774193548387,1.36774193548387,1.37741935483871,1.3741935483871,1.36451612903226,1.36451612903226,1.36774193548387,1.36451612903226,1.35806451612903,1.36774193548387,1.3741935483871,1.36774193548387,1.36451612903226,1.3741935483871,1.38387096774194,1.38709677419355,1.37741935483871,1.37741935483871,1.38709677419355,1.39677419354839,1.40967741935484,1.42903225806452,1.43548387096774,1.41935483870968,1.4,1.3741935483871,1.35806451612903,1.36129032258065,1.36451612903226,1.35806451612903,1.35161290322581,1.35483870967742,1.36129032258065,1.35806451612903,1.35806451612903,1.35161290322581,1.34193548387097,1.45806451612903,1.70322580645161,1.87096774193548,1.75483870967742,1.4,1.18064516129032,1.28064516129032,1.39354838709677,1.38709677419355,1.36774193548387,1.37096774193548,1.37741935483871,1.38064516129032,1.38387096774194,1.39032258064516,1.39677419354839,1.39677419354839,1.40645161290323,1.41290322580645,1.41290322580645,1.4258064516129,1.43548387096774,1.44193548387097,1.45483870967742,1.4741935483871,1.50322580645161,1.52258064516129,1.53870967741935,1.54838709677419,1.55806451612903,1.56129032258065,1.54516129032258,1.51290322580645,1.46774193548387,1.42903225806452,1.4,1.37741935483871,1.36129032258065,1.35161290322581,1.34838709677419,1.34516129032258,1.34516129032258,1.34838709677419,1.34838709677419,1.34838709677419,1.34838709677419,1.34193548387097,1.34516129032258,1.35483870967742,1.35161290322581,1.35161290322581,1.35806451612903,1.36129032258065,1.36129032258065,1.36129032258065,1.36451612903226,1.36129032258065,1.36129032258065,1.36774193548387,1.36774193548387,1.36129032258065,1.36451612903226,1.3741935483871,1.3741935483871,1.36774193548387,1.37096774193548,1.37096774193548,1.37096774193548,1.37096774193548,1.36774193548387,1.36774193548387,1.37096774193548,1.37096774193548,1.36774193548387,1.37096774193548,1.38064516129032,1.3741935483871,1.3741935483871,1.37741935483871,1.3741935483871,1.37741935483871,1.38387096774194,1.38064516129032,1.3741935483871,1.3741935483871,1.38709677419355,1.40322580645161,1.4,1.40967741935484,1.43225806451613,1.43548387096774,1.41935483870968,1.39354838709677,1.3741935483871,1.36129032258065,1.36451612903226,1.36774193548387,1.37096774193548,1.36774193548387,1.36129032258065,1.35806451612903,1.36774193548387,1.36774193548387,1.35806451612903,1.47096774193548,1.72258064516129,1.88387096774194,1.76129032258065,1.4,1.18387096774194,1.29354838709677,1.40645161290323,1.39677419354839,1.37741935483871,1.37741935483871,1.37741935483871,1.39032258064516,1.40322580645161,1.40322580645161,1.40322580645161,1.40967741935484,1.41290322580645,1.41612903225806,1.42258064516129,1.42903225806452,1.43870967741935,1.44838709677419,1.46774193548387,1.48387096774194,1.50322580645161,1.52258064516129,1.53548387096774,1.55806451612903,1.5741935483871,1.57096774193548,1.54838709677419,1.51612903225806,1.4741935483871,1.43225806451613,1.40322580645161,1.39032258064516,1.37096774193548,1.35483870967742,1.35161290322581,1.35483870967742,1.36451612903226,1.36451612903226,1.36129032258065,1.35806451612903,1.35483870967742,1.35483870967742,1.35483870967742,1.35806451612903,1.35483870967742,1.35806451612903,1.36451612903226,1.35483870967742,1.35161290322581,1.36451612903226,1.37096774193548,1.36451612903226,1.36774193548387,1.37096774193548,1.37096774193548,1.37096774193548,1.37096774193548,1.36774193548387,1.36774193548387,1.36774193548387,1.36451612903226,1.36451612903226,1.36774193548387,1.3741935483871,1.3741935483871,1.36774193548387,1.37096774193548,1.37096774193548,1.37096774193548,1.36774193548387,1.36451612903226,1.36774193548387,1.36774193548387,1.36774193548387,1.36774193548387,1.37096774193548,1.37741935483871,1.3741935483871,1.37741935483871,1.37741935483871,1.36774193548387,1.3741935483871,1.38709677419355,1.39032258064516,1.39677419354839,1.41935483870968,1.4258064516129,1.41290322580645,1.39032258064516,1.36774193548387,1.35483870967742,1.35806451612903,1.35483870967742,1.35483870967742,1.35806451612903,1.35483870967742,1.35806451612903,1.35806451612903,1.35483870967742,1.33870967741935,1.38709677419355,1.59354838709677,1.80322580645161,1.79354838709677,1.51612903225806,1.21290322580645,1.21612903225806,1.36774193548387,1.39032258064516,1.35806451612903,1.36129032258065,1.3741935483871,1.3741935483871,1.37741935483871,1.38387096774194,1.38387096774194,1.38709677419355,1.39677419354839,1.4,1.40322580645161,1.40967741935484,1.42258064516129,1.42903225806452,1.43548387096774,1.45161290322581,1.4741935483871,1.5,1.51935483870968,1.53548387096774,1.55161290322581,1.55161290322581,1.53870967741935,1.51290322580645,1.47096774193548,1.42903225806452,1.39677419354839,1.37741935483871,1.35161290322581,1.34193548387097,1.34516129032258,1.34193548387097,1.33870967741935,1.33548387096774,1.33548387096774,1.34193548387097,1.34193548387097,1.34193548387097,1.34193548387097,1.34516129032258
1.37096774193548,1.36774193548387,1.36451612903226,1.36774193548387,1.36774193548387,1.37096774193548,1.37096774193548,1.37096774193548,1.37096774193548,1.36451612903226,1.36451612903226,1.37096774193548,1.3741935483871,1.36774193548387,1.36129032258065,1.37096774193548,1.3741935483871,1.37096774193548,1.37096774193548,1.37096774193548,1.36774193548387,1.37096774193548,1.37741935483871,1.3741935483871,1.37096774193548,1.38064516129032,1.38709677419355,1.38709677419355,1.38064516129032,1.38387096774194,1.39677419354839,1.41612903225806,1.42903225806452,1.43225806451613,1.42903225806452,1.41935483870968,1.39677419354839,1.3741935483871,1.36451612903226,1.36451612903226,1.37096774193548,1.36774193548387,1.36451612903226,1.36129032258065,1.36451612903226,1.36774193548387,1.36129032258065,1.35161290322581,1.41612903225806,1.61612903225806,1.80322580645161,1.76774193548387,1.48387096774194,1.20322580645161,1.22258064516129,1.37741935483871,1.40645161290323,1.38064516129032,1.38064516129032,1.38709677419355,1.39354838709677,1.39354838709677,1.4,1.4,1.4,1.40967741935484,1.41612903225806,1.41935483870968,1.4258064516129,1.43548387096774,1.45161290322581,1.46774193548387,1.48064516129032,1.49032258064516,1.50645161290323,1.53548387096774,1.54838709677419,1.55161290322581,1.55161290322581,1.54193548387097,1.51612903225806,1.47741935483871,1.44193548387097,1.40645161290323,1.38387096774194,1.3741935483871,1.36774193548387,1.36129032258065,1.35161290322581,1.34838709677419,1.35483870967742,1.35483870967742,1.35483870967742,1.35483870967742,1.35483870967742,1.35806451612903,1.35483870967742,1.35806451612903,1.36129032258065,1.35806451612903,1.35806451612903,1.35806451612903,1.36129032258065,1.36451612903226,1.36774193548387,1.36774193548387,1.36774193548387,1.37096774193548,1.37096774193548,1.37096774193548,1.37096774193548,1.36774193548387,1.36774193548387,1.36774193548387,1.36774193548387,1.36451612903226,1.36129032258065,1.36129032258065,1.36451612903226,1.37096774193548,1.37741935483871,1.3741935483871,1.37741935483871,1.38387096774194,1.37741935483871,1.38064516129032,1.38387096774194,1.38387096774194,1.39032258064516,1.41935483870968,1.43548387096774,1.4258064516129,1.40967741935484,1.39032258064516,1.37096774193548,1.36451612903226,1.36129032258065,1.36129032258065,1.35806451612903,1.35483870967742,1.35483870967742,1.35483870967742,1.35806451612903,1.36129032258065,1.34838709677419,1.39032258064516,1.56774193548387,1.75483870967742,1.75806451612903,1.51935483870968,1.23225806451613,1.20967741935484,1.35806451612903,1.39677419354839,1.36774193548387,1.37096774193548,1.37741935483871,1.38387096774194,1.39032258064516,1.38709677419355,1.39354838709677,1.40322580645161,1.40967741935484,1.40967741935484,1.40967741935484,1.42258064516129,1.43548387096774,1.44193548387097,1.45161290322581,1.46451612903226,1.48387096774194,1.5,1.52258064516129,1.54193548387097,1.55161290322581,1.55806451612903,1.54838709677419,1.52258064516129,1.48064516129032,1.44193548387097,1.41290322580645,1.38709677419355,1.37096774193548,1.36451612903226,1.36129032258065,1.35483870967742,1.35161290322581,1.35806451612903,1.35483870967742,1.35483870967742,1.35806451612903,1.35806451612903,1.35483870967742,1.35806451612903,1.36129032258065,1.36451612903226,1.36451612903226,1.36451612903226,1.36451612903226,1.36451612903226,1.36451612903226,1.36451612903226,1.36774193548387,1.36774193548387,1.36129032258065,1.36451612903226,1.3741935483871,1.38064516129032,1.3741935483871,1.3741935483871,1.3741935483871,1.37096774193548,1.37096774193548,1.3741935483871,1.37096774193548,1.36774193548387,1.36451612903226,1.37096774193548,1.37741935483871,1.37096774193548,1.38064516129032,1.38387096774194,1.38709677419355,1.38387096774194,1.38709677419355,1.39677419354839,1.40322580645161,1.41935483870968,1.43225806451613,1.4258064516129,1.41290322580645,1.39677419354839,1.37741935483871,1.36129032258065,1.36129032258065,1.36774193548387,1.36451612903226,1.36129032258065,1.35806451612903,1.36129032258065,1.35806451612903,1.34838709677419,1.33870967741935,1.36774193548387,1.53548387096774,1.77741935483871,1.84838709677419,1.63225806451613,1.29032258064516,1.19354838709677,1.33870967741935,1.39677419354839,1.35806451612903,1.35806451612903,1.38064516129032,1.39032258064516,1.39354838709677,1.39677419354839,1.39677419354839,1.39677419354839,1.4,1.40322580645161,1.40322580645161,1.41290322580645,1.42258064516129,1.43225806451613,1.44516129032258,1.45483870967742,1.4741935483871,1.49354838709677,1.51935483870968,1.54193548387097,1.55483870967742,1.56451612903226,1.55483870967742,1.52903225806452,1.49032258064516,1.45161290322581,1.41935483870968,1.39032258064516,1.37096774193548,1.36129032258065,1.35806451612903,1.35483870967742,1.34193548387097,1.34193548387097,1.35483870967742,1.35806451612903,1.35483870967742,1.35161290322581,1.35161290322581,1.35483870967742,1.35483870967742,1.35806451612903,1.35483870967742,1.35483870967742,1.35806451612903,1.36129032258065,1.36129032258065,1.35806451612903,1.36129032258065,1.36129032258065,1.36451612903226,1.36774193548387,1.36451612903226,1.36451612903226,1.36451612903226,1.36774193548387,1.36774193548387,1.35806451612903,1.36129032258065,1.36774193548387,1.36774193548387,1.36774193548387,1.37096774193548,1.36774193548387,1.36451612903226,1.37096774193548,1.37096774193548,1.37096774193548,1.37096774193548,1.3741935483871,1.3741935483871,1.37096774193548,1.3741935483871,1.38387096774194,1.38387096774194,1.37741935483871,1.38387096774194,1.39677419354839,1.40645161290323,1.41290322580645,1.42903225806452,1.43548387096774,1.41290322580645,1.38709677419355,1.37096774193548,1.36774193548387,1.36774193548387,1.36451612903226,1.36774193548387,1.36774193548387,1.36774193548387,1.36774193548387,1.36451612903226,1.35161290322581,1.34516129032258,1.47096774193548,1.72903225806452,1.89354838709677,1.76451612903226,1.39354838709677,1.18387096774194,1.29354838709677,1.39677419354839,1.38064516129032,1.36774193548387,1.37741935483871,1.38064516129032,1.38064516129032,1.39032258064516,1.39354838709677,1.39677419354839,1.4,1.40322580645161,1.41290322580645,1.42258064516129,1.43225806451613,1.43870967741935,1.44516129032258,1.45806451612903,1.4741935483871,1.50322580645161,1.5258064516129,1.53870967741935,1.55483870967742,1.56451612903226,1.56129032258065,1.54838709677419,1.51612903225806,1.4741935483871,1.42903225806452,1.4,1.38064516129032,1.36451612903226,1.35806451612903,1.35483870967742,1.34838709677419,1.34838709677419,1.34838709677419,1.34838709677419,1.34838709677419,1.35483870967742,1.35483870967742,1.36129032258065,1.36774193548387,1.36129032258065,1.35806451612903,1.36129032258065,1.35806451612903,1.36129032258065,1.36129032258065,1.36774193548387,1.3741935483871,1.36451612903226,1.36451612903226,1.3741935483871,1.37741935483871,1.37741935483871,1.37096774193548,1.36451612903226,1.36774193548387,1.37096774193548,1.37096774193548,1.36774193548387,1.36774193548387,1.37096774193548,1.37096774193548,1.37096774193548,1.36774193548387,1.37096774193548,1.36774193548387,1.36451612903226,1.36451612903226,1.36451612903226,1.36774193548387,1.37096774193548,1.37741935483871,1.37741935483871,1.37741935483871,1.37741935483871,1.37096774193548,1.3741935483871,1.38709677419355,1.39677419354839,1.40322580645161,1.41612903225806,1.4258064516129,1.41935483870968,1.39677419354839,1.37741935483871,1.36774193548387,1.36451612903226,1.36451612903226,1.36451612903226,1.36451612903226,1.35806451612903,1.35806451612903,1.36451612903226,1.35806451612903,1.34838709677419,1.42258064516129,1.64516129032258,1.84193548387097,1.79677419354839,1.48387096774194,1.19677419354839,1.23225806451613,1.38709677419355,1.4,1.36774193548387,1.37096774193548,1.38387096774194,1.39032258064516,1.39032258064516,1.38709677419355,1.39354838709677,1.4,1.40322580645161,1.40967741935484,1.42258064516129,1.42258064516129,1.4258064516129,1.44193548387097,1.45806451612903,1.4741935483871,1.49032258064516,1.50967741935484,1.53548387096774,1.54838709677419,1.55806451612903,1.55806451612903,1.54193548387097,1.51290322580645,1.47741935483871,1.44193548387097,1.40967741935484,1.39032258064516,1.37741935483871,1.36451612903226,1.35806451612903,1.35161290322581,1.35161290322581,1.35483870967742,1.35483870967742,1.35483870967742,1.35483870967742,1.35806451612903,1.35806451612903,1.36129032258065,1.36451612903226,1.36129032258065,1.36129032258065,1.36129032258065,1.36129032258065,1.36451612903226,1.36451612903226,1.36774193548387,1.37096774193548,1.36451612903226,1.36129032258065,1.36774193548387,1.3741935483871,1.37741935483871,1.36774193548387,1.36451612903226,1.36451612903226,1.36451612903226,1.36129032258065,1.36451612903226,1.36774193548387,1.36774193548387,1.37096774193548,1.36774193548387,1.36774193548387,1.37096774193548,1.37096774193548,1.37096774193548,1.37096774193548,1.37096774193548,1.37741935483871,1.38387096774194,1.38064516129032,1.37741935483871,1.38064516129032,1.39354838709677,1.4,1.41290322580645,1.4258064516129,1.41612903225806,1.40322580645161,1.38709677419355,1.36774193548387,1.36451612903226,1.36774193548387,1.36774193548387,1.35806451612903,1.35806451612903,1.36129032258065,1.36451612903226,1.36451612903226,1.34838709677419,1.36774193548387,1.53225806451613,1.76451612903226,1.82903225806452,1.61290322580645,1.27741935483871,1.18709677419355,1.33548387096774,1.40322580645161,1.3741935483871,1.36774193548387,1.37741935483871,1.37741935483871,1.38064516129032,1.38709677419355,1.39677419354839,1.40322580645161,1.40645161290323,1.40967741935484,1.41290322580645,1.41935483870968,1.4258064516129,1.43870967741935,1.45161290322581,1.46774193548387,1.48709677419355,1.50645161290323,1.52258064516129,1.54193548387097,1.55806451612903,1.56129032258065,1.55483870967742,1.53548387096774,1.5,1.45483870967742,1.41935483870968,1.39677419354839,1.37741935483871,1.36451612903226,1.35161290322581,1.35161290322581,1.35483870967742,1.34838709677419,1.34516129032258,1.35483870967742,1.35161290322581,1.35161290322581,1.35483870967742,1.35806451612903,1.36129032258065,1.35806451612903,1.35806451612903,1.35806451612903,1.36129032258065,1.35806451612903,1.36129032258065,1.36774193548387,1.36451612903226,1.36451612903226,1.36451612903226,1.36774193548387,1.37096774193548,1.37096774193548,1.37096774193548,1.37096774193548,1.37096774193548,1.36774193548387,1.36129032258065,1.36451612903226,1.3741935483871,1.3741935483871,1.37096774193548,1.36451612903226,1.37096774193548,1.37096774193548,1.37096774193548,1.37096774193548,1.3741935483871,1.37741935483871,1.37741935483871,1.3741935483871,1.37741935483871,1.38064516129032,1.37741935483871,1.37741935483871,1.38709677419355,1.4,1.39677419354839,1.40645161290323,1.42903225806452,1.43870967741935,1.42258064516129,1.39677419354839,1.3741935483871,1.36129032258065,1.36451612903226,1.37096774193548,1.36774193548387,1.36129032258065,1.35806451612903,1.35806451612903,1.36774193548387,1.36451612903226,1.34838709677419,1.43870967741935,1.6741935483871,1.87741935483871,1.80967741935484,1.46451612903226,1.19032258064516,1.26129032258065,1.40322580645161,1.39354838709677,1.36774193548387,1.37096774193548,1.38064516129032,1.38387096774194,1.38709677419355,1.39354838709677,1.39677419354839,1.39677419354839,1.40322580645161,1.41612903225806,1.41935483870968,1.42258064516129,1.43225806451613,1.44838709677419,1.45806451612903,1.4741935483871,1.49354838709677,1.51290322580645,1.53225806451613,1.54838709677419,1.56774193548387,1.56774193548387,1.54838709677419,1.52258064516129,1.48064516129032,1.43870967741935,1.40967741935484,1.38387096774194,1.36774193548387,1.35483870967742,1.35161290322581,1.34838709677419,1.34516129032258,1.34193548387097,1.33870967741935,1.34838709677419,1.35806451612903,1.35806451612903,1.35483870967742,1.35161290322581,1.35483870967742,1.35806451612903,1.35806451612903,1.35806451612903,1.35483870967742,1.35806451612903,1.36451612903226,1.36129032258065,1.35806451612903,1.35806451612903,1.36451612903226,1.37096774193548,1.36774193548387,1.36774193548387,1.36774193548387,1.36451612903226,1.36774193548387,1.36774193548387,1.36451612903226,1.36129032258065,1.36451612903226,1.36451612903226,1.36129032258065,1.36774193548387,1.37096774193548,1.3741935483871,1.37096774193548,1.37096774193548,1.37096774193548,1.37096774193548,1.37096774193548,1.37096774193548,1.3741935483871,1.38064516129032,1.37741935483871,1.37096774193548,1.3741935483871,1.38709677419355,1.4,1.40645161290323,1.42258064516129,1.42903225806452,1.41612903225806,1.4,1.38064516129032,1.36451612903226,1.36129032258065,1.36451612903226,1.36129032258065,1.36129032258065,1.36774193548387,1.36129032258065,1.36129032258065,1.36451612903226,1.35161290322581,1.37741935483871,1.55806451612903,1.79677419354839,1.85161290322581,1.60967741935484,1.26129032258065,1.18387096774194,1.34516129032258,1.40645161290323,1.37096774193548,1.36774193548387,1.38709677419355,1.39354838709677,1.39354838709677,1.39032258064516,1.39677419354839,1.4,1.40322580645161,1.40967741935484,1.41935483870968,1.42903225806452,1.43225806451613,1.43870967741935,1.45483870967742,1.47096774193548,1.48709677419355,1.50645161290323,1.5258064516129,1.54838709677419,1.55806451612903,1.56451612903226,1.55806451612903,1.53548387096774,1.49677419354839,1.45161290322581,1.42258064516129,1.4,1.38064516129032,1.36451612903226,1.35806451612903,1.35483870967742,1.35483870967742,1.35483870967742,1.35161290322581,1.34838709677419,1.35806451612903,1.36451612903226,1.36129032258065,1.36129032258065,1.35806451612903,1.35806451612903,1.36129032258065,1.36129032258065,1.36129032258065,1.36129032258065,1.36129032258065,1.36451612903226,1.36451612903226,1.36774193548387,1.36451612903226,1.36774193548387,1.36774193548387,1.36129032258065,1.36451612903226,1.36129032258065,1.36451612903226,1.37741935483871,1.37741935483871,1.37096774193548,1.37096774193548,1.3741935483871,1.37096774193548,1.36774193548387,1.37096774193548,1.37096774193548,1.3741935483871,1.3741935483871,1.36451612903226,1.36451612903226,1.37096774193548,1.3741935483871,1.38064516129032,1.38387096774194,1.37741935483871,1.38064516129032,1.39354838709677,1.4,1.40322580645161,1.41612903225806,1.4258064516129,1.41290322580645,1.39677419354839,1.38064516129032,1.3741935483871,1.36774193548387,1.36774193548387,1.36774193548387,1.36451612903226,1.36451612903226,1.36774193548387,1.36451612903226,1.36129032258065,1.35483870967742,1.42258064516129,1.61612903225806,1.78709677419355,1.76129032258065,1.48387096774194,1.20322580645161,1.22903225806452,1.38387096774194,1.40645161290323,1.37741935483871,1.37741935483871,1.38387096774194,1.38709677419355,1.39354838709677,1.39677419354839,1.40322580645161,1.40322580645161,1.40645161290323,1.40967741935484,1.41290322580645,1.42258064516129,1.43548387096774,1.44516129032258,1.45806451612903,1.4741935483871,1.49032258064516,1.50967741935484,1.53225806451613,1.54516129032258,1.55161290322581,1.55161290322581,1.54193548387097,1.52258064516129,1.48709677419355,1.44193548387097,1.40967741935484,1.38709677419355,1.37096774193548,1.36129032258065,1.35806451612903,1.35806451612903,1.35483870967742,1.35483870967742,1.35483870967742,1.34838709677419,1.35161290322581,1.35483870967742,1.35483870967742,1.35806451612903,1.35806451612903,1.35806451612903,1.35806451612903,1.36129032258065,1.36451612903226,1.36451612903226,1.36451612903226,1.36129032258065,1.36451612903226,1.36774193548387,1.36774193548387,1.36774193548387,1.36774193548387,1.37096774193548,1.37096774193548,1.36774193548387,1.37096774193548,1.36774193548387,1.36774193548387,1.36774193548387,1.36451612903226,1.36774193548387,1.36774193548387,1.36774193548387,1.36774193548387,1.36774193548387,1.37096774193548,1.3741935483871,1.36774193548387,1.37096774193548,1.38387096774194,1.38709677419355,1.37741935483871,1.38064516129032,1.39354838709677,1.4,1.40967741935484,1.42258064516129,1.42903225806452,1.41935483870968,1.39677419354839,1.37741935483871,1.36774193548387,1.36774193548387,1.35806451612903,1.35161290322581,1.36129032258065,1.36774193548387,1.36451612903226,1.35806451612903,1.35483870967742,1.33870967741935,1.37096774193548,1.56129032258065,1.80967741935484,1.84838709677419,1.59677419354839,1.26451612903226,1.20967741935484,1.36129032258065,1.40322580645161,1.3741935483871,1.36451612903226,1.37096774193548,1.38064516129032,1.38064516129032,1.38387096774194,1.38709677419355,1.39354838709677,1.4,1.40322580645161,1.40967741935484,1.40967741935484,1.42258064516129,1.43225806451613,1.44516129032258,1.46774193548387,1.48709677419355,1.50322580645161,1.5258064516129,1.54516129032258,1.56129032258065,1.56129032258065,1.55161290322581,1.52903225806452,1.49354838709677,1.45161290322581,1.41612903225806,1.39354838709677,1.37096774193548,1.35806451612903,1.35161290322581,1.34516129032258,1.34516129032258,1.34516129032258,1.34838709677419,1.35161290322581,1.34838709677419,1.34838709677419,1.34838709677419,1.34838709677419,1.35483870967742,1.36129032258065,1.36129032258065,1.36129032258065,1.36129032258065,1.36129032258065,1.36129032258065,1.36451612903226,1.36774193548387,1.35806451612903,1.35806451612903,1.37096774193548,1.37096774193548,1.36451612903226,1.36774193548387,1.3741935483871,1.36774193548387,1.37096774193548,1.37096774193548,1.36774193548387,1.3741935483871,1.37096774193548,1.37096774193548,1.3741935483871,1.3741935483871,1.36774193548387,1.36774193548387,1.37096774193548,1.3741935483871,1.37096774193548,1.3741935483871,1.3741935483871,1.38064516129032,1.38387096774194,1.37741935483871,1.38387096774194,1.39677419354839,1.40322580645161,1.40967741935484,1.42258064516129,1.42258064516129,1.41612903225806,1.39677419354839,1.37096774193548,1.36451612903226,1.37096774193548,1.36774193548387,1.36451612903226,1.36451612903226,1.36451612903226,1.36129032258065,1.35806451612903,1.34838709677419,1.34193548387097,1.45483870967742,1.71612903225806,1.89677419354839,1.78387096774194,1.41612903225806,1.17741935483871,1.2741935483871,1.40322580645161,1.39354838709677,1.36774193548387,1.3741935483871,1.38387096774194,1.38387096774194,1.39032258064516,1.4,1.4,1.40645161290323,1.40967741935484,1.41612903225806,1.42258064516129,1.4258064516129,1.43225806451613,1.44516129032258,1.46451612903226,1.47741935483871,1.49677419354839,1.5258064516129,1.54516129032258,1.56129032258065,1.57096774193548,1.56774193548387,1.55483870967742,1.5258064516129,1.48387096774194,1.43870967741935,1.40967741935484,1.39032258064516,1.37096774193548,1.36129032258065,1.35161290322581,1.34838709677419,1.35483870967742,1.35483870967742,1.35806451612903,1.35483870967742,1.35161290322581,1.35161290322581,1.35806451612903,1.36129032258065,1.35806451612903,1.35806451612903,1.36129032258065,1.36129032258065,1.36129032258065,1.35806451612903,1.36451612903226,1.37096774193548,1.36774193548387,1.36451612903226,1.36774193548387,1.37096774193548,1.37096774193548,1.36451612903226,1.36774193548387,1.36774193548387,1.36451612903226,1.36451612903226,1.36129032258065,1.36774193548387,1.37096774193548,1.36774193548387,1.36451612903226,1.36774193548387,1.36774193548387,1.36451612903226,1.36451612903226,1.36774193548387,1.36774193548387,1.36451612903226,1.36129032258065,1.36774193548387,1.37741935483871,1.36774193548387,1.36451612903226,1.37741935483871,1.39032258064516,1.39354838709677,1.40322580645161,1.41935483870968,1.42258064516129,1.40645161290323,1.38064516129032,1.36129032258065,1.36129032258065,1.36451612903226,1.36129032258065,1.36129032258065,1.36129032258065,1.36129032258065,1.36129032258065,1.35483870967742,1.34838709677419,1.35483870967742,1.46774193548387,1.68709677419355,1.81290322580645,1.69032258064516,1.36451612903226,1.17096774193548,1.2741935483871,1.39032258064516,1.38709677419355,1.37096774193548,1.37096774193548,1.3741935483871,1.38064516129032,1.38709677419355,1.39032258064516,1.39354838709677,1.39677419354839,1.39677419354839,1.40645161290323,1.41612903225806,1.41935483870968,1.42903225806452,1.44193548387097,1.45806451612903,1.46774193548387,1.48709677419355,1.50645161290323,1.52903225806452,1.54516129032258,1.54193548387097,1.54193548387097,1.53548387096774,1.5,1.46129032258065,1.42903225806452,1.4,1.37741935483871,1.35806451612903,1.35806451612903,1.35483870967742,1.35161290322581,1.35483870967742,1.34838709677419,1.34838709677419,1.35483870967742,1.35806451612903,1.35806451612903,1.35483870967742,1.35806451612903,1.35483870967742,1.36451612903226,1.3741935483871,1.3741935483871,1.37096774193548,1.37096774193548,1.3741935483871,1.37741935483871,1.38064516129032,1.38387096774194,1.38064516129032,1.38387096774194,1.38709677419355,1.38387096774194,1.38709677419355,1.39677419354839,1.40322580645161,1.39677419354839,1.39354838709677,1.40322580645161,1.40645161290323,1.40322580645161,1.40322580645161,1.40967741935484,1.40645161290323,1.40645161290323,1.41612903225806,1.42258064516129,1.42258064516129,1.4258064516129,1.43225806451613
