1.3083984375,1.32451171875,1.35673828125,1.35029296875,1.3728515625,1.36640625,1.379296875,1.38896484375,1.379296875,1.38251953125,1.3470703125,1.34384765625,1.35029296875,1.35029296875,1.353515625,1.353515625,1.35673828125,1.36318359375,1.3599609375,1.3728515625,1.3728515625,1.38251953125,1.3921875,1.3857421875,1.379296875,1.379296875,1.3728515625,1.36640625,1.36962890625,1.36962890625,1.35673828125,1.37607421875,1.3857421875,1.3857421875,1.37607421875,1.36318359375,1.3857421875,1.39541015625,1.405078125,1.39541015625,1.41796875,1.405078125,1.40830078125,1.42119140625,1.44052734375,1.4630859375,1.5017578125,1.5017578125,1.44052734375,1.379296875,1.34384765625,1.35673828125,1.34384765625,1.33740234375,1.32451171875,1.31162109375,1.3083984375,1.3599609375,1.67578125,2.24619140625,2.82626953125,3.21298828125,2.9712890625,2.0947265625,1.276171875,1.09892578125,1.15693359375,1.2375,1.250390625,1.25361328125,1.2568359375,1.2697265625,1.276171875,1.26650390625,1.276171875,1.276171875,1.29228515625,1.30517578125,1.29873046875,1.31162109375,1.301953125,1.3083984375,1.31162109375,1.2955078125,1.32451171875,1.30517578125,1.32451171875,1.327734375,1.301953125,1.31484375,1.29873046875,1.29228515625,1.30517578125,1.29873046875,1.3083984375,1.301953125,1.33095703125,1.32451171875,1.35673828125,1.353515625,1.35673828125,1.36318359375,1.35673828125,1.36318359375,1.36962890625,1.353515625,1.36640625,1.36640625,1.379296875,1.38251953125,1.3857421875,1.3921875,1.40185546875,1.3921875,1.38896484375,1.37607421875,1.37607421875,1.379296875,1.38251953125,1.405078125,1.37607421875,1.38896484375,1.3921875,1.3857421875,1.3857421875,1.37607421875,1.3857421875,1.36640625,1.36640625,1.38251953125,1.3857421875,1.38896484375,1.3728515625,1.40185546875,1.3728515625,1.35029296875,1.3599609375,1.38896484375,1.3921875,1.40830078125,1.38896484375,1.33740234375,1.2955078125,1.29228515625,1.3083984375,1.31484375,1.31162109375,1.30517578125,1.30517578125,1.32451171875,1.4501953125,1.93037109375,2.5458984375,3.080859375,2.98740234375,2.33642578125,1.508203125,1.1021484375,1.0763671875,1.17626953125,1.24072265625,1.250390625,1.25361328125,1.26005859375,1.27294921875,1.26328125,1.29228515625,1.25361328125,1.26650390625,1.28583984375,1.2955078125,1.29228515625,1.30517578125,1.28583984375,1.29873046875,1.28583984375,1.31162109375,1.301953125,1.29228515625,1.3083984375,1.31484375,1.29873046875,1.301953125,1.30517578125,1.2826171875,1.29873046875,1.31806640625,1.30517578125,1.31484375,1.353515625,1.353515625,1.3599609375,1.3341796875,1.3212890625,1.31806640625,1.29228515625,1.31162109375,1.301953125,1.301953125,1.30517578125,1.2890625,1.3083984375,1.33740234375,1.31806640625,1.340625,1.31806640625,1.32451171875,1.340625,1.33740234375,1.327734375,1.3341796875,1.33095703125,1.31806640625,1.3212890625,1.33740234375,1.31162109375,1.32451171875,1.32451171875,1.2955078125,1.31484375,1.31806640625,1.33095703125,1.340625,1.353515625,1.3341796875,1.34384765625,1.3341796875,1.34384765625,1.3470703125,1.38251953125,1.40830078125,1.44052734375,1.43408203125,1.405078125,1.35029296875,1.327734375,1.327734375,1.32451171875,1.30517578125,1.30517578125,1.27939453125,1.2890625,1.32451171875,1.62744140625,2.1849609375,2.7650390625,3.09697265625,2.85849609375,2.0302734375,1.25361328125,1.095703125,1.15693359375,1.22783203125,1.250390625,1.26005859375,1.2568359375,1.276171875,1.27939453125,1.27294921875,1.2826171875,1.27939453125,1.2890625,1.2955078125,1.28583984375,1.29873046875,1.2955078125,1.31484375,1.32451171875,1.30517578125,1.32451171875,1.31806640625,1.327734375,1.32451171875,1.3341796875,1.33740234375,1.31806640625,1.31806640625,1.3341796875,1.33095703125,1.353515625,1.353515625,1.36640625,1.36962890625,1.3728515625,1.38251953125,1.3599609375,1.36640625,1.3857421875,1.37607421875,1.38251953125,1.36318359375,1.37607421875,1.3921875,1.37607421875,1.36318359375,1.353515625,1.36640625,1.353515625,1.340625,1.353515625,1.353515625,1.36962890625,1.36318359375,1.35673828125,1.36640625,1.3599609375,1.379296875,1.39541015625,1.38896484375,1.39541015625,1.38251953125,1.36962890625,1.36318359375,1.3341796875,1.3599609375,1.36640625,1.36962890625,1.3599609375,1.39541015625,1.379296875,1.36318359375,1.38251953125,1.430859375,1.44375,1.48564453125,1.46953125,1.42119140625,1.36640625,1.34384765625,1.3341796875,1.31484375,1.3212890625,1.327734375,1.3212890625,1.31484375,1.40185546875,1.817578125,2.4041015625,2.977734375,3.20009765625,2.7005859375,1.8626953125,1.16337890625,1.10859375,1.2052734375,1.27939453125,1.29228515625,1.301953125,1.33095703125,1.3341796875,1.340625,1.340625,1.35029296875,1.33095703125,1.340625,1.327734375,1.3470703125,1.3599609375,1.36318359375,1.36318359375,1.34384765625,1.34384765625,1.353515625,1.353515625,1.3728515625,1.3599609375,1.34384765625,1.340625,1.3212890625,1.32451171875,1.31484375,1.31162109375,1.3341796875,1.327734375,1.3341796875,1.32451171875,1.32451171875,1.340625,1.327734375,1.31484375,1.31162109375,1.31162109375,1.28583984375,1.2890625,1.2955078125,1.26328125,1.276171875,1.27939453125,1.26650390625,1.27294921875,1.250390625,1.2697265625,1.27294921875,1.27939453125,1.2826171875,1.26005859375,1.26005859375,1.26328125,1.25361328125,1.250390625,1.250390625,1.25361328125,1.27294921875,1.26328125,1.25361328125,1.276171875,1.26650390625,1.27294921875,1.2955078125,1.301953125,1.276171875,1.32451171875,1.31484375,1.2955078125,1.3341796875,1.3728515625,1.3728515625,1.405078125,1.3921875,1.37607421875,1.31162109375,1.2955078125,1.29873046875,1.29228515625,1.3083984375,1.2890625,1.30517578125,1.31806640625,1.41474609375,1.8755859375,2.43955078125,2.9841796875,3.03251953125,2.4427734375,1.65,1.13115234375,1.1150390625,1.22783203125,1.27294921875,1.30517578125,1.29873046875,1.3083984375,1.30517578125,1.301953125,1.32451171875,1.31162109375,1.31484375,1.3341796875,1.327734375,1.33095703125,1.33740234375,1.353515625,1.35029296875,1.3599609375,1.36962890625,1.37607421875,1.3986328125,1.40185546875,1.3857421875,1.38251953125,1.3857421875,1.37607421875,1.3728515625,1.36962890625,1.36962890625,1.38896484375,1.39541015625,1.42763671875,1.41474609375,1.4244140625,1.41474609375,1.42119140625,1.41474609375,1.3986328125,1.405078125,1.39541015625,1.3921875,1.38251953125,1.3921875,1.3986328125,1.3857421875,1.38896484375,1.3986328125,1.39541015625,1.3921875,1.3728515625,1.38251953125,1.3857421875,1.37607421875,1.38251953125,1.37607421875,1.3599609375,1.353515625,1.3341796875,1.33740234375,1.327734375,1.33095703125,1.3212890625,1.33095703125,1.327734375,1.33095703125,1.33095703125,1.340625,1.327734375,1.3728515625,1.3470703125,1.35673828125,1.36962890625,1.3986328125,1.430859375,1.41474609375,1.42119140625,1.36640625,1.327734375,1.3083984375,1.301953125,1.29228515625,1.29873046875,1.2955078125,1.29228515625,1.28583984375,1.4115234375,1.8755859375,2.436328125,2.98740234375,3.003515625,2.42021484375,1.60166015625,1.09892578125,1.095703125,1.173046875,1.2310546875,1.2439453125,1.24072265625,1.250390625,1.25361328125,1.26328125,1.2697265625,1.26650390625,1.2826171875,1.27939453125,1.2697265625,1.28583984375,1.27939453125,1.2890625,1.29873046875,1.31484375,1.32451171875,1.3212890625,1.32451171875,1.31484375,1.3212890625,1.3212890625,1.301953125,1.29873046875,1.2890625,1.276171875,1.2890625,1.276171875,1.28583984375,1.2890625,1.29873046875,1.3083984375,1.31806640625,1.33095703125,1.31484375,1.301953125,1.3083984375,1.29228515625,1.2890625,1.28583984375,1.2826171875,1.2826171875,1.28583984375,1.2890625,1.2890625,1.28583984375,1.29873046875,1.3083984375,1.31162109375,1.3083984375,1.31162109375,1.3341796875,1.32451171875,1.3341796875,1.3212890625,1.31162109375,1.3083984375,1.30517578125,1.3212890625,1.29873046875,1.31162109375,1.33740234375,1.3341796875,1.3599609375,1.3728515625,1.36640625,1.38251953125,1.3728515625,1.38896484375,1.40185546875,1.41474609375,1.44052734375,1.4501953125,1.45986328125,1.379296875,1.353515625,1.34384765625,1.3470703125,1.327734375,1.327734375,1.3212890625,1.31806640625,1.3212890625,1.45986328125,1.93037109375,2.52978515625,3.11953125,3.158203125,2.55556640625,1.67900390625,1.16337890625,1.16982421875,1.24716796875,1.3083984375,1.31806640625,1.31806640625,1.35673828125,1.33740234375,1.35029296875,1.340625,1.3599609375,1.3470703125,1.36640625,1.3599609375,1.35673828125,1.36962890625,1.3728515625,1.3857421875,1.40185546875,1.38896484375,1.3921875,1.40830078125,1.4115234375,1.405078125,1.3857421875,1.38896484375,1.3857421875,1.36962890625,1.3857421875,1.379296875,1.3470703125,1.36962890625,1.36640625,1.38896484375,1.38896484375,1.3921875,1.38251953125,1.37607421875,1.379296875,1.36640625,1.35029296875,1.3599609375,1.34384765625,1.36640625,1.33740234375,1.3341796875,1.33740234375,1.34384765625,1.35673828125,1.36318359375,1.3599609375,1.353515625,1.3728515625,1.3728515625,1.36962890625,1.3857421875,1.36962890625,1.35029296875,1.35029296875,1.33740234375,1.3470703125,1.3212890625,1.31162109375,1.31806640625,1.31162109375,1.327734375,1.327734375,1.327734375,1.33095703125,1.35673828125,1.3470703125,1.3341796875,1.35029296875,1.3857421875,1.40830078125,1.42763671875,1.405078125,1.3599609375,1.340625,1.31162109375,1.31162109375,1.30517578125,1.276171875,1.27939453125,1.27939453125,1.2697265625,1.3470703125,1.73056640625,2.31708984375,2.900390625,3.01962890625,2.513671875,1.688671875,1.069921875,1.04736328125,1.13115234375,1.18916015625,1.2052734375,1.2052734375,1.2181640625,1.20849609375,1.22138671875,1.21494140625,1.2181640625,1.2310546875,1.2439453125,1.2697265625,1.2568359375,1.26328125,1.2697265625,1.26328125,1.2697265625,1.27294921875,1.27939453125,1.2826171875,1.276171875,1.2826171875,1.27939453125,1.27939453125,1.26005859375,1.27294921875,1.2890625,1.2826171875,1.29873046875,1.31806640625,1.340625,1.3470703125,1.34384765625,1.36962890625,1.35673828125,1.35029296875,1.3599609375,1.35029296875,1.34384765625,1.340625,1.35029296875,1.3341796875,1.340625,1.327734375,1.3470703125,1.327734375,1.34384765625,1.33095703125,1.35673828125,1.35673828125,1.35673828125,1.35029296875,1.3470703125,1.33740234375,1.33095703125,1.3341796875,1.3470703125,1.3341796875,1.3470703125,1.3470703125,1.340625,1.353515625,1.3470703125,1.36318359375,1.36962890625,1.38251953125,1.38896484375,1.38251953125,1.40185546875,1.37607421875,1.3857421875,1.42763671875,1.4501953125,1.49208984375,1.47275390625,1.45986328125,1.38251953125,1.35029296875,1.340625,1.327734375,1.3212890625,1.3341796875,1.340625,1.34384765625,1.33740234375,1.546875,2.07216796875,2.6490234375,3.10341796875,2.98740234375,2.2751953125,1.43408203125,1.147265625,1.147265625,1.24716796875,1.276171875,1.2826171875,1.28583984375,1.29228515625,1.276171875,1.2890625,1.2826171875,1.2890625,1.31484375,1.31162109375,1.31484375,1.3212890625,1.30517578125,1.3083984375,1.31484375,1.34384765625,1.3470703125,1.35029296875,1.3599609375,1.3470703125,1.35673828125,1.35673828125,1.340625,1.33740234375,1.33740234375,1.3341796875,1.3470703125,1.327734375,1.35029296875,1.353515625,1.3857421875,1.38896484375,1.379296875,1.379296875,1.36962890625,1.36640625,1.36640625,1.36640625,1.36640625,1.35673828125,1.36962890625,1.353515625,1.340625,1.340625,1.33095703125,1.340625,1.35029296875,1.3470703125,1.36640625,1.353515625,1.35673828125,1.3599609375,1.3470703125,1.353515625,1.3470703125,1.35029296875,1.3728515625,1.353515625,1.36962890625,1.3599609375,1.36318359375,1.38251953125,1.38896484375,1.41796875,1.40185546875,1.3986328125,1.4244140625,1.40185546875,1.38251953125,1.40830078125,1.43408203125,1.456640625,1.47275390625,1.4501953125,1.39541015625,1.340625,1.327734375,1.32451171875,1.301953125,1.2826171875,1.27939453125,1.276171875,1.27294921875,1.36962890625,1.766015625,2.3654296875,2.9455078125,3.19365234375,2.7134765625,1.8498046875,1.13115234375,1.06025390625,1.16337890625,1.21171875,1.2181640625,1.224609375,1.224609375,1.20849609375,1.2310546875,1.224609375,1.25361328125,1.224609375,1.224609375,1.2439453125,1.23427734375,1.23427734375,1.2568359375,1.23427734375,1.2826171875,1.26328125,1.24072265625,1.2568359375,1.27939453125,1.276171875,1.276171875,1.26650390625,1.2568359375,1.2697265625,1.31162109375,1.3083984375,1.31484375,1.29873046875,1.3341796875,1.35673828125,1.3470703125,1.3341796875,1.36318359375,1.340625,1.30517578125,1.3212890625,1.327734375,1.33095703125,1.31162109375,1.31162109375,1.29873046875,1.29873046875,1.31806640625,1.30517578125,1.3212890625,1.327734375,1.340625,1.3599609375,1.353515625,1.3599609375,1.353515625,1.34384765625,1.33740234375,1.327734375,1.32451171875,1.33095703125,1.33740234375,1.35029296875,1.35673828125,1.3470703125,1.35029296875,1.35673828125,1.3728515625,1.3728515625,1.3921875,1.38251953125,1.41796875,1.3921875,1.38896484375,1.430859375,1.4373046875,1.482421875,1.4888671875,1.46953125,1.40185546875,1.36640625,1.37607421875,1.379296875,1.3728515625,1.3728515625,1.36640625,1.36640625,1.36640625,1.52109375,2.00771484375,2.616796875,3.106640625,3.00029296875,2.3138671875,1.49208984375,1.11826171875,1.121484375,1.22138671875,1.26650390625,1.27939453125,1.2826171875,1.29228515625,1.3083984375,1.301953125,1.2890625,1.29873046875,1.2955078125,1.31806640625,1.32451171875,1.3341796875,1.34384765625,1.34384765625,1.35673828125,1.340625,1.34384765625,1.33740234375,1.34384765625,1.340625,1.32451171875,1.31484375,1.2955078125,1.301953125,1.2955078125,1.29228515625,1.2955078125,1.29873046875,1.31162109375,1.33095703125,1.33095703125,1.3470703125,1.32451171875,1.32451171875,1.31162109375,1.29228515625,1.301953125,1.30517578125,1.29873046875,1.301953125,1.31162109375,1.30517578125,1.3212890625,1.32451171875,1.33095703125,1.31806640625,1.33095703125,1.3212890625,1.32451171875,1.340625,1.3341796875,1.35029296875,1.353515625,1.340625,1.33095703125,1.32451171875,1.3470703125,1.34384765625,1.32451171875,1.34384765625,1.3341796875,1.33095703125,1.327734375,1.340625,1.36640625,1.34384765625,1.36962890625,1.3728515625,1.36962890625,1.3921875,1.4115234375,1.44375,1.45341796875,1.45986328125,1.4244140625,1.35029296875,1.33740234375,1.3212890625,1.31484375,1.32451171875,1.32451171875,1.327734375,1.30517578125,1.3212890625,1.56943359375,2.08828125,2.69736328125,3.1388671875,3.01640625,2.26552734375,1.41796875,1.13759765625,1.147265625,1.26328125,1.2955078125,1.276171875,1.27939453125,1.27939453125,1.2890625,1.28583984375,1.276171875,1.27939453125,1.29228515625,1.2955078125,1.301953125,1.3212890625,1.33095703125,1.327734375,1.327734375,1.3341796875,1.32451171875,1.340625,1.3341796875,1.340625,1.3341796875,1.3341796875,1.32451171875,1.31484375,1.31484375,1.327734375,1.32451171875,1.33095703125,1.34384765625,1.3470703125,1.36318359375,1.36640625,1.379296875,1.36640625,1.36640625,1.36640625,1.36962890625,1.36318359375,1.36318359375,1.35029296875,1.3599609375,1.3470703125,1.36640625,1.3599609375,1.35673828125,1.35673828125,1.3470703125,1.36640625,1.3212890625,1.3341796875,1.34384765625,1.33095703125,1.340625,1.33095703125,1.31484375,1.31484375,1.3083984375,1.3083984375,1.30517578125,1.301953125,1.2955078125,1.2890625,1.301953125,1.30517578125,1.31806640625,1.276171875,1.31806640625,1.2955078125,1.30517578125,1.33095703125,1.35673828125,1.38251953125,1.405078125,1.38896484375,1.353515625,1.30517578125,1.27294921875,1.27294921875,1.276171875,1.276171875,1.2890625,1.28583984375,1.28583984375,1.327734375,1.64033203125,2.22041015625,2.83271484375,3.22265625,2.99384765625,2.126953125,1.276171875,1.095703125,1.16982421875,1.224609375,1.2439453125,1.2568359375,1.2439453125,1.2697265625,1.25361328125,1.26328125,1.25361328125,1.250390625,1.276171875,1.26328125,1.27294921875,1.27294921875,1.2890625,1.3083984375,1.301953125,1.30517578125,1.3212890625,1.30517578125,1.32451171875,1.33095703125,1.31806640625,1.3212890625,1.3083984375,1.31162109375,1.353515625,1.33740234375,1.36318359375,1.3599609375,1.3986328125,1.39541015625,1.42119140625,1.41796875,1.40185546875,1.4244140625,1.40185546875,1.43408203125,1.40830078125,1.38896484375,1.3921875,1.42119140625,1.379296875,1.3921875,1.3986328125,1.41474609375,1.3921875,1.4115234375,1.41474609375,1.405078125,1.42119140625,1.4115234375,1.40830078125,1.40185546875,1.379296875,1.405078125,1.41474609375,1.4115234375,1.40830078125,1.41474609375,1.41474609375,1.4115234375,1.39541015625,1.40830078125,1.405078125,1.43408203125
1.33095703125,1.3212890625,1.33095703125,1.32451171875,1.32451171875,1.33740234375,1.3470703125,1.36962890625,1.35673828125,1.3599609375,1.36318359375,1.35673828125,1.36318359375,1.36318359375,1.36962890625,1.36640625,1.3599609375,1.36640625,1.3599609375,1.3599609375,1.340625,1.3470703125,1.36318359375,1.353515625,1.36640625,1.38896484375,1.40830078125,1.4115234375,1.40830078125,1.430859375,1.41796875,1.40830078125,1.41796875,1.405078125,1.39541015625,1.3921875,1.40185546875,1.38251953125,1.38896484375,1.37607421875,1.3921875,1.36962890625,1.3857421875,1.3728515625,1.3921875,1.39541015625,1.3921875,1.38251953125,1.379296875,1.36962890625,1.3599609375,1.3599609375,1.37607421875,1.3599609375,1.3728515625,1.36962890625,1.36318359375,1.3728515625,1.36640625,1.379296875,1.3857421875,1.3986328125,1.405078125,1.39541015625,1.41474609375,1.38896484375,1.39541015625,1.4373046875,1.456640625,1.49853515625,1.47919921875,1.4630859375,1.3857421875,1.353515625,1.34384765625,1.33095703125,1.3212890625,1.33095703125,1.340625,1.340625,1.3341796875,1.54365234375,2.06572265625,2.64580078125,3.09697265625,2.98095703125,2.26875,1.42763671875,1.13759765625,1.13759765625,1.2375,1.26650390625,1.27294921875,1.276171875,1.27939453125,1.26328125,1.276171875,1.26650390625,1.27294921875,1.301953125,1.29873046875,1.29873046875,1.30517578125,1.2890625,1.29228515625,1.29873046875,1.327734375,1.33095703125,1.33095703125,1.340625,1.327734375,1.340625,1.340625,1.3212890625,1.3212890625,1.3212890625,1.31484375,1.33095703125,1.31162109375,1.33095703125,1.33740234375,1.36640625,1.36962890625,1.3599609375,1.36318359375,1.35029296875,1.35029296875,1.3470703125,1.3470703125,1.35029296875,1.340625,1.353515625,1.33740234375,1.32451171875,1.3212890625,1.31484375,1.32451171875,1.3341796875,1.327734375,1.35029296875,1.33740234375,1.340625,1.34384765625,1.3341796875,1.33740234375,1.3341796875,1.3341796875,1.35673828125,1.340625,1.35673828125,1.3470703125,1.35029296875,1.36962890625,1.37607421875,1.405078125,1.38896484375,1.3857421875,1.4115234375,1.38896484375,1.3728515625,1.3986328125,1.4244140625,1.44697265625,1.4630859375,1.44375,1.38896484375,1.33095703125,1.31806640625,1.31484375,1.2955078125,1.276171875,1.27294921875,1.2697265625,1.26650390625,1.36640625,1.7595703125,2.36220703125,2.9390625,3.18720703125,2.71025390625,1.84658203125,1.1279296875,1.05703125,1.16015625,1.20849609375,1.2181640625,1.224609375,1.224609375,1.20849609375,1.2310546875,1.22783203125,1.25361328125,1.22783203125,1.224609375,1.24716796875,1.2375,1.2375,1.26005859375,1.2375,1.28583984375,1.26650390625,1.2439453125,1.26328125,1.28583984375,1.27939453125,1.27939453125,1.27294921875,1.26328125,1.276171875,1.31806640625,1.31484375,1.3212890625,1.30517578125,1.34384765625,1.36318359375,1.35673828125,1.340625,1.36962890625,1.35029296875,1.31162109375,1.33095703125,1.33740234375,1.340625,1.3212890625,1.3212890625,1.3083984375,1.3083984375,1.327734375,1.31484375,1.33095703125,1.33740234375,1.35029296875,1.36962890625,1.36640625,1.36962890625,1.36640625,1.353515625,1.3470703125,1.340625,1.3341796875,1.340625,1.35029296875,1.3599609375,1.36640625,1.35673828125,1.3599609375,1.36640625,1.38251953125,1.38251953125,1.405078125,1.3921875,1.42763671875,1.40185546875,1.3986328125,1.44052734375,1.44697265625,1.49208984375,1.49853515625,1.47919921875,1.4115234375,1.3728515625,1.38251953125,1.38896484375,1.38251953125,1.38251953125,1.37607421875,1.3728515625,1.3728515625,1.5275390625,2.01416015625,2.6232421875,3.1130859375,3.00673828125,2.3203125,1.49853515625,1.12470703125,1.12470703125,1.22783203125,1.27294921875,1.28583984375,1.2890625,1.2955078125,1.31484375,1.30517578125,1.29228515625,1.301953125,1.2955078125,1.3212890625,1.32451171875,1.33740234375,1.34384765625,1.34384765625,1.35673828125,1.340625,1.34384765625,1.33740234375,1.34384765625,1.340625,1.32451171875,1.31484375,1.2955078125,1.29873046875,1.29228515625,1.2890625,1.29228515625,1.2955078125,1.3083984375,1.327734375,1.327734375,1.34384765625,1.3212890625,1.3212890625,1.3083984375,1.2890625,1.2955078125,1.29873046875,1.2955078125,1.29873046875,1.3083984375,1.29873046875,1.31484375,1.31484375,1.3212890625,1.31162109375,1.3212890625,1.31162109375,1.31484375,1.33095703125,1.32451171875,1.34384765625,1.34384765625,1.33095703125,1.32451171875,1.31484375,1.33740234375,1.3341796875,1.31484375,1.3341796875,1.3212890625,1.3212890625,1.31484375,1.33095703125,1.353515625,1.33095703125,1.3599609375,1.3599609375,1.35673828125,1.379296875,1.3986328125,1.430859375,1.44375,1.44697265625,1.41474609375,1.340625,1.327734375,1.31162109375,1.301953125,1.31162109375,1.31162109375,1.31484375,1.2955078125,1.31162109375,1.55654296875,2.07861328125,2.68447265625,3.12919921875,3.00673828125,2.255859375,1.40830078125,1.1279296875,1.13759765625,1.25361328125,1.28583984375,1.26650390625,1.2697265625,1.27294921875,1.27939453125,1.27939453125,1.2697265625,1.27294921875,1.28583984375,1.2890625,1.2955078125,1.31484375,1.32451171875,1.3212890625,1.32451171875,1.327734375,1.31806640625,1.3341796875,1.33095703125,1.3341796875,1.33095703125,1.33095703125,1.3212890625,1.31162109375,1.31162109375,1.32451171875,1.32451171875,1.33095703125,1.34384765625,1.35029296875,1.36318359375,1.36640625,1.379296875,1.36640625,1.36962890625,1.36962890625,1.3728515625,1.36962890625,1.36640625,1.35673828125,1.36318359375,1.353515625,1.3728515625,1.36640625,1.36640625,1.36318359375,1.35673828125,1.37607421875,1.33095703125,1.34384765625,1.353515625,1.340625,1.353515625,1.340625,1.327734375,1.327734375,1.3212890625,1.3212890625,1.31806640625,1.31806640625,1.3083984375,1.301953125,1.31806640625,1.3212890625,1.3341796875,1.29228515625,1.3341796875,1.31484375,1.32451171875,1.3470703125,1.37607421875,1.40185546875,1.4244140625,1.40830078125,1.3728515625,1.32451171875,1.29228515625,1.29228515625,1.29873046875,1.2955078125,1.3083984375,1.30517578125,1.30517578125,1.35029296875,1.662890625,2.23974609375,2.85205078125,3.2419921875,3.01640625,2.14951171875,1.29873046875,1.1150390625,1.1923828125,1.2439453125,1.26328125,1.276171875,1.26328125,1.2890625,1.27294921875,1.27939453125,1.2697265625,1.2697265625,1.29228515625,1.27939453125,1.2890625,1.28583984375,1.301953125,1.3212890625,1.31484375,1.31806640625,1.33095703125,1.31484375,1.33095703125,1.33740234375,1.3212890625,1.32451171875,1.31162109375,1.31162109375,1.353515625,1.33740234375,1.3599609375,1.35673828125,1.3921875,1.38896484375,1.4115234375,1.40830078125,1.38896484375,1.40830078125,1.3857421875,1.41474609375,1.3857421875,1.36640625,1.36640625,1.3921875,1.35029296875,1.3599609375,1.36318359375,1.37607421875,1.35029296875,1.36640625,1.36640625,1.35673828125,1.36962890625,1.353515625,1.3470703125,1.33740234375,1.31484375,1.3341796875,1.340625,1.33095703125,1.327734375,1.327734375,1.32451171875,1.31806640625,1.29873046875,1.30517578125,1.29873046875,1.3212890625,1.3212890625,1.31162109375,1.3341796875,1.33095703125,1.327734375,1.30517578125,1.36318359375,1.38251953125,1.3986328125,1.39541015625,1.379296875,1.30517578125,1.2955078125,1.26650390625,1.28583984375,1.2697265625,1.276171875,1.276171875,1.27939453125,1.3083984375,1.5984375,2.13984375,2.71669921875,3.106640625,2.86494140625,2.06572265625,1.2826171875,1.1021484375,1.14404296875,1.23427734375,1.26650390625,1.2568359375,1.2568359375,1.28583984375,1.27939453125,1.276171875,1.27294921875,1.29228515625,1.2955078125,1.31162109375,1.31806640625,1.3341796875,1.33095703125,1.327734375,1.3212890625,1.3341796875,1.33740234375,1.34384765625,1.33095703125,1.340625,1.33740234375,1.33095703125,1.33095703125,1.33095703125,1.33740234375,1.3212890625,1.3212890625,1.3341796875,1.3341796875,1.36318359375,1.37607421875,1.38896484375,1.3921875,1.3728515625,1.379296875,1.3728515625,1.36318359375,1.3728515625,1.36640625,1.3728515625,1.36318359375,1.36318359375,1.38251953125,1.36640625,1.36962890625,1.36962890625,1.340625,1.35029296875,1.34384765625,1.35029296875,1.34384765625,1.35029296875,1.33095703125,1.327734375,1.33740234375,1.3470703125,1.32451171875,1.3083984375,1.31162109375,1.31806640625,1.3083984375,1.31484375,1.32451171875,1.31484375,1.3470703125,1.3212890625,1.3599609375,1.36318359375,1.3599609375,1.35673828125,1.40185546875,1.3857421875,1.42763671875,1.43408203125,1.41796875,1.35673828125,1.327734375,1.31162109375,1.2955078125,1.3083984375,1.301953125,1.301953125,1.31484375,1.31484375,1.559765625,2.09794921875,2.65224609375,3.08408203125,2.93583984375,2.20107421875,1.36318359375,1.11181640625,1.12470703125,1.2052734375,1.24716796875,1.24072265625,1.2568359375,1.276171875,1.2697265625,1.27294921875,1.2890625,1.2955078125,1.2955078125,1.31484375,1.33095703125,1.31162109375,1.32451171875,1.327734375,1.3083984375,1.3212890625,1.3341796875,1.327734375,1.327734375,1.32451171875,1.3212890625,1.31806640625,1.3212890625,1.3212890625,1.3212890625,1.327734375,1.31484375,1.32451171875,1.33095703125,1.33740234375,1.35029296875,1.36962890625,1.35673828125,1.35673828125,1.33740234375,1.34384765625,1.327734375,1.33740234375,1.34384765625,1.340625,1.35029296875,1.3728515625,1.36640625,1.36962890625,1.35673828125,1.36962890625,1.3599609375,1.3470703125,1.37607421875,1.36962890625,1.36962890625,1.3728515625,1.36962890625,1.36318359375,1.3599609375,1.353515625,1.36318359375,1.353515625,1.35673828125,1.3599609375,1.340625,1.340625,1.33740234375,1.35673828125,1.36318359375,1.3470703125,1.3728515625,1.36318359375,1.36640625,1.379296875,1.42119140625,1.4501953125,1.46630859375,1.45341796875,1.4115234375,1.35029296875,1.327734375,1.31162109375,1.31484375,1.2890625,1.30517578125,1.28583984375,1.2890625,1.340625,1.6306640625,2.2171875,2.82626953125,3.235546875,3.0228515625,2.16884765625,1.31162109375,1.121484375,1.173046875,1.24716796875,1.27939453125,1.26328125,1.276171875,1.28583984375,1.27939453125,1.2826171875,1.3083984375,1.2697265625,1.29228515625,1.31162109375,1.30517578125,1.32451171875,1.3341796875,1.301953125,1.31806640625,1.301953125,1.3083984375,1.31484375,1.30517578125,1.30517578125,1.29228515625,1.28583984375,1.276171875,1.26005859375,1.26650390625,1.250390625,1.276171875,1.2890625,1.31806640625,1.3212890625,1.31806640625,1.3341796875,1.327734375,1.32451171875,1.3212890625,1.31806640625,1.33740234375,1.31162109375,1.31484375,1.3212890625,1.31806640625,1.327734375,1.33740234375,1.327734375,1.340625,1.327734375,1.353515625,1.33740234375,1.340625,1.33095703125,1.353515625,1.3470703125,1.3470703125,1.36962890625,1.36640625,1.3728515625,1.39541015625,1.405078125,1.379296875,1.38896484375,1.379296875,1.3728515625,1.36962890625,1.36962890625,1.405078125,1.36640625,1.39541015625,1.36318359375,1.35673828125,1.3728515625,1.4115234375,1.4244140625,1.4630859375,1.4115234375,1.3986328125,1.31806640625,1.32451171875,1.301953125,1.2955078125,1.3083984375,1.301953125,1.31162109375,1.29873046875,1.3212890625,1.662890625,2.255859375,2.83916015625,3.0615234375,2.63291015625,1.85625,1.15048828125,1.07958984375,1.15693359375,1.2052734375,1.2439453125,1.24716796875,1.24716796875,1.26005859375,1.2568359375,1.26650390625,1.27939453125,1.2890625,1.2890625,1.2826171875,1.3083984375,1.2890625,1.30517578125,1.32451171875,1.3212890625,1.31806640625,1.32451171875,1.33095703125,1.33740234375,1.3470703125,1.36318359375,1.3341796875,1.340625,1.31484375,1.33095703125,1.327734375,1.340625,1.33740234375,1.34384765625,1.3728515625,1.36318359375,1.36962890625,1.36962890625,1.3728515625,1.36318359375,1.3857421875,1.36318359375,1.3857421875,1.38251953125,1.38251953125,1.3921875,1.3857421875,1.40185546875,1.3857421875,1.379296875,1.38251953125,1.3728515625,1.3728515625,1.36318359375,1.3470703125,1.33740234375,1.327734375,1.32451171875,1.32451171875,1.31162109375,1.32451171875,1.31806640625,1.31162109375,1.31806640625,1.31162109375,1.32451171875,1.32451171875,1.32451171875,1.3341796875,1.33095703125,1.340625,1.3470703125,1.33740234375,1.340625,1.3599609375,1.3921875,1.4115234375,1.430859375,1.42763671875,1.36318359375,1.35029296875,1.3083984375,1.31806640625,1.32451171875,1.31484375,1.340625,1.33095703125,1.33740234375,1.5017578125,1.972265625,2.5587890625,3.05830078125,3.0357421875,2.36865234375,1.53076171875,1.1537109375,1.121484375,1.224609375,1.26005859375,1.2375,1.2439453125,1.24716796875,1.26328125,1.26650390625,1.27939453125,1.2955078125,1.2826171875,1.301953125,1.31162109375,1.31484375,1.3212890625,1.31484375,1.33095703125,1.31806640625,1.32451171875,1.3341796875,1.32451171875,1.3341796875,1.33095703125,1.31162109375,1.30517578125,1.28583984375,1.2890625,1.3083984375,1.31484375,1.32451171875,1.33095703125,1.353515625,1.35673828125,1.3599609375,1.353515625,1.35029296875,1.36640625,1.36640625,1.36640625,1.35673828125,1.34384765625,1.353515625,1.36640625,1.353515625,1.3599609375,1.3599609375,1.3728515625,1.37607421875,1.37607421875,1.3857421875,1.37607421875,1.3857421875,1.37607421875,1.37607421875,1.38251953125,1.36962890625,1.3728515625,1.36318359375,1.36962890625,1.36318359375,1.3470703125,1.35029296875,1.33740234375,1.3341796875,1.3470703125,1.35673828125,1.37607421875,1.3599609375,1.379296875,1.36640625,1.353515625,1.36962890625,1.40185546875,1.42119140625,1.43408203125,1.38251953125,1.3599609375,1.31162109375,1.28583984375,1.29228515625,1.27939453125,1.27939453125,1.28583984375,1.28583984375,1.2890625,1.36962890625,1.75634765625,2.36220703125,2.951953125,3.2033203125,2.74248046875,1.9142578125,1.16015625,1.08603515625,1.18271484375,1.2181640625,1.224609375,1.2181640625,1.22783203125,1.2439453125,1.24716796875,1.24072265625,1.2568359375,1.2568359375,1.26005859375,1.2568359375,1.28583984375,1.29873046875,1.30517578125,1.2826171875,1.2890625,1.301953125,1.29873046875,1.30517578125,1.2955078125,1.29873046875,1.2890625,1.28583984375,1.31806640625,1.3083984375,1.29873046875,1.32451171875,1.32451171875,1.32451171875,1.353515625,1.36640625,1.3986328125,1.38896484375,1.3857421875,1.3921875,1.36318359375,1.35673828125,1.353515625,1.3470703125,1.33740234375,1.30517578125,1.340625,1.3212890625,1.31484375,1.33095703125,1.31484375,1.31806640625,1.33095703125,1.31162109375,1.3341796875,1.31806640625,1.3341796875,1.327734375,1.31162109375,1.31162109375,1.3083984375,1.31162109375,1.30517578125,1.2955078125,1.31484375,1.2890625,1.3212890625,1.3341796875,1.35029296875,1.379296875,1.35029296875,1.3728515625,1.3857421875,1.3728515625,1.38896484375,1.4373046875,1.46630859375,1.51142578125,1.4953125,1.46630859375,1.405078125,1.3921875,1.38251953125,1.36318359375,1.36962890625,1.340625,1.3599609375,1.33740234375,1.36640625,1.61455078125,2.14306640625,2.73603515625,3.12919921875,2.9068359375,2.1462890625,1.353515625,1.15693359375,1.1666015625,1.26328125,1.31806640625,1.31484375,1.3212890625,1.327734375,1.340625,1.35029296875,1.35029296875,1.33740234375,1.3470703125,1.35029296875,1.36640625,1.3599609375,1.36640625,1.3728515625,1.37607421875,1.37607421875,1.3728515625,1.36318359375,1.36318359375,1.34384765625,1.35029296875,1.32451171875,1.31806640625,1.2955078125,1.29228515625,1.2890625,1.27939453125,1.29873046875,1.2955078125,1.301953125,1.3083984375,1.29873046875,1.29873046875,1.29228515625,1.28583984375,1.2826171875,1.27939453125,1.26650390625,1.2826171875,1.27939453125,1.3083984375,1.31484375,1.31806640625,1.32451171875,1.327734375,1.3212890625,1.33095703125,1.340625,1.33740234375,1.3212890625,1.32451171875,1.33740234375,1.327734375,1.31806640625,1.3212890625,1.31806640625,1.3212890625,1.31162109375,1.31484375,1.3083984375,1.32451171875,1.29873046875,1.3083984375,1.327734375,1.31162109375,1.31484375,1.31806640625,1.32451171875,1.31806640625,1.3341796875,1.36962890625,1.38896484375,1.40185546875,1.3921875,1.30517578125,1.28583984375,1.26650390625,1.27294921875,1.27939453125,1.2890625,1.2826171875,1.2890625,1.30517578125,1.48564453125,1.972265625,2.56201171875,3.07763671875,3.05185546875,2.38798828125,1.52109375,1.121484375,1.09892578125,1.20205078125,1.24716796875,1.2568359375,1.26328125,1.27294921875,1.2826171875,1.28583984375,1.2826171875,1.2955078125,1.27939453125,1.29228515625,1.29873046875,1.2955078125,1.30517578125,1.33740234375,1.33740234375,1.33095703125,1.3470703125,1.35029296875,1.35029296875,1.36640625,1.3599609375,1.35029296875,1.33740234375,1.3341796875,1.3470703125,1.353515625,1.3470703125,1.3728515625,1.3857421875,1.405078125,1.4244140625,1.41474609375,1.4115234375,1.430859375,1.44697265625
1.28583984375,1.27939453125,1.29873046875,1.29228515625,1.29228515625,1.301953125,1.29228515625,1.31162109375,1.29228515625,1.31162109375,1.2955078125,1.2890625,1.301953125,1.2890625,1.30517578125,1.29228515625,1.32451171875,1.31484375,1.3212890625,1.33095703125,1.34384765625,1.327734375,1.34384765625,1.33095703125,1.34384765625,1.34384765625,1.31484375,1.36962890625,1.32451171875,1.34384765625,1.35673828125,1.38251953125,1.4244140625,1.4115234375,1.40185546875,1.3986328125,1.32451171875,1.3212890625,1.32451171875,1.32451171875,1.31806640625,1.327734375,1.33095703125,1.3212890625,1.39541015625,1.7466796875,2.28486328125,2.83271484375,3.10341796875,2.72314453125,1.96259765625,1.2310546875,1.1408203125,1.198828125,1.2568359375,1.29228515625,1.2890625,1.29873046875,1.2826171875,1.27939453125,1.301953125,1.2890625,1.29873046875,1.29228515625,1.30517578125,1.3083984375,1.32451171875,1.33095703125,1.327734375,1.31806640625,1.3212890625,1.32451171875,1.327734375,1.31162109375,1.31162109375,1.29873046875,1.276171875,1.26650390625,1.24716796875,1.24716796875,1.250390625,1.27294921875,1.2826171875,1.26650390625,1.2890625,1.2955078125,1.31484375,1.31162109375,1.31484375,1.32451171875,1.3212890625,1.3083984375,1.31484375,1.3083984375,1.33740234375,1.35673828125,1.34384765625,1.35029296875,1.33095703125,1.33740234375,1.3470703125,1.3341796875,1.3470703125,1.3341796875,1.33095703125,1.3341796875,1.33740234375,1.3341796875,1.3341796875,1.3341796875,1.34384765625,1.33740234375,1.32451171875,1.327734375,1.34384765625,1.34384765625,1.35029296875,1.3857421875,1.3857421875,1.3921875,1.40185546875,1.42119140625,1.42119140625,1.42119140625,1.4630859375,1.4888671875,1.5146484375,1.4953125,1.44375,1.38896484375,1.36318359375,1.36640625,1.36318359375,1.35029296875,1.3212890625,1.33095703125,1.31162109375,1.40830078125,1.83369140625,2.40087890625,2.9712890625,3.183984375,2.70703125,1.869140625,1.16015625,1.1021484375,1.1859375,1.24072265625,1.224609375,1.250390625,1.24716796875,1.26005859375,1.2568359375,1.24072265625,1.24716796875,1.26328125,1.26005859375,1.2697265625,1.26328125,1.30517578125,1.32451171875,1.31162109375,1.31484375,1.3083984375,1.3212890625,1.32451171875,1.3083984375,1.31806640625,1.30517578125,1.3083984375,1.31484375,1.2890625,1.301953125,1.29228515625,1.32451171875,1.3212890625,1.33095703125,1.31806640625,1.3470703125,1.35029296875,1.36640625,1.35029296875,1.379296875,1.3599609375,1.35029296875,1.36640625,1.35673828125,1.37607421875,1.353515625,1.340625,1.34384765625,1.3599609375,1.3341796875,1.31806640625,1.35029296875,1.3341796875,1.3470703125,1.3341796875,1.34384765625,1.340625,1.3341796875,1.30517578125,1.31806640625,1.31484375,1.3212890625,1.33095703125,1.3212890625,1.36640625,1.3470703125,1.340625,1.3470703125,1.35673828125,1.3470703125,1.35673828125,1.36640625,1.3341796875,1.36962890625,1.405078125,1.41796875,1.4244140625,1.430859375,1.37607421875,1.3212890625,1.30517578125,1.31484375,1.2955078125,1.28583984375,1.276171875,1.26005859375,1.27939453125,1.36962890625,1.8369140625,2.40732421875,2.96806640625,2.94873046875,2.3654296875,1.61455078125,1.13115234375,1.07958984375,1.20849609375,1.26650390625,1.26328125,1.26650390625,1.26005859375,1.2826171875,1.31162109375,1.29228515625,1.29873046875,1.31806640625,1.31806640625,1.31806640625,1.327734375,1.36318359375,1.31806640625,1.33740234375,1.340625,1.36962890625,1.35029296875,1.3470703125,1.3341796875,1.31806640625,1.3599609375,1.36640625,1.353515625,1.3212890625,1.340625,1.34384765625,1.35029296875,1.35673828125,1.36640625,1.39541015625,1.36318359375,1.40185546875,1.40185546875,1.39541015625,1.38251953125,1.3857421875,1.38896484375,1.40830078125,1.3921875,1.38896484375,1.405078125,1.42763671875,1.42119140625,1.41474609375,1.37607421875,1.3986328125,1.405078125,1.40185546875,1.3921875,1.36640625,1.3599609375,1.3470703125,1.340625,1.31806640625,1.3470703125,1.3341796875,1.31806640625,1.32451171875,1.340625,1.3599609375,1.353515625,1.379296875,1.379296875,1.36962890625,1.38251953125,1.353515625,1.36318359375,1.3341796875,1.37607421875,1.4115234375,1.4373046875,1.42119140625,1.405078125,1.35029296875,1.327734375,1.31806640625,1.33095703125,1.2826171875,1.31484375,1.2890625,1.29228515625,1.327734375,1.50498046875,1.95615234375,2.4427734375,2.80048828125,2.6876953125,2.0431640625,1.40185546875,1.173046875,1.17626953125,1.26005859375,1.2697265625,1.2890625,1.31806640625,1.3083984375,1.3083984375,1.29228515625,1.31162109375,1.3212890625,1.31162109375,1.3212890625,1.29873046875,1.30517578125,1.31806640625,1.31806640625,1.31162109375,1.29873046875,1.28583984375,1.27939453125,1.31806640625,1.301953125,1.2890625,1.29228515625,1.301953125,1.30517578125,1.3212890625,1.31806640625,1.31484375,1.3341796875,1.33740234375,1.33740234375,1.34384765625,1.35029296875,1.35029296875,1.3599609375,1.36318359375,1.327734375,1.3599609375,1.34384765625,1.34384765625,1.33740234375,1.34384765625,1.340625,1.353515625,1.353515625,1.36640625,1.35673828125,1.36640625,1.37607421875,1.3728515625,1.35673828125,1.35673828125,1.35029296875,1.3341796875,1.327734375,1.340625,1.327734375,1.353515625,1.353515625,1.340625,1.3341796875,1.340625,1.353515625,1.3470703125,1.327734375,1.36640625,1.3341796875,1.33740234375,1.35029296875,1.36962890625,1.41796875,1.43408203125,1.4244140625,1.38896484375,1.32451171875,1.31484375,1.29873046875,1.3083984375,1.2826171875,1.28583984375,1.2890625,1.2955078125,1.35673828125,1.65966796875,2.15595703125,2.69736328125,3.0099609375,2.78759765625,2.0431640625,1.2890625,1.1537109375,1.20205078125,1.2697265625,1.29228515625,1.28583984375,1.2955078125,1.2826171875,1.29873046875,1.2955078125,1.30517578125,1.31162109375,1.31806640625,1.3212890625,1.3212890625,1.31484375,1.3341796875,1.340625,1.33740234375,1.340625,1.33740234375,1.353515625,1.36318359375,1.353515625,1.34384765625,1.353515625,1.3470703125,1.3341796875,1.3599609375,1.36640625,1.33740234375,1.3470703125,1.35029296875,1.3728515625,1.3857421875,1.379296875,1.36640625,1.3728515625,1.37607421875,1.36318359375,1.36318359375,1.353515625,1.3470703125,1.3470703125,1.3470703125,1.35029296875,1.3470703125,1.3341796875,1.3599609375,1.3599609375,1.36318359375,1.36640625,1.3599609375,1.37607421875,1.353515625,1.3599609375,1.3470703125,1.340625,1.327734375,1.3212890625,1.31806640625,1.340625,1.3341796875,1.3341796875,1.327734375,1.33095703125,1.340625,1.31806640625,1.35673828125,1.353515625,1.34384765625,1.35673828125,1.36640625,1.40185546875,1.42763671875,1.4244140625,1.4115234375,1.327734375,1.327734375,1.30517578125,1.301953125,1.31162109375,1.2890625,1.31162109375,1.3083984375,1.31806640625,1.4953125,1.972265625,2.53623046875,3.07119140625,3.01318359375,2.307421875,1.46630859375,1.11826171875,1.11181640625,1.19560546875,1.2375,1.23427734375,1.2568359375,1.26328125,1.26328125,1.276171875,1.26005859375,1.276171875,1.26650390625,1.276171875,1.2826171875,1.28583984375,1.301953125,1.2955078125,1.29873046875,1.3083984375,1.301953125,1.3341796875,1.3083984375,1.31162109375,1.3212890625,1.30517578125,1.30517578125,1.30517578125,1.2826171875,1.2890625,1.29228515625,1.29873046875,1.31162109375,1.31806640625,1.33740234375,1.3341796875,1.353515625,1.35029296875,1.3470703125,1.34384765625,1.3341796875,1.340625,1.3341796875,1.3341796875,1.3599609375,1.3599609375,1.37607421875,1.3728515625,1.3728515625,1.36962890625,1.3470703125,1.3470703125,1.35029296875,1.3470703125,1.340625,1.35029296875,1.35029296875,1.35029296875,1.340625,1.34384765625,1.33095703125,1.33095703125,1.33740234375,1.327734375,1.33095703125,1.3212890625,1.353515625,1.37607421875,1.37607421875,1.38251953125,1.38251953125,1.3921875,1.4115234375,1.4501953125,1.48564453125,1.482421875,1.4888671875,1.482421875,1.379296875,1.37607421875,1.34384765625,1.353515625,1.340625,1.32451171875,1.3470703125,1.3341796875,1.33740234375,1.5404296875,2.03994140625,2.64580078125,3.1646484375,3.09697265625,2.358984375,1.4630859375,1.15048828125,1.15048828125,1.23427734375,1.27939453125,1.2697265625,1.27294921875,1.29228515625,1.301953125,1.27294921875,1.2826171875,1.276171875,1.27939453125,1.29873046875,1.31806640625,1.31162109375,1.3083984375,1.31162109375,1.31162109375,1.31484375,1.28583984375,1.30517578125,1.3212890625,1.31806640625,1.32451171875,1.32451171875,1.32451171875,1.31162109375,1.32451171875,1.327734375,1.31806640625,1.32451171875,1.3212890625,1.340625,1.340625,1.35029296875,1.3599609375,1.3470703125,1.35029296875,1.327734375,1.32451171875,1.31162109375,1.301953125,1.3341796875,1.327734375,1.3212890625,1.3470703125,1.31806640625,1.33095703125,1.3212890625,1.32451171875,1.33740234375,1.301953125,1.3083984375,1.30517578125,1.31806640625,1.3212890625,1.31162109375,1.33095703125,1.31806640625,1.301953125,1.3083984375,1.31162109375,1.32451171875,1.301953125,1.301953125,1.30517578125,1.3212890625,1.3470703125,1.34384765625,1.36962890625,1.353515625,1.34384765625,1.36962890625,1.3986328125,1.42119140625,1.42119140625,1.41474609375,1.35673828125,1.31162109375,1.2955078125,1.3083984375,1.31162109375,1.3083984375,1.3083984375,1.301953125,1.3083984375,1.4501953125,1.91748046875,2.5265625,3.029296875,2.9197265625,2.281640625,1.5017578125,1.12470703125,1.11181640625,1.20849609375,1.26328125,1.27939453125,1.2697265625,1.27294921875,1.2890625,1.2890625,1.33095703125,1.30517578125,1.33740234375,1.33095703125,1.31484375,1.31484375,1.3212890625,1.3470703125,1.353515625,1.3341796875,1.340625,1.33095703125,1.32451171875,1.340625,1.31806640625,1.33095703125,1.31806640625,1.3212890625,1.31162109375,1.31484375,1.340625,1.31806640625,1.3470703125,1.3599609375,1.3599609375,1.38896484375,1.3728515625,1.37607421875,1.37607421875,1.3728515625,1.3728515625,1.36640625,1.379296875,1.38251953125,1.3986328125,1.3986328125,1.41796875,1.41474609375,1.4373046875,1.42763671875,1.430859375,1.42119140625,1.42119140625,1.4115234375,1.3921875,1.405078125,1.38896484375,1.3921875,1.38251953125,1.37607421875,1.36640625,1.34384765625,1.34384765625,1.3341796875,1.33740234375,1.34384765625,1.34384765625,1.3599609375,1.36318359375,1.353515625,1.36640625,1.353515625,1.3728515625,1.40185546875,1.42119140625,1.44375,1.44052734375,1.45986328125,1.39541015625,1.36318359375,1.31806640625,1.29873046875,1.30517578125,1.29873046875,1.301953125,1.2955078125,1.2955078125,1.4244140625,1.9013671875,2.4556640625,3.00029296875,3.03251953125,2.44599609375,1.65,1.12470703125,1.09892578125,1.198828125,1.2439453125,1.23427734375,1.22783203125,1.2439453125,1.250390625,1.2375,1.2439453125,1.2439453125,1.250390625,1.250390625,1.26328125,1.2826171875,1.27939453125,1.2826171875,1.2826171875,1.29873046875,1.301953125,1.29228515625,1.301953125,1.29873046875,1.29873046875,1.30517578125,1.2955078125,1.29873046875,1.27939453125,1.2955078125,1.29228515625,1.27939453125,1.29873046875,1.31162109375,1.33095703125,1.32451171875,1.31484375,1.31484375,1.31162109375,1.31162109375,1.31484375,1.3083984375,1.30517578125,1.3083984375,1.30517578125,1.3212890625,1.30517578125,1.31162109375,1.3212890625,1.32451171875,1.31806640625,1.3083984375,1.32451171875,1.32451171875,1.33740234375,1.327734375,1.32451171875,1.31162109375,1.31162109375,1.3083984375,1.31806640625,1.31162109375,1.327734375,1.33740234375,1.3341796875,1.33095703125,1.34384765625,1.36318359375,1.3599609375,1.353515625,1.3921875,1.353515625,1.35673828125,1.379296875,1.42119140625,1.43408203125,1.4759765625,1.44697265625,1.405078125,1.35029296875,1.3341796875,1.29873046875,1.29228515625,1.2826171875,1.30517578125,1.301953125,1.28583984375,1.379296875,1.81435546875,2.410546875,2.990625,3.183984375,2.66513671875,1.80146484375,1.16015625,1.121484375,1.224609375,1.29873046875,1.29873046875,1.3212890625,1.3083984375,1.327734375,1.33095703125,1.3470703125,1.3599609375,1.353515625,1.35029296875,1.36962890625,1.3728515625,1.3728515625,1.37607421875,1.353515625,1.34384765625,1.353515625,1.35029296875,1.3599609375,1.340625,1.340625,1.340625,1.33740234375,1.327734375,1.31806640625,1.33740234375,1.3212890625,1.327734375,1.35029296875,1.340625,1.38896484375,1.37607421875,1.3921875,1.3728515625,1.36962890625,1.3728515625,1.353515625,1.36962890625,1.3599609375,1.3470703125,1.3599609375,1.33740234375,1.35029296875,1.35029296875,1.33740234375,1.353515625,1.327734375,1.3599609375,1.35029296875,1.36640625,1.36318359375,1.34384765625,1.3728515625,1.36318359375,1.3470703125,1.353515625,1.35029296875,1.36962890625,1.34384765625,1.36318359375,1.36640625,1.3470703125,1.3599609375,1.37607421875,1.38251953125,1.36318359375,1.36962890625,1.37607421875,1.36962890625,1.3728515625,1.42119140625,1.43408203125,1.46630859375,1.4501953125,1.41474609375,1.340625,1.31162109375,1.31806640625,1.30517578125,1.301953125,1.27939453125,1.29228515625,1.29873046875,1.31484375,1.62099609375,2.1849609375,2.75859375,3.0744140625,2.76181640625,1.95615234375,1.21171875,1.069921875,1.15048828125,1.224609375,1.2375,1.250390625,1.24072265625,1.2697265625,1.2568359375,1.24716796875,1.25361328125,1.25361328125,1.26650390625,1.26650390625,1.2568359375,1.26328125,1.26005859375,1.276171875,1.2890625,1.2890625,1.29228515625,1.2955078125,1.3083984375,1.31162109375,1.31484375,1.3212890625,1.30517578125,1.2890625,1.3083984375,1.2955078125,1.3083984375,1.31162109375,1.327734375,1.3341796875,1.340625,1.340625,1.35673828125,1.353515625,1.35673828125,1.33095703125,1.3212890625,1.327734375,1.340625,1.340625,1.34384765625,1.353515625,1.3728515625,1.35673828125,1.36318359375,1.38251953125,1.36962890625,1.36640625,1.36962890625,1.3728515625,1.37607421875,1.379296875,1.36318359375,1.37607421875,1.36962890625,1.36318359375,1.35673828125,1.3341796875,1.3341796875,1.327734375,1.327734375,1.33095703125,1.353515625,1.35673828125,1.3341796875,1.35029296875,1.379296875,1.353515625,1.35673828125,1.40185546875,1.41474609375,1.43408203125,1.4244140625,1.40830078125,1.33095703125,1.30517578125,1.28583984375,1.276171875,1.28583984375,1.26005859375,1.27294921875,1.2890625,1.29228515625,1.5404296875,2.0689453125,2.64580078125,3.09697265625,2.99384765625,2.26875,1.430859375,1.15048828125,1.1666015625,1.24716796875,1.30517578125,1.29228515625,1.29228515625,1.30517578125,1.30517578125,1.31484375,1.3083984375,1.29873046875,1.31484375,1.31806640625,1.3341796875,1.32451171875,1.3212890625,1.3212890625,1.29873046875,1.29228515625,1.301953125,1.2955078125,1.301953125,1.301953125,1.31484375,1.3212890625,1.29228515625,1.2890625,1.2890625,1.2826171875,1.2890625,1.30517578125,1.3083984375,1.32451171875,1.34384765625,1.3470703125,1.3470703125,1.35673828125,1.35029296875,1.35029296875,1.33740234375,1.327734375,1.33740234375,1.353515625,1.37607421875,1.37607421875,1.36640625,1.379296875,1.3857421875,1.3921875,1.3921875,1.37607421875,1.37607421875,1.37607421875,1.353515625,1.35673828125,1.34384765625,1.3341796875,1.33095703125,1.35673828125,1.36640625,1.35029296875,1.36640625,1.36318359375,1.36962890625,1.3728515625,1.38251953125,1.38251953125,1.3728515625,1.3599609375,1.36962890625,1.35673828125,1.35673828125,1.37607421875,1.405078125,1.42119140625,1.41796875,1.42119140625,1.340625,1.29873046875,1.28583984375,1.2697265625,1.2955078125,1.276171875,1.2826171875,1.2697265625,1.2697265625,1.41796875,1.9142578125,2.5330078125,3.106640625,3.10986328125,2.47822265625,1.56943359375,1.10859375,1.0828125,1.1794921875,1.2310546875,1.2310546875,1.26005859375,1.26650390625,1.250390625,1.26328125,1.26650390625,1.28583984375,1.27939453125,1.301953125,1.29873046875,1.29873046875,1.31806640625,1.31484375,1.29228515625,1.29873046875,1.3083984375,1.340625,1.3470703125,1.353515625,1.340625,1.35029296875,1.36962890625,1.340625,1.327734375,1.340625,1.31484375,1.33095703125,1.37607421875,1.36318359375,1.36640625,1.3857421875,1.3857421875,1.36640625,1.36962890625,1.37607421875,1.37607421875,1.3728515625,1.3728515625,1.379296875,1.379296875,1.36318359375,1.38251953125,1.3728515625,1.36318359375,1.3599609375,1.36318359375,1.379296875,1.38251953125,1.36318359375,1.3857421875,1.379296875,1.40185546875,1.379296875,1.38896484375,1.405078125,1.36962890625,1.36962890625,1.36962890625,1.37607421875,1.37607421875,1.379296875,1.38896484375,1.405078125,1.405078125,1.3986328125,1.43408203125,1.43408203125,1.4373046875,1.4373046875,1.47919921875,1.4953125,1.53720703125,1.51142578125,1.482421875,1.41796875,1.3921875,1.38896484375,1.38251953125,1.35673828125,1.3599609375
1.55654296875,2.07861328125,2.67158203125,3.20009765625,3.132421875,2.39443359375,1.50498046875,1.16015625,1.15048828125,1.25361328125,1.30517578125,1.29228515625,1.2826171875,1.29873046875,1.29873046875,1.301953125,1.31162109375,1.3212890625,1.3212890625,1.33095703125,1.327734375,1.340625,1.33095703125,1.31806640625,1.33095703125,1.3341796875,1.3470703125,1.353515625,1.33095703125,1.327734375,1.327734375,1.3212890625,1.31806640625,1.32451171875,1.3341796875,1.32451171875,1.31162109375,1.34384765625,1.33740234375,1.35029296875,1.353515625,1.3728515625,1.36640625,1.36962890625,1.3728515625,1.35673828125,1.36962890625,1.3341796875,1.32451171875,1.353515625,1.3341796875,1.3470703125,1.35029296875,1.36640625,1.3728515625,1.3599609375,1.3728515625,1.35029296875,1.35673828125,1.3470703125,1.340625,1.33740234375,1.33740234375,1.3470703125,1.340625,1.33095703125,1.340625,1.327734375,1.340625,1.340625,1.33740234375,1.340625,1.353515625,1.36318359375,1.37607421875,1.353515625,1.3921875,1.36962890625,1.37607421875,1.36962890625,1.4115234375,1.430859375,1.44052734375,1.44697265625,1.430859375,1.3341796875,1.327734375,1.30517578125,1.31162109375,1.30517578125,1.29873046875,1.3083984375,1.29228515625,1.30517578125,1.55009765625,2.0689453125,2.668359375,3.0744140625,2.8939453125,2.13017578125,1.31806640625,1.08603515625,1.0828125,1.1794921875,1.23427734375,1.23427734375,1.2439453125,1.2439453125,1.27294921875,1.2826171875,1.28583984375,1.2955078125,1.30517578125,1.31484375,1.31162109375,1.31806640625,1.31484375,1.3212890625,1.33095703125,1.340625,1.3470703125,1.33095703125,1.327734375,1.327734375,1.32451171875,1.31806640625,1.3212890625,1.31162109375,1.2890625,1.31162109375,1.3083984375,1.3212890625,1.33740234375,1.3470703125,1.35673828125,1.353515625,1.3599609375,1.340625,1.3470703125,1.340625,1.3212890625,1.3341796875,1.32451171875,1.33740234375,1.340625,1.3341796875,1.3599609375,1.35673828125,1.36318359375,1.353515625,1.35029296875,1.35029296875,1.327734375,1.3212890625,1.31806640625,1.3083984375,1.31806640625,1.301953125,1.2955078125,1.31484375,1.3083984375,1.33095703125,1.3212890625,1.31162109375,1.327734375,1.327734375,1.34384765625,1.3470703125,1.35029296875,1.340625,1.36962890625,1.38251953125,1.379296875,1.36640625,1.41796875,1.4244140625,1.45341796875,1.4244140625,1.3921875,1.31806640625,1.29873046875,1.28583984375,1.27294921875,1.26328125,1.26650390625,1.26328125,1.2697265625,1.301953125,1.59521484375,2.165625,2.7521484375,3.18076171875,2.99384765625,2.18818359375,1.33095703125,1.1150390625,1.17626953125,1.24716796875,1.27939453125,1.28583984375,1.2890625,1.27939453125,1.26650390625,1.27939453125,1.26328125,1.27939453125,1.28583984375,1.276171875,1.29228515625,1.30517578125,1.31162109375,1.340625,1.33740234375,1.340625,1.35029296875,1.3728515625,1.36962890625,1.36318359375,1.35029296875,1.35029296875,1.33740234375,1.3341796875,1.31806640625,1.32451171875,1.340625,1.33740234375,1.36962890625,1.36962890625,1.38251953125,1.379296875,1.36640625,1.35673828125,1.340625,1.340625,1.327734375,1.33095703125,1.3341796875,1.3083984375,1.31162109375,1.3083984375,1.3212890625,1.32451171875,1.30517578125,1.32451171875,1.34384765625,1.340625,1.34384765625,1.3341796875,1.34384765625,1.3341796875,1.340625,1.35673828125,1.34384765625,1.35029296875,1.36962890625,1.35029296875,1.36640625,1.36640625,1.33740234375,1.35673828125,1.35029296875,1.36640625,1.379296875,1.35029296875,1.39541015625,1.36962890625,1.37607421875,1.3857421875,1.42763671875,1.42763671875,1.45986328125,1.44375,1.42763671875,1.353515625,1.340625,1.31484375,1.31162109375,1.2890625,1.29228515625,1.2890625,1.2826171875,1.32451171875,1.5919921875,2.178515625,2.7908203125,3.19365234375,2.977734375,2.1140625,1.26328125,1.0892578125,1.13759765625,1.21494140625,1.2439453125,1.250390625,1.24716796875,1.24716796875,1.2697265625,1.28583984375,1.2826171875,1.2890625,1.28583984375,1.2955078125,1.2955078125,1.301953125,1.3083984375,1.31162109375,1.30517578125,1.3212890625,1.33095703125,1.327734375,1.340625,1.35673828125,1.33740234375,1.340625,1.33095703125,1.3341796875,1.3341796875,1.3470703125,1.3341796875,1.340625,1.36962890625,1.3857421875,1.38896484375,1.405078125,1.4115234375,1.39541015625,1.38896484375,1.36962890625,1.36318359375,1.36318359375,1.35673828125,1.36640625,1.35029296875,1.353515625,1.3470703125,1.36640625,1.36962890625,1.3599609375,1.353515625,1.3599609375,1.340625,1.340625,1.3341796875,1.32451171875,1.32451171875,1.31484375,1.31162109375,1.3083984375,1.29873046875,1.31162109375,1.3083984375,1.3083984375,1.31484375,1.31484375,1.32451171875,1.340625,1.36318359375,1.3341796875,1.379296875,1.36640625,1.35673828125,1.36962890625,1.42119140625,1.45341796875,1.46953125,1.44052734375,1.4244140625,1.35673828125,1.33740234375,1.32451171875,1.31484375,1.29873046875,1.2955078125,1.301953125,1.29873046875,1.3212890625,1.559765625,2.1076171875,2.6876953125,3.106640625,2.89716796875,2.13662109375,1.3083984375,1.11181640625,1.1408203125,1.22783203125,1.26650390625,1.26650390625,1.276171875,1.2890625,1.28583984375,1.29873046875,1.29873046875,1.31162109375,1.31484375,1.29873046875,1.31162109375,1.29873046875,1.3083984375,1.33095703125,1.32451171875,1.3212890625,1.31806640625,1.31162109375,1.31806640625,1.3083984375,1.301953125,1.29228515625,1.29873046875,1.2826171875,1.29873046875,1.29228515625,1.28583984375,1.29228515625,1.2955078125,1.301953125,1.32451171875,1.327734375,1.31484375,1.32451171875,1.32451171875,1.31484375,1.30517578125,1.3083984375,1.301953125,1.30517578125,1.31162109375,1.3212890625,1.33095703125,1.327734375,1.32451171875,1.33095703125,1.33095703125,1.340625,1.3599609375,1.3341796875,1.340625,1.327734375,1.34384765625,1.340625,1.3341796875,1.340625,1.32451171875,1.327734375,1.327734375,1.33740234375,1.3341796875,1.327734375,1.34384765625,1.33740234375,1.37607421875,1.36962890625,1.379296875,1.3986328125,1.38896484375,1.38896484375,1.4115234375,1.42119140625,1.456640625,1.45986328125,1.4244140625,1.35029296875,1.32451171875,1.3083984375,1.301953125,1.2826171875,1.2955078125,1.28583984375,1.2890625,1.29873046875,1.4759765625,1.998046875,2.58779296875,3.14208984375,3.09052734375,2.36865234375,1.48564453125,1.121484375,1.12470703125,1.2181640625,1.25361328125,1.26005859375,1.26650390625,1.27939453125,1.27294921875,1.27939453125,1.27939453125,1.27939453125,1.2955078125,1.31162109375,1.3083984375,1.3212890625,1.31162109375,1.3212890625,1.31484375,1.327734375,1.33095703125,1.33740234375,1.35673828125,1.3599609375,1.35673828125,1.3470703125,1.3212890625,1.33095703125,1.327734375,1.3341796875,1.34384765625,1.3470703125,1.3599609375,1.38251953125,1.38251953125,1.40185546875,1.3986328125,1.3986328125,1.38896484375,1.38251953125,1.36318359375,1.37607421875,1.37607421875,1.38896484375,1.38251953125,1.3728515625,1.36640625,1.3728515625,1.36640625,1.37607421875,1.38896484375,1.40185546875,1.3986328125,1.405078125,1.3921875,1.3921875,1.379296875,1.36962890625,1.38896484375,1.3728515625,1.38896484375,1.36640625,1.3857421875,1.36962890625,1.36318359375,1.35673828125,1.353515625,1.379296875,1.36640625,1.36640625,1.3599609375,1.379296875,1.3728515625,1.353515625,1.36640625,1.3986328125,1.40830078125,1.430859375,1.4115234375,1.3728515625,1.340625,1.29873046875,1.30517578125,1.3083984375,1.31162109375,1.31484375,1.30517578125,1.2955078125,1.36640625,1.766015625,2.358984375,2.951953125,3.18720703125,2.7005859375,1.82724609375,1.095703125,1.0248046875,1.14404296875,1.18271484375,1.21171875,1.2181640625,1.20205078125,1.21171875,1.21494140625,1.2052734375,1.2181640625,1.22138671875,1.2310546875,1.22783203125,1.2375,1.26328125,1.24716796875,1.27939453125,1.2697265625,1.276171875,1.2955078125,1.31162109375,1.3212890625,1.31806640625,1.301953125,1.3083984375,1.3083984375,1.31162109375,1.301953125,1.29873046875,1.3212890625,1.327734375,1.340625,1.35029296875,1.36962890625,1.38251953125,1.36640625,1.3599609375,1.3599609375,1.340625,1.3470703125,1.35029296875,1.3728515625,1.36318359375,1.36962890625,1.36640625,1.34384765625,1.3728515625,1.3728515625,1.36640625,1.37607421875,1.37607421875,1.379296875,1.3728515625,1.36640625,1.35029296875,1.34384765625,1.34384765625,1.340625,1.35029296875,1.34384765625,1.31806640625,1.327734375,1.31806640625,1.3341796875,1.33740234375,1.33095703125,1.3341796875,1.35673828125,1.340625,1.3470703125,1.37607421875,1.36318359375,1.35673828125,1.38251953125,1.40830078125,1.42763671875,1.45341796875,1.4373046875,1.379296875,1.35029296875,1.3083984375,1.32451171875,1.30517578125,1.31806640625,1.3212890625,1.3212890625,1.31162109375,1.43408203125,1.894921875,2.4943359375,3.0421875,3.05830078125,2.4556640625,1.62744140625,1.1150390625,1.095703125,1.20205078125,1.2439453125,1.26005859375,1.26650390625,1.26328125,1.27294921875,1.26328125,1.2697265625,1.276171875,1.27294921875,1.276171875,1.2826171875,1.29873046875,1.31806640625,1.3212890625,1.327734375,1.327734375,1.32451171875,1.3341796875,1.327734375,1.3341796875,1.327734375,1.32451171875,1.3212890625,1.3212890625,1.32451171875,1.301953125,1.30517578125,1.31162109375,1.3212890625,1.33740234375,1.3470703125,1.35673828125,1.379296875,1.36318359375,1.353515625,1.33095703125,1.327734375,1.33095703125,1.3212890625,1.32451171875,1.3212890625,1.3212890625,1.3212890625,1.3212890625,1.33740234375,1.340625,1.34384765625,1.3470703125,1.33740234375,1.353515625,1.34384765625,1.34384765625,1.3470703125,1.33740234375,1.35673828125,1.340625,1.34384765625,1.34384765625,1.3470703125,1.34384765625,1.3470703125,1.3470703125,1.353515625,1.35029296875,1.37607421875,1.38896484375,1.3921875,1.4115234375,1.4115234375,1.42119140625,1.40830078125,1.44697265625,1.4630859375,1.482421875,1.47919921875,1.45341796875,1.379296875,1.3599609375,1.32451171875,1.31162109375,1.29873046875,1.2955078125,1.2955078125,1.2955078125,1.30517578125,1.49208984375,2.0173828125,2.60390625,3.13564453125,3.09052734375,2.371875,1.4888671875,1.12470703125,1.11826171875,1.22783203125,1.26005859375,1.26650390625,1.26328125,1.27294921875,1.2826171875,1.276171875,1.24716796875,1.2697265625,1.28583984375,1.31162109375,1.30517578125,1.3212890625,1.327734375,1.34384765625,1.35029296875,1.34384765625,1.36640625,1.36318359375,1.36640625,1.3599609375,1.327734375,1.32451171875,1.3083984375,1.30517578125,1.301953125,1.2890625,1.29228515625,1.3083984375,1.31806640625,1.33740234375,1.33095703125,1.340625,1.35029296875,1.353515625,1.36318359375,1.340625,1.340625,1.33740234375,1.33740234375,1.340625,1.340625,1.340625,1.33740234375,1.33095703125,1.3341796875,1.33740234375,1.3470703125,1.36640625,1.353515625,1.36640625,1.36318359375,1.36962890625,1.37607421875,1.35673828125,1.353515625,1.35029296875,1.35029296875,1.3470703125,1.3341796875,1.3341796875,1.32451171875,1.327734375,1.327734375,1.3470703125,1.35673828125,1.37607421875,1.35673828125,1.36962890625,1.34384765625,1.35673828125,1.36640625,1.4115234375,1.430859375,1.43408203125,1.44052734375,1.40185546875,1.35673828125,1.3341796875,1.31806640625,1.31806640625,1.2955078125,1.29873046875,1.30517578125,1.2890625,1.33095703125,1.6177734375,2.18818359375,2.81015625,3.22265625,3.02607421875,2.16884765625,1.31484375,1.10859375,1.15693359375,1.25361328125,1.24716796875,1.2568359375,1.25361328125,1.250390625,1.26650390625,1.250390625,1.2697265625,1.26328125,1.2697265625,1.27939453125,1.27939453125,1.276171875,1.301953125,1.3212890625,1.31162109375,1.3212890625,1.31162109375,1.3083984375,1.31162109375,1.29873046875,1.29873046875,1.30517578125,1.29228515625,1.29873046875,1.2955078125,1.2826171875,1.31484375,1.301953125,1.31162109375,1.3212890625,1.327734375,1.3470703125,1.32451171875,1.3341796875,1.340625,1.31162109375,1.32451171875,1.31806640625,1.31806640625,1.327734375,1.31806640625,1.34384765625,1.34384765625,1.340625,1.3470703125,1.3212890625,1.3212890625,1.30517578125,1.30517578125,1.301953125,1.2890625,1.31484375,1.31484375,1.301953125,1.31162109375,1.30517578125,1.32451171875,1.31806640625,1.3083984375,1.2955078125,1.29228515625,1.30517578125,1.29228515625,1.31162109375,1.31806640625,1.31806640625,1.31484375,1.34384765625,1.31806640625,1.31806640625,1.3341796875,1.36640625,1.38251953125,1.40830078125,1.3857421875,1.3470703125,1.3083984375,1.29873046875,1.3083984375,1.29873046875,1.29228515625,1.29873046875,1.2890625,1.29873046875,1.39541015625,1.76923828125,2.371875,2.95517578125,3.1388671875,2.66513671875,1.85302734375,1.1923828125,1.14404296875,1.20849609375,1.27939453125,1.28583984375,1.3083984375,1.301953125,1.32451171875,1.340625,1.33740234375,1.35029296875,1.353515625,1.36318359375,1.3728515625,1.37607421875,1.38896484375,1.3857421875,1.3921875,1.38896484375,1.3857421875,1.42119140625,1.405078125,1.39541015625,1.3986328125,1.39541015625,1.40185546875,1.3728515625,1.36640625,1.36318359375,1.36318359375,1.36318359375,1.36962890625,1.36962890625,1.3921875,1.39541015625,1.41474609375,1.40830078125,1.3921875,1.38896484375,1.38251953125,1.38896484375,1.3857421875,1.3857421875,1.3857421875,1.38896484375,1.3921875,1.38896484375,1.3986328125,1.405078125,1.3921875,1.38896484375,1.38251953125,1.38896484375,1.379296875,1.3728515625,1.379296875,1.36318359375,1.36318359375,1.3599609375,1.3470703125,1.3470703125,1.33740234375,1.327734375,1.32451171875,1.31162109375,1.3212890625,1.31806640625,1.3212890625,1.33740234375,1.3341796875,1.33740234375,1.3470703125,1.34384765625,1.35029296875,1.36318359375,1.38896484375,1.39541015625,1.41474609375,1.40185546875,1.3212890625,1.2955078125,1.2568359375,1.26005859375,1.25361328125,1.2375,1.24072265625,1.22783203125,1.224609375,1.37607421875,1.84658203125,2.4427734375,3.02607421875,3.10341796875,2.50400390625,1.5984375,1.05703125,1.018359375,1.121484375,1.19560546875,1.20205078125,1.22138671875,1.22783203125,1.24072265625,1.2568359375,1.250390625,1.26650390625,1.26005859375,1.2568359375,1.25361328125,1.25361328125,1.2568359375,1.26650390625,1.26650390625,1.2890625,1.2955078125,1.3083984375,1.30517578125,1.32451171875,1.3341796875,1.31484375,1.3212890625,1.30517578125,1.31806640625,1.31162109375,1.3212890625,1.33095703125,1.32451171875,1.3341796875,1.35673828125,1.340625,1.3599609375,1.35673828125,1.35673828125,1.35029296875,1.340625,1.35029296875,1.33740234375,1.353515625,1.35029296875,1.3470703125,1.3599609375,1.3599609375,1.35029296875,1.36318359375,1.35029296875,1.3470703125,1.3470703125,1.3470703125,1.353515625,1.35029296875,1.33740234375,1.34384765625,1.35029296875,1.33740234375,1.33740234375,1.3341796875,1.327734375,1.327734375,1.3341796875,1.32451171875,1.3470703125,1.33740234375,1.36640625,1.37607421875,1.37607421875,1.3921875,1.379296875,1.39541015625,1.3857421875,1.40185546875,1.4373046875,1.45986328125,1.47275390625,1.45341796875,1.3599609375,1.3599609375,1.340625,1.35029296875,1.353515625,1.33740234375,1.327734375,1.3212890625,1.3341796875,1.53720703125,2.05283203125,2.694140625,3.17431640625,3.05830078125,2.27841796875,1.42119140625,1.1279296875,1.134375,1.2310546875,1.2826171875,1.27939453125,1.29873046875,1.28583984375,1.301953125,1.31484375,1.301953125,1.31484375,1.31484375,1.33740234375,1.340625,1.353515625,1.3341796875,1.34384765625,1.353515625,1.35673828125,1.36640625,1.36640625,1.353515625,1.35029296875,1.33740234375,1.33095703125,1.340625,1.3470703125,1.34384765625,1.327734375,1.327734375,1.35029296875,1.35029296875,1.353515625,1.3470703125,1.353515625,1.353515625,1.35029296875,1.3341796875,1.3212890625,1.34384765625,1.32451171875,1.327734375,1.35029296875,1.35029296875,1.35029296875,1.33095703125,1.353515625,1.3470703125,1.353515625,1.36640625,1.3728515625,1.34384765625,1.340625,1.36640625,1.3470703125,1.340625,1.3341796875,1.3341796875,1.33095703125,1.327734375,1.31162109375,1.3083984375,1.30517578125,1.301953125,1.31162109375,1.3212890625,1.30517578125,1.327734375,1.33095703125,1.301953125,1.33095703125,1.31806640625,1.31484375,1.3341796875,1.3599609375,1.39541015625,1.42119140625,1.40185546875,1.379296875,1.30517578125,1.2890625,1.26650390625,1.2568359375,1.24716796875,1.24072265625,1.2568359375,1.2439453125,1.2955078125,1.62744140625,2.16240234375,2.75537109375,3.04541015625,2.7392578125,1.93681640625,1.1859375,1.05380859375,1.10537109375,1.198828125,1.22138671875,1.21494140625,1.2439453125,1.2375,1.24716796875,1.25361328125,1.250390625,1.24716796875,1.24716796875,1.2439453125,1.22783203125,1.2310546875
1.36962890625,1.36962890625,1.36962890625,1.3728515625,1.38251953125,1.38251953125,1.3986328125,1.39541015625,1.38896484375,1.37607421875,1.3728515625,1.36640625,1.36962890625,1.353515625,1.36962890625,1.3599609375,1.36318359375,1.3728515625,1.3728515625,1.34384765625,1.3470703125,1.340625,1.340625,1.33095703125,1.34384765625,1.340625,1.32451171875,1.34384765625,1.33740234375,1.33740234375,1.33095703125,1.33740234375,1.33095703125,1.31806640625,1.3212890625,1.32451171875,1.33095703125,1.3212890625,1.31162109375,1.3212890625,1.3083984375,1.30517578125,1.31484375,1.301953125,1.31484375,1.31806640625,1.31484375,1.33095703125,1.30517578125,1.32451171875,1.34384765625,1.3341796875,1.3341796875,1.31484375,1.34384765625,1.3470703125,1.3470703125,1.3857421875,1.4115234375,1.430859375,1.4373046875,1.44052734375,1.3921875,1.3341796875,1.327734375,1.32451171875,1.3083984375,1.301953125,1.28583984375,1.2955078125,1.3083984375,1.42763671875,1.87236328125,2.46533203125,3.04541015625,3.07763671875,2.49755859375,1.67255859375,1.1408203125,1.12470703125,1.21494140625,1.26328125,1.2826171875,1.27294921875,1.276171875,1.28583984375,1.28583984375,1.30517578125,1.301953125,1.31484375,1.3083984375,1.3212890625,1.3341796875,1.31806640625,1.31162109375,1.31162109375,1.301953125,1.31484375,1.3083984375,1.301953125,1.31484375,1.3083984375,1.3083984375,1.29873046875,1.29873046875,1.29873046875,1.301953125,1.31162109375,1.31484375,1.327734375,1.3470703125,1.3470703125,1.36318359375,1.36640625,1.38251953125,1.36962890625,1.36640625,1.3599609375,1.3470703125,1.3470703125,1.34384765625,1.327734375,1.35029296875,1.340625,1.353515625,1.36640625,1.36318359375,1.36962890625,1.35673828125,1.35673828125,1.36640625,1.36962890625,1.38251953125,1.36962890625,1.3728515625,1.3728515625,1.36962890625,1.36640625,1.35029296875,1.353515625,1.340625,1.32451171875,1.32451171875,1.32451171875,1.33740234375,1.37607421875,1.3728515625,1.36640625,1.39541015625,1.37607421875,1.3728515625,1.3857421875,1.44052734375,1.45341796875,1.46630859375,1.4373046875,1.40830078125,1.353515625,1.33740234375,1.33095703125,1.3212890625,1.31484375,1.31806640625,1.30517578125,1.301953125,1.379296875,1.73701171875,2.31708984375,2.9068359375,3.209765625,2.82626953125,1.99482421875,1.1923828125,1.09248046875,1.16982421875,1.22783203125,1.2439453125,1.26650390625,1.26650390625,1.276171875,1.2826171875,1.26650390625,1.27294921875,1.26328125,1.276171875,1.276171875,1.29228515625,1.28583984375,1.27939453125,1.29228515625,1.2697265625,1.2890625,1.2826171875,1.27939453125,1.27939453125,1.26650390625,1.2697265625,1.2568359375,1.24072265625,1.24072265625,1.250390625,1.23427734375,1.26328125,1.24716796875,1.2697265625,1.31806640625,1.301953125,1.3083984375,1.31806640625,1.327734375,1.31162109375,1.32451171875,1.31484375,1.31484375,1.3341796875,1.3470703125,1.3470703125,1.3470703125,1.3470703125,1.36640625,1.36318359375,1.37607421875,1.38251953125,1.3857421875,1.3986328125,1.38251953125,1.35673828125,1.36962890625,1.3599609375,1.353515625,1.3599609375,1.38251953125,1.39541015625,1.36962890625,1.37607421875,1.3857421875,1.36640625,1.3857421875,1.379296875,1.405078125,1.3986328125,1.3857421875,1.39541015625,1.3857421875,1.379296875,1.43408203125,1.44697265625,1.46953125,1.4888671875,1.4759765625,1.41796875,1.36640625,1.36640625,1.340625,1.33740234375,1.340625,1.34384765625,1.3599609375,1.327734375,1.456640625,1.869140625,2.475,3.0744140625,3.1259765625,2.565234375,1.7337890625,1.15693359375,1.1279296875,1.2375,1.2890625,1.29873046875,1.2890625,1.301953125,1.28583984375,1.29228515625,1.301953125,1.2826171875,1.2955078125,1.301953125,1.31162109375,1.301953125,1.31162109375,1.327734375,1.327734375,1.33095703125,1.31806640625,1.31162109375,1.3341796875,1.3083984375,1.31484375,1.301953125,1.29873046875,1.31484375,1.301953125,1.30517578125,1.31162109375,1.2890625,1.31806640625,1.29873046875,1.32451171875,1.32451171875,1.35029296875,1.3599609375,1.34384765625,1.35673828125,1.34384765625,1.33740234375,1.327734375,1.327734375,1.3341796875,1.327734375,1.327734375,1.32451171875,1.3212890625,1.33740234375,1.327734375,1.3470703125,1.33095703125,1.3341796875,1.3470703125,1.3341796875,1.3341796875,1.327734375,1.327734375,1.3341796875,1.3083984375,1.301953125,1.27939453125,1.27294921875,1.2955078125,1.27939453125,1.26650390625,1.27939453125,1.2826171875,1.29228515625,1.31484375,1.301953125,1.301953125,1.301953125,1.353515625,1.36318359375,1.38251953125,1.3857421875,1.3470703125,1.30517578125,1.2697265625,1.27939453125,1.29228515625,1.2826171875,1.29873046875,1.29228515625,1.28583984375,1.36640625,1.7015625,2.25908203125,2.7908203125,3.0228515625,2.65546875,1.91748046875,1.23427734375,1.121484375,1.1859375,1.2375,1.27294921875,1.276171875,1.26328125,1.276171875,1.27939453125,1.28583984375,1.2955078125,1.31162109375,1.31806640625,1.3341796875,1.33740234375,1.340625,1.33095703125,1.340625,1.34384765625,1.340625,1.35673828125,1.35029296875,1.353515625,1.35029296875,1.35029296875,1.353515625,1.33095703125,1.3341796875,1.33740234375,1.31806640625,1.34384765625,1.3470703125,1.3470703125,1.35029296875,1.37607421875,1.379296875,1.36640625,1.379296875,1.37607421875,1.36962890625,1.36640625,1.35673828125,1.35029296875,1.353515625,1.35673828125,1.38896484375,1.38251953125,1.40185546875,1.40185546875,1.40830078125,1.41474609375,1.3986328125,1.39541015625,1.405078125,1.3857421875,1.3857421875,1.38251953125,1.379296875,1.38251953125,1.36640625,1.3728515625,1.35673828125,1.3599609375,1.3728515625,1.353515625,1.36318359375,1.3599609375,1.37607421875,1.3599609375,1.36962890625,1.36640625,1.3599609375,1.3599609375,1.40185546875,1.42763671875,1.44697265625,1.41474609375,1.37607421875,1.327734375,1.301953125,1.29873046875,1.28583984375,1.276171875,1.27294921875,1.26328125,1.2568359375,1.31484375,1.63388671875,2.16884765625,2.7134765625,3.10341796875,2.8810546875,2.07861328125,1.24716796875,1.09248046875,1.13115234375,1.2052734375,1.22783203125,1.24072265625,1.2375,1.26328125,1.26650390625,1.26328125,1.26650390625,1.26650390625,1.27294921875,1.276171875,1.28583984375,1.30517578125,1.2955078125,1.301953125,1.31162109375,1.33095703125,1.33740234375,1.32451171875,1.327734375,1.33095703125,1.32451171875,1.33095703125,1.31806640625,1.327734375,1.31806640625,1.31484375,1.33095703125,1.33095703125,1.35673828125,1.353515625,1.353515625,1.37607421875,1.36640625,1.37607421875,1.3728515625,1.3728515625,1.36640625,1.3470703125,1.34384765625,1.34384765625,1.33095703125,1.35673828125,1.34384765625,1.36962890625,1.35673828125,1.3599609375,1.36318359375,1.36640625,1.35029296875,1.36962890625,1.36640625,1.36640625,1.3470703125,1.36640625,1.3599609375,1.36962890625,1.36640625,1.35029296875,1.36640625,1.35029296875,1.33740234375,1.353515625,1.353515625,1.36962890625,1.34384765625,1.379296875,1.36318359375,1.340625,1.35029296875,1.3728515625,1.405078125,1.4373046875,1.41474609375,1.39541015625,1.31806640625,1.3212890625,1.29873046875,1.29873046875,1.29873046875,1.29873046875,1.27939453125,1.29228515625,1.353515625,1.67578125,2.2494140625,2.8552734375,3.18076171875,2.89072265625,2.02705078125,1.250390625,1.13115234375,1.20205078125,1.25361328125,1.2890625,1.29873046875,1.31806640625,1.30517578125,1.31162109375,1.31162109375,1.2955078125,1.2826171875,1.30517578125,1.31484375,1.32451171875,1.29873046875,1.29873046875,1.31484375,1.301953125,1.32451171875,1.3083984375,1.3083984375,1.33095703125,1.31162109375,1.3212890625,1.2826171875,1.29873046875,1.2955078125,1.27939453125,1.28583984375,1.28583984375,1.2890625,1.31806640625,1.31806640625,1.340625,1.340625,1.3470703125,1.34384765625,1.340625,1.35029296875,1.340625,1.33740234375,1.340625,1.3470703125,1.36640625,1.35029296875,1.36640625,1.38251953125,1.37607421875,1.36962890625,1.35673828125,1.35673828125,1.3599609375,1.3728515625,1.3857421875,1.405078125,1.3986328125,1.40830078125,1.3857421875,1.3857421875,1.379296875,1.37607421875,1.36318359375,1.340625,1.3470703125,1.3470703125,1.33740234375,1.353515625,1.32451171875,1.34384765625,1.31484375,1.3212890625,1.31484375,1.36962890625,1.3857421875,1.38896484375,1.379296875,1.3470703125,1.276171875,1.26328125,1.26650390625,1.27294921875,1.2568359375,1.24716796875,1.2826171875,1.27939453125,1.2955078125,1.6177734375,2.1462890625,2.69736328125,3.00673828125,2.7263671875,1.95615234375,1.224609375,1.10859375,1.13759765625,1.2181640625,1.26005859375,1.25361328125,1.276171875,1.25361328125,1.2697265625,1.26005859375,1.2568359375,1.276171875,1.2890625,1.29873046875,1.30517578125,1.301953125,1.3083984375,1.301953125,1.301953125,1.31806640625,1.30517578125,1.31484375,1.31162109375,1.327734375,1.33095703125,1.31806640625,1.3212890625,1.31162109375,1.301953125,1.31806640625,1.32451171875,1.31484375,1.3341796875,1.353515625,1.37607421875,1.379296875,1.379296875,1.36318359375,1.36318359375,1.36962890625,1.34384765625,1.35029296875,1.353515625,1.36318359375,1.3599609375,1.36640625,1.3857421875,1.38251953125,1.3857421875,1.379296875,1.39541015625,1.40830078125,1.3857421875,1.379296875,1.3857421875,1.3599609375,1.35029296875,1.340625,1.33740234375,1.3341796875,1.31806640625,1.327734375,1.31806640625,1.3341796875,1.3212890625,1.340625,1.35673828125,1.3599609375,1.3470703125,1.38896484375,1.35673828125,1.37607421875,1.37607421875,1.405078125,1.4244140625,1.44052734375,1.4244140625,1.3921875,1.3341796875,1.32451171875,1.31806640625,1.31162109375,1.29873046875,1.301953125,1.3083984375,1.2890625,1.35673828125,1.6951171875,2.24619140625,2.8294921875,3.1775390625,2.89072265625,2.0689453125,1.2568359375,1.13115234375,1.198828125,1.27294921875,1.27939453125,1.2826171875,1.2955078125,1.29873046875,1.30517578125,1.2890625,1.29873046875,1.2890625,1.29873046875,1.29873046875,1.3083984375,1.2826171875,1.27939453125,1.26650390625,1.2890625,1.28583984375,1.29228515625,1.2955078125,1.29228515625,1.276171875,1.2955078125,1.29873046875,1.30517578125,1.29228515625,1.301953125,1.31806640625,1.32451171875,1.33740234375,1.35029296875,1.3728515625,1.37607421875,1.38896484375,1.3921875,1.36640625,1.379296875,1.37607421875,1.36318359375,1.38251953125,1.36640625,1.3857421875,1.36962890625,1.3857421875,1.36640625,1.3599609375,1.35673828125,1.3599609375,1.36640625,1.3470703125,1.36640625,1.36640625,1.36318359375,1.3599609375,1.37607421875,1.36640625,1.38251953125,1.3599609375,1.35673828125,1.36640625,1.36962890625,1.3599609375,1.36640625,1.3599609375,1.3986328125,1.3728515625,1.38251953125,1.3986328125,1.38251953125,1.3921875,1.3986328125,1.430859375,1.44375,1.46953125,1.43408203125,1.35673828125,1.34384765625,1.32451171875,1.327734375,1.3212890625,1.3212890625,1.31806640625,1.31162109375,1.3083984375,1.43408203125,1.91748046875,2.55234375,3.06796875,3.04541015625,2.40732421875,1.55009765625,1.121484375,1.09892578125,1.20849609375,1.25361328125,1.2697265625,1.26650390625,1.2697265625,1.2890625,1.276171875,1.2890625,1.31162109375,1.31484375,1.3341796875,1.33095703125,1.34384765625,1.340625,1.31806640625,1.327734375,1.3341796875,1.33095703125,1.32451171875,1.3212890625,1.31162109375,1.31162109375,1.2826171875,1.276171875,1.26005859375,1.2697265625,1.27939453125,1.2697265625,1.2826171875,1.301953125,1.327734375,1.31806640625,1.3341796875,1.35673828125,1.35673828125,1.340625,1.340625,1.3341796875,1.32451171875,1.3212890625,1.30517578125,1.31484375,1.3083984375,1.327734375,1.31806640625,1.3341796875,1.32451171875,1.31806640625,1.3470703125,1.34384765625,1.3470703125,1.3470703125,1.34384765625,1.35673828125,1.3470703125,1.36640625,1.353515625,1.3470703125,1.35673828125,1.34384765625,1.33740234375,1.340625,1.35029296875,1.36318359375,1.33740234375,1.32451171875,1.34384765625,1.31162109375,1.32451171875,1.327734375,1.36640625,1.3857421875,1.4115234375,1.4115234375,1.36640625,1.3212890625,1.31162109375,1.29873046875,1.31806640625,1.2955078125,1.29873046875,1.29228515625,1.2890625,1.3470703125,1.6822265625,2.2236328125,2.76826171875,2.9970703125,2.642578125,1.85302734375,1.15048828125,1.07314453125,1.14404296875,1.22138671875,1.21494140625,1.224609375,1.23427734375,1.224609375,1.2310546875,1.22783203125,1.22138671875,1.24072265625,1.26328125,1.27294921875,1.27939453125,1.2826171875,1.2826171875,1.2955078125,1.2890625,1.2890625,1.301953125,1.30517578125,1.31806640625,1.31806640625,1.31806640625,1.31484375,1.31484375,1.31484375,1.3083984375,1.31484375,1.31806640625,1.3341796875,1.3341796875,1.35673828125,1.3470703125,1.36318359375,1.3599609375,1.3599609375,1.35673828125,1.36318359375,1.35673828125,1.36640625,1.3599609375,1.353515625,1.353515625,1.353515625,1.3599609375,1.3470703125,1.3599609375,1.353515625,1.36318359375,1.36962890625,1.3728515625,1.39541015625,1.3857421875,1.38896484375,1.38251953125,1.38251953125,1.3986328125,1.3986328125,1.3921875,1.3986328125,1.3986328125,1.39541015625,1.4115234375,1.4115234375,1.42119140625,1.41474609375,1.4244140625,1.41474609375,1.41474609375,1.40830078125,1.44052734375,1.4630859375,1.47275390625,1.49208984375,1.4888671875,1.38896484375,1.3728515625,1.33740234375,1.32451171875,1.32451171875,1.3083984375,1.3083984375,1.29228515625,1.29873046875,1.47919921875,1.972265625,2.56845703125,3.12275390625,3.09697265625,2.4169921875,1.55654296875,1.1666015625,1.16337890625,1.2439453125,1.2955078125,1.28583984375,1.301953125,1.3083984375,1.30517578125,1.31806640625,1.29228515625,1.31806640625,1.3083984375,1.29228515625,1.3083984375,1.32451171875,1.31162109375,1.3212890625,1.3341796875,1.340625,1.31162109375,1.31484375,1.3083984375,1.301953125,1.3083984375,1.29873046875,1.31162109375,1.29873046875,1.301953125,1.30517578125,1.3212890625,1.327734375,1.3470703125,1.353515625,1.36318359375,1.37607421875,1.38251953125,1.38896484375,1.38251953125,1.36318359375,1.36640625,1.3599609375,1.35029296875,1.3728515625,1.38251953125,1.35673828125,1.36318359375,1.3470703125,1.35673828125,1.36962890625,1.3470703125,1.33095703125,1.3470703125,1.31806640625,1.31484375,1.3083984375,1.301953125,1.31162109375,1.30517578125,1.31806640625,1.327734375,1.327734375,1.3212890625,1.340625,1.33095703125,1.340625,1.3599609375,1.36318359375,1.340625,1.35673828125,1.3470703125,1.34384765625,1.35029296875,1.38896484375,1.41474609375,1.40830078125,1.3986328125,1.34384765625,1.301953125,1.2890625,1.29228515625,1.27294921875,1.276171875,1.29873046875,1.2890625,1.27294921875,1.38896484375,1.8240234375,2.39765625,2.96806640625,2.98740234375,2.42666015625,1.63388671875,1.09248046875,1.095703125,1.19560546875,1.25361328125,1.27294921875,1.28583984375,1.28583984375,1.2955078125,1.2955078125,1.27939453125,1.301953125,1.2955078125,1.28583984375,1.301953125,1.28583984375,1.30517578125,1.3212890625,1.31484375,1.3341796875,1.31484375,1.29873046875,1.31484375,1.3083984375,1.33095703125,1.3083984375,1.2955078125,1.28583984375,1.276171875,1.26005859375,1.26328125,1.28583984375,1.3083984375,1.32451171875,1.3212890625,1.33095703125,1.33095703125,1.3212890625,1.31162109375,1.31484375,1.31484375,1.31484375,1.33095703125,1.327734375,1.34384765625,1.36318359375,1.36962890625,1.36318359375,1.35673828125,1.36962890625,1.3470703125,1.35673828125,1.36640625,1.35673828125,1.36962890625,1.37607421875,1.3857421875,1.37607421875,1.36318359375,1.35673828125,1.353515625,1.3599609375,1.3470703125,1.35673828125,1.3470703125,1.340625,1.36962890625,1.36640625,1.32451171875,1.37607421875,1.3341796875,1.353515625,1.353515625,1.39541015625,1.42763671875,1.45986328125,1.44375,1.4115234375,1.353515625,1.34384765625,1.33095703125,1.327734375,1.34384765625,1.3212890625,1.3341796875,1.30517578125,1.379296875,1.7015625,2.23330078125,2.8166015625,3.1453125,2.8939453125,2.06572265625,1.24716796875,1.11181640625,1.15693359375,1.2310546875,1.25361328125,1.250390625,1.250390625,1.250390625,1.26650390625,1.26328125,1.2568359375,1.2697265625,1.26005859375,1.2826171875,1.2826171875,1.2890625,1.301953125,1.29228515625,1.301953125,1.2955078125,1.28583984375,1.30517578125,1.2826171875,1.2955078125,1.2955078125,1.2890625,1.301953125,1.2955078125,1.31162109375,1.31162109375,1.3212890625,1.3470703125,1.3599609375,1.3857421875,1.3921875,1.379296875,1.37607421875,1.36962890625,1.38251953125,1.37607421875,1.37607421875,1.38896484375,1.40185546875,1.40830078125,1.4115234375,1.3986328125,1.41796875,1.41796875,1.430859375,1.44052734375,1.41796875,1.4373046875,1.42763671875,1.4501953125,1.4373046875,1.44697265625,1.456640625
1.30517578125,1.32451171875,1.30517578125,1.29873046875,1.31484375,1.3341796875,1.3083984375,1.34384765625,1.33095703125,1.35029296875,1.3470703125,1.38896484375,1.41474609375,1.4501953125,1.44697265625,1.40185546875,1.3599609375,1.34384765625,1.33095703125,1.327734375,1.3212890625,1.3212890625,1.31806640625,1.29873046875,1.353515625,1.69833984375,2.26875,2.82626953125,3.1130859375,2.78115234375,1.96259765625,1.18271484375,1.07314453125,1.13759765625,1.224609375,1.22783203125,1.26005859375,1.24716796875,1.24716796875,1.250390625,1.24072265625,1.250390625,1.2439453125,1.24072265625,1.25361328125,1.24072265625,1.250390625,1.25361328125,1.26328125,1.26328125,1.26328125,1.27939453125,1.2697265625,1.27294921875,1.2697265625,1.26005859375,1.27294921875,1.26328125,1.26005859375,1.26005859375,1.250390625,1.26650390625,1.2697265625,1.2826171875,1.30517578125,1.31806640625,1.33740234375,1.3341796875,1.34384765625,1.35029296875,1.34384765625,1.3470703125,1.340625,1.3470703125,1.35673828125,1.353515625,1.379296875,1.36318359375,1.3728515625,1.379296875,1.36640625,1.3728515625,1.37607421875,1.36962890625,1.36640625,1.36640625,1.3857421875,1.37607421875,1.35673828125,1.35673828125,1.35673828125,1.3470703125,1.34384765625,1.3470703125,1.353515625,1.3341796875,1.3599609375,1.37607421875,1.3599609375,1.36640625,1.3857421875,1.3857421875,1.39541015625,1.41474609375,1.43408203125,1.45341796875,1.4888671875,1.46953125,1.38896484375,1.35029296875,1.32451171875,1.33740234375,1.31806640625,1.31806640625,1.31484375,1.31162109375,1.31806640625,1.41474609375,1.88525390625,2.50078125,3.08408203125,3.18076171875,2.60390625,1.69189453125,1.1408203125,1.11181640625,1.21171875,1.27939453125,1.2826171875,1.2826171875,1.3083984375,1.30517578125,1.31162109375,1.31162109375,1.32451171875,1.33095703125,1.34384765625,1.35029296875,1.35673828125,1.36640625,1.353515625,1.340625,1.33095703125,1.31162109375,1.32451171875,1.33740234375,1.32451171875,1.31484375,1.2955078125,1.3083984375,1.29228515625,1.31484375,1.29228515625,1.29873046875,1.3212890625,1.301953125,1.31162109375,1.301953125,1.32451171875,1.31484375,1.31484375,1.301953125,1.31162109375,1.31484375,1.31162109375,1.31162109375,1.31162109375,1.31806640625,1.3083984375,1.32451171875,1.3212890625,1.3470703125,1.33740234375,1.36318359375,1.340625,1.33095703125,1.327734375,1.3341796875,1.33740234375,1.34384765625,1.327734375,1.33740234375,1.3341796875,1.33740234375,1.327734375,1.3341796875,1.32451171875,1.32451171875,1.33740234375,1.33740234375,1.36640625,1.36962890625,1.35673828125,1.38251953125,1.36318359375,1.36640625,1.40185546875,1.42119140625,1.4373046875,1.44697265625,1.4373046875,1.3341796875,1.31806640625,1.28583984375,1.3083984375,1.29228515625,1.301953125,1.2955078125,1.31162109375,1.30517578125,1.48564453125,1.98837890625,2.578125,3.05185546875,2.94228515625,2.255859375,1.46953125,1.1279296875,1.09892578125,1.21171875,1.250390625,1.2697265625,1.26650390625,1.26650390625,1.2697265625,1.2697265625,1.26650390625,1.27294921875,1.28583984375,1.2955078125,1.2890625,1.2955078125,1.301953125,1.31162109375,1.30517578125,1.32451171875,1.31806640625,1.3212890625,1.31484375,1.3083984375,1.301953125,1.327734375,1.327734375,1.33095703125,1.33740234375,1.33740234375,1.33740234375,1.3341796875,1.36962890625,1.3728515625,1.38251953125,1.3857421875,1.37607421875,1.3728515625,1.3857421875,1.353515625,1.36318359375,1.36640625,1.3599609375,1.3599609375,1.36640625,1.38896484375,1.38251953125,1.3921875,1.38896484375,1.38251953125,1.3986328125,1.38896484375,1.38896484375,1.38251953125,1.379296875,1.3857421875,1.37607421875,1.3599609375,1.35673828125,1.3341796875,1.3341796875,1.31484375,1.32451171875,1.327734375,1.31484375,1.340625,1.3470703125,1.36962890625,1.35673828125,1.35673828125,1.35673828125,1.3599609375,1.36640625,1.39541015625,1.41474609375,1.44052734375,1.4244140625,1.3921875,1.3341796875,1.3083984375,1.2955078125,1.29873046875,1.276171875,1.27939453125,1.27939453125,1.27294921875,1.29228515625,1.546875,2.0818359375,2.6296875,3.0744140625,2.92294921875,2.1591796875,1.32451171875,1.06669921875,1.09892578125,1.1794921875,1.20849609375,1.21171875,1.224609375,1.2439453125,1.2439453125,1.26328125,1.27294921875,1.29228515625,1.2955078125,1.29228515625,1.31484375,1.31806640625,1.31806640625,1.327734375,1.340625,1.34384765625,1.353515625,1.35029296875,1.353515625,1.3470703125,1.340625,1.3341796875,1.31484375,1.3212890625,1.3212890625,1.32451171875,1.327734375,1.31806640625,1.33095703125,1.3470703125,1.353515625,1.36962890625,1.3857421875,1.38896484375,1.379296875,1.3857421875,1.36640625,1.3599609375,1.36640625,1.35673828125,1.36318359375,1.379296875,1.33095703125,1.3728515625,1.3470703125,1.35029296875,1.353515625,1.36640625,1.36962890625,1.39541015625,1.33740234375,1.3599609375,1.3341796875,1.34384765625,1.35673828125,1.3083984375,1.34384765625,1.33095703125,1.340625,1.33740234375,1.33740234375,1.3470703125,1.340625,1.35029296875,1.33740234375,1.405078125,1.37607421875,1.38251953125,1.3857421875,1.3921875,1.405078125,1.4630859375,1.430859375,1.40185546875,1.31162109375,1.31162109375,1.276171875,1.29228515625,1.33095703125,1.25361328125,1.27939453125,1.31162109375,1.30517578125,1.5791015625,2.15595703125,2.7392578125,3.2162109375,3.0421875,2.2236328125,1.35029296875,1.11181640625,1.15693359375,1.250390625,1.2697265625,1.24072265625,1.2697265625,1.29873046875,1.28583984375,1.2890625,1.31806640625,1.31806640625,1.3470703125,1.31806640625,1.340625,1.3212890625,1.327734375,1.31806640625,1.327734375,1.31806640625,1.3212890625,1.32451171875,1.3341796875,1.31806640625,1.32451171875,1.31484375,1.301953125,1.31162109375,1.2826171875,1.30517578125,1.3083984375,1.33095703125,1.33095703125,1.3470703125,1.35673828125,1.3599609375,1.36318359375,1.35029296875,1.34384765625,1.32451171875,1.3341796875,1.2955078125,1.301953125,1.31806640625,1.30517578125,1.32451171875,1.33095703125,1.33095703125,1.31806640625,1.31806640625,1.33740234375,1.33095703125,1.32451171875,1.3083984375,1.31484375,1.31162109375,1.2955078125,1.3470703125,1.3212890625,1.27939453125,1.33095703125,1.31806640625,1.276171875,1.29228515625,1.2955078125,1.32451171875,1.31806640625,1.379296875,1.31484375,1.3599609375,1.3212890625,1.32451171875,1.340625,1.353515625,1.3921875,1.405078125,1.39541015625,1.3857421875,1.2955078125,1.301953125,1.3212890625,1.29228515625,1.31484375,1.276171875,1.276171875,1.2890625,1.33095703125,1.6435546875,2.20107421875,2.81337890625,3.12919921875,2.81015625,1.96904296875,1.1923828125,1.10859375,1.16982421875,1.250390625,1.28583984375,1.2955078125,1.30517578125,1.2826171875,1.2890625,1.2955078125,1.2955078125,1.29873046875,1.29228515625,1.301953125,1.31484375,1.32451171875,1.34384765625,1.3470703125,1.35673828125,1.35673828125,1.3470703125,1.379296875,1.3857421875,1.3921875,1.40185546875,1.405078125,1.40830078125,1.40185546875,1.40830078125,1.40830078125,1.405078125,1.42119140625,1.430859375,1.4373046875,1.44375,1.430859375,1.41474609375,1.39541015625,1.36962890625,1.36318359375,1.3470703125,1.34384765625,1.34384765625,1.33740234375,1.340625,1.33095703125,1.353515625,1.35029296875,1.34384765625,1.3599609375,1.353515625,1.3599609375,1.33740234375,1.33740234375,1.340625,1.327734375,1.327734375,1.31162109375,1.31806640625,1.31162109375,1.31162109375,1.31162109375,1.29873046875,1.301953125,1.3083984375,1.2955078125,1.31484375,1.3212890625,1.2955078125,1.3341796875,1.30517578125,1.3212890625,1.327734375,1.35029296875,1.3857421875,1.405078125,1.40830078125,1.36318359375,1.3083984375,1.29228515625,1.28583984375,1.2890625,1.2890625,1.2955078125,1.301953125,1.301953125,1.3728515625,1.7208984375,2.26875,2.8681640625,3.2033203125,2.926171875,2.06572265625,1.2697265625,1.13115234375,1.18916015625,1.26650390625,1.27939453125,1.2826171875,1.29873046875,1.31484375,1.3083984375,1.30517578125,1.31162109375,1.31806640625,1.3212890625,1.31484375,1.301953125,1.29873046875,1.31484375,1.30517578125,1.31162109375,1.2955078125,1.301953125,1.301953125,1.29228515625,1.29228515625,1.2890625,1.276171875,1.27294921875,1.2697265625,1.27294921875,1.27939453125,1.2697265625,1.29228515625,1.2890625,1.31162109375,1.30517578125,1.31162109375,1.31162109375,1.31484375,1.3212890625,1.31806640625,1.31484375,1.29873046875,1.31484375,1.3341796875,1.340625,1.3470703125,1.3470703125,1.3470703125,1.353515625,1.36318359375,1.353515625,1.353515625,1.353515625,1.34384765625,1.33740234375,1.34384765625,1.3341796875,1.32451171875,1.3341796875,1.33740234375,1.327734375,1.32451171875,1.32451171875,1.327734375,1.340625,1.35673828125,1.36318359375,1.37607421875,1.34384765625,1.36962890625,1.36962890625,1.36640625,1.36318359375,1.405078125,1.42763671875,1.44697265625,1.44375,1.4244140625,1.3470703125,1.32451171875,1.2955078125,1.3083984375,1.2697265625,1.2955078125,1.27939453125,1.27939453125,1.32451171875,1.62744140625,2.19462890625,2.77470703125,3.16142578125,2.8939453125,2.03671875,1.2439453125,1.0892578125,1.14404296875,1.2375,1.2697265625,1.27939453125,1.27939453125,1.29228515625,1.3083984375,1.30517578125,1.31162109375,1.30517578125,1.31162109375,1.33095703125,1.327734375,1.33095703125,1.33740234375,1.32451171875,1.33095703125,1.327734375,1.3341796875,1.34384765625,1.327734375,1.340625,1.31484375,1.29873046875,1.2890625,1.301953125,1.31484375,1.32451171875,1.3341796875,1.3341796875,1.35029296875,1.36640625,1.37607421875,1.3921875,1.3921875,1.3986328125,1.38896484375,1.379296875,1.3857421875,1.36962890625,1.36962890625,1.36962890625,1.36962890625,1.38896484375,1.38896484375,1.38251953125,1.38896484375,1.38896484375,1.3986328125,1.38896484375,1.38896484375,1.39541015625,1.38251953125,1.38251953125,1.3728515625,1.36640625,1.3599609375,1.35673828125,1.36640625,1.36318359375,1.3470703125,1.353515625,1.35029296875,1.36962890625,1.37607421875,1.3921875,1.3728515625,1.3921875,1.39541015625,1.379296875,1.38251953125,1.42763671875,1.42763671875,1.45341796875,1.4244140625,1.3921875,1.35029296875,1.31162109375,1.3083984375,1.2890625,1.28583984375,1.2890625,1.27939453125,1.28583984375,1.31484375,1.6306640625,2.19140625,2.7650390625,3.15498046875,2.92294921875,2.09150390625,1.2568359375,1.09892578125,1.1537109375,1.20205078125,1.2052734375,1.1859375,1.22783203125,1.24716796875,1.198828125,1.224609375,1.224609375,1.2375,1.25361328125,1.22783203125,1.24716796875,1.24716796875,1.2568359375,1.2890625,1.26650390625,1.26650390625,1.27939453125,1.34384765625,1.30517578125,1.28583984375,1.27294921875,1.26650390625,1.24716796875,1.31484375,1.2890625,1.22783203125,1.26650390625,1.27939453125,1.31484375,1.2955078125,1.31162109375,1.36640625,1.30517578125,1.33740234375,1.31162109375,1.35673828125,1.31484375,1.353515625,1.33740234375,1.340625,1.34384765625,1.35673828125,1.35673828125,1.34384765625,1.340625,1.353515625,1.35673828125,1.353515625,1.38896484375,1.340625,1.3470703125,1.353515625,1.33740234375,1.3470703125,1.33740234375,1.3341796875,1.33740234375,1.327734375,1.327734375,1.33095703125,1.33740234375,1.36318359375,1.37607421875,1.37607421875,1.35673828125,1.38251953125,1.36962890625,1.3728515625,1.3921875,1.42763671875,1.44697265625,1.48564453125,1.43408203125,1.42119140625,1.353515625,1.327734375,1.32451171875,1.301953125,1.30517578125,1.29228515625,1.2890625,1.29228515625,1.33740234375,1.688671875,2.26552734375,2.8875,3.235546875,2.8875,2.0302734375,1.19560546875,1.0892578125,1.15693359375,1.224609375,1.24716796875,1.24716796875,1.250390625,1.26328125,1.26650390625,1.27939453125,1.28583984375,1.2890625,1.3083984375,1.301953125,1.3083984375,1.3212890625,1.34384765625,1.35673828125,1.353515625,1.3728515625,1.36318359375,1.3599609375,1.353515625,1.353515625,1.353515625,1.34384765625,1.33740234375,1.33095703125,1.3341796875,1.33740234375,1.35673828125,1.36962890625,1.36962890625,1.38251953125,1.39541015625,1.3921875,1.3728515625,1.38251953125,1.379296875,1.37607421875,1.353515625,1.32451171875,1.340625,1.33095703125,1.3470703125,1.35029296875,1.33740234375,1.36318359375,1.34384765625,1.34384765625,1.353515625,1.35029296875,1.35029296875,1.35673828125,1.33740234375,1.33740234375,1.33095703125,1.3212890625,1.34384765625,1.2890625,1.3599609375,1.2955078125,1.29873046875,1.28583984375,1.3470703125,1.35029296875,1.3212890625,1.33740234375,1.32451171875,1.36962890625,1.35029296875,1.32451171875,1.35673828125,1.3986328125,1.41474609375,1.42119140625,1.41796875,1.38251953125,1.327734375,1.340625,1.31484375,1.28583984375,1.3083984375,1.3083984375,1.30517578125,1.2890625,1.3921875,1.80791015625,2.371875,2.94228515625,3.0228515625,2.50078125,1.71767578125,1.11181640625,1.069921875,1.2052734375,1.23427734375,1.25361328125,1.250390625,1.27939453125,1.26328125,1.27294921875,1.27939453125,1.26650390625,1.276171875,1.29228515625,1.2955078125,1.30517578125,1.3083984375,1.3212890625,1.327734375,1.35673828125,1.36962890625,1.34384765625,1.353515625,1.36318359375,1.32451171875,1.3212890625,1.31484375,1.33095703125,1.32451171875,1.3212890625,1.33740234375,1.353515625,1.3728515625,1.3599609375,1.3857421875,1.39541015625,1.3921875,1.3857421875,1.37607421875,1.3986328125,1.37607421875,1.36640625,1.36962890625,1.34384765625,1.353515625,1.37607421875,1.38251953125,1.38251953125,1.36962890625,1.37607421875,1.39541015625,1.38251953125,1.3857421875,1.38251953125,1.353515625,1.37607421875,1.35673828125,1.3599609375,1.379296875,1.3728515625,1.36962890625,1.3857421875,1.3728515625,1.32451171875,1.3341796875,1.33740234375,1.340625,1.36318359375,1.35029296875,1.36962890625,1.36640625,1.3470703125,1.36962890625,1.3857421875,1.40830078125,1.430859375,1.42763671875,1.4115234375,1.327734375,1.29873046875,1.2890625,1.2697265625,1.27294921875,1.2697265625,1.276171875,1.27939453125,1.2826171875,1.46953125,1.9916015625,2.565234375,3.1130859375,3.10341796875,2.4234375,1.533984375,1.1150390625,1.1150390625,1.20205078125,1.2439453125,1.25361328125,1.24072265625,1.24072265625,1.2375,1.23427734375,1.2439453125,1.2439453125,1.250390625,1.25361328125,1.26005859375,1.250390625,1.25361328125,1.26650390625,1.22138671875,1.2439453125,1.24716796875,1.25361328125,1.27294921875,1.2697265625,1.2697265625,1.24716796875,1.250390625,1.2439453125,1.24072265625,1.25361328125,1.24716796875,1.2697265625,1.276171875,1.28583984375,1.29228515625,1.301953125,1.31806640625,1.3341796875,1.3212890625,1.340625,1.32451171875,1.340625,1.353515625,1.35029296875,1.36318359375,1.36640625,1.36962890625,1.37607421875,1.3921875,1.39541015625,1.3921875,1.38251953125,1.379296875,1.3986328125,1.3986328125,1.38251953125,1.3728515625,1.36962890625,1.353515625,1.3599609375,1.340625,1.33740234375,1.35029296875,1.3212890625,1.327734375,1.327734375,1.35673828125,1.353515625,1.340625,1.3921875,1.36962890625,1.36640625,1.3921875,1.4373046875,1.456640625,1.4759765625,1.4630859375,1.430859375,1.36962890625,1.353515625,1.3470703125,1.3470703125,1.35029296875,1.3341796875,1.35029296875,1.3341796875,1.4115234375,1.7982421875,2.39765625,3.01962890625,3.22265625,2.7328125,1.87236328125,1.15693359375,1.11826171875,1.198828125,1.27294921875,1.29228515625,1.30517578125,1.31806640625,1.32451171875,1.31162109375,1.31806640625,1.31806640625,1.3341796875,1.31484375,1.32451171875,1.33740234375,1.3212890625,1.33095703125,1.32451171875,1.34384765625,1.353515625,1.3470703125,1.353515625,1.34384765625,1.33740234375,1.327734375,1.32451171875,1.3083984375,1.3083984375,1.301953125,1.31806640625,1.3212890625,1.3341796875,1.34384765625,1.34384765625,1.3599609375,1.3599609375,1.35673828125,1.34384765625,1.33740234375,1.353515625,1.3470703125,1.36318359375,1.35673828125,1.33740234375,1.35029296875,1.33740234375,1.3599609375,1.3599609375,1.36318359375,1.3728515625,1.35029296875,1.35673828125,1.35029296875,1.35673828125,1.35029296875,1.353515625,1.35673828125,1.340625,1.33740234375,1.3341796875,1.327734375,1.3212890625,1.3083984375,1.30517578125,1.301953125,1.2955078125,1.31162109375,1.301953125,1.31162109375,1.31806640625,1.31484375,1.3341796875,1.35673828125,1.36962890625,1.3921875,1.38896484375,1.3728515625,1.29873046875,1.2568359375,1.25361328125,1.24072265625,1.2439453125,1.2439453125,1.23427734375,1.250390625,1.250390625,1.44375,1.9271484375,2.52333984375,2.990625,2.86494140625,2.1978515625,1.3857421875,1.0763671875,1.02802734375,1.16015625,1.18916015625,1.1859375,1.17626953125,1.20205078125,1.20849609375,1.2181640625,1.198828125,1.23427734375,1.20205078125
1.2955078125,1.3212890625,1.31484375,1.2955078125,1.301953125,1.2890625,1.3083984375,1.2826171875,1.28583984375,1.29873046875,1.2890625,1.29873046875,1.32451171875,1.3341796875,1.3470703125,1.3470703125,1.35673828125,1.340625,1.32451171875,1.30517578125,1.3083984375,1.30517578125,1.29873046875,1.31162109375,1.32451171875,1.31484375,1.33740234375,1.32451171875,1.327734375,1.340625,1.3341796875,1.3341796875,1.33740234375,1.3470703125,1.353515625,1.327734375,1.32451171875,1.31806640625,1.31162109375,1.3083984375,1.30517578125,1.3083984375,1.2955078125,1.29873046875,1.30517578125,1.301953125,1.31806640625,1.31806640625,1.33095703125,1.3212890625,1.33095703125,1.3341796875,1.33095703125,1.34384765625,1.3857421875,1.405078125,1.4373046875,1.40830078125,1.379296875,1.327734375,1.29873046875,1.2955078125,1.29873046875,1.30517578125,1.301953125,1.29873046875,1.29228515625,1.33740234375,1.67578125,2.24296875,2.797265625,3.08408203125,2.72958984375,1.946484375,1.21494140625,1.095703125,1.18271484375,1.2697265625,1.29873046875,1.30517578125,1.31806640625,1.34384765625,1.32451171875,1.327734375,1.3341796875,1.33740234375,1.353515625,1.3470703125,1.34384765625,1.34384765625,1.33740234375,1.34384765625,1.3212890625,1.33095703125,1.33740234375,1.32451171875,1.327734375,1.31806640625,1.301953125,1.301953125,1.31806640625,1.3083984375,1.2955078125,1.30517578125,1.2955078125,1.28583984375,1.31484375,1.33095703125,1.34384765625,1.353515625,1.34384765625,1.3470703125,1.33740234375,1.34384765625,1.35029296875,1.35029296875,1.34384765625,1.340625,1.340625,1.3470703125,1.353515625,1.35673828125,1.3599609375,1.353515625,1.34384765625,1.3341796875,1.34384765625,1.33095703125,1.327734375,1.33095703125,1.3212890625,1.31806640625,1.327734375,1.32451171875,1.32451171875,1.327734375,1.33740234375,1.3212890625,1.33095703125,1.353515625,1.35673828125,1.35029296875,1.38251953125,1.36640625,1.37607421875,1.38251953125,1.41796875,1.4501953125,1.46630859375,1.456640625,1.4244140625,1.3599609375,1.33095703125,1.32451171875,1.327734375,1.3212890625,1.31806640625,1.32451171875,1.327734375,1.3599609375,1.62744140625,2.1978515625,2.7779296875,3.23232421875,3.080859375,2.27841796875,1.39541015625,1.1537109375,1.1794921875,1.2697265625,1.27939453125,1.2697265625,1.276171875,1.276171875,1.2826171875,1.27939453125,1.29228515625,1.28583984375,1.29228515625,1.29228515625,1.2955078125,1.3083984375,1.30517578125,1.29228515625,1.31162109375,1.31162109375,1.31484375,1.31484375,1.31806640625,1.31806640625,1.31484375,1.31806640625,1.31162109375,1.301953125,1.31806640625,1.30517578125,1.32451171875,1.31162109375,1.31484375,1.34384765625,1.36962890625,1.3728515625,1.3857421875,1.38251953125,1.3857421875,1.36318359375,1.35673828125,1.353515625,1.35673828125,1.36318359375,1.3470703125,1.340625,1.3341796875,1.34384765625,1.3341796875,1.340625,1.36318359375,1.353515625,1.35673828125,1.35673828125,1.36318359375,1.36962890625,1.36640625,1.36962890625,1.35673828125,1.35673828125,1.36640625,1.36962890625,1.353515625,1.3599609375,1.3599609375,1.3728515625,1.37607421875,1.36640625,1.37607421875,1.36962890625,1.37607421875,1.38251953125,1.40185546875,1.4373046875,1.456640625,1.456640625,1.41796875,1.36318359375,1.33095703125,1.2890625,1.29228515625,1.27294921875,1.276171875,1.2697265625,1.2568359375,1.276171875,1.4501953125,1.94326171875,2.539453125,2.96806640625,2.8359375,2.13662109375,1.35673828125,1.0505859375,1.06669921875,1.16015625,1.2052734375,1.22783203125,1.24716796875,1.250390625,1.27939453125,1.2697265625,1.26650390625,1.27294921875,1.27939453125,1.29228515625,1.2955078125,1.29228515625,1.29228515625,1.301953125,1.31484375,1.32451171875,1.33740234375,1.3470703125,1.3341796875,1.35029296875,1.33095703125,1.32451171875,1.31806640625,1.32451171875,1.3212890625,1.33095703125,1.32451171875,1.3212890625,1.35673828125,1.3341796875,1.33740234375,1.3728515625,1.36318359375,1.353515625,1.340625,1.33095703125,1.3341796875,1.34384765625,1.3341796875,1.340625,1.327734375,1.33740234375,1.340625,1.3341796875,1.33740234375,1.34384765625,1.353515625,1.3470703125,1.34384765625,1.3470703125,1.34384765625,1.353515625,1.353515625,1.34384765625,1.353515625,1.33740234375,1.340625,1.353515625,1.3470703125,1.353515625,1.35029296875,1.379296875,1.39541015625,1.3728515625,1.39541015625,1.38896484375,1.3857421875,1.40185546875,1.4373046875,1.4630859375,1.482421875,1.49208984375,1.4759765625,1.3986328125,1.38896484375,1.3599609375,1.35029296875,1.33095703125,1.31806640625,1.30517578125,1.29228515625,1.2955078125,1.47919921875,1.95615234375,2.513671875,3.003515625,2.94873046875,2.2494140625,1.430859375,1.09892578125,1.095703125,1.20205078125,1.2439453125,1.2375,1.250390625,1.2568359375,1.26650390625,1.2697265625,1.26328125,1.2697265625,1.2568359375,1.2697265625,1.27294921875,1.27939453125,1.2955078125,1.28583984375,1.29873046875,1.30517578125,1.31484375,1.31806640625,1.31484375,1.327734375,1.327734375,1.327734375,1.327734375,1.31806640625,1.3083984375,1.31484375,1.31484375,1.327734375,1.32451171875,1.3470703125,1.33740234375,1.3470703125,1.36640625,1.35029296875,1.35029296875,1.353515625,1.353515625,1.3470703125,1.34384765625,1.340625,1.34384765625,1.35029296875,1.35029296875,1.3341796875,1.33740234375,1.33740234375,1.33095703125,1.3341796875,1.31806640625,1.327734375,1.32451171875,1.31806640625,1.32451171875,1.3341796875,1.340625,1.36640625,1.353515625,1.35673828125,1.35029296875,1.35029296875,1.35029296875,1.35673828125,1.3728515625,1.34384765625,1.38251953125,1.3728515625,1.37607421875,1.379296875,1.40830078125,1.4373046875,1.47275390625,1.456640625,1.430859375,1.3470703125,1.34384765625,1.327734375,1.33095703125,1.32451171875,1.327734375,1.33740234375,1.3341796875,1.36318359375,1.6306640625,2.17529296875,2.771484375,3.22587890625,3.0615234375,2.25263671875,1.379296875,1.16015625,1.1794921875,1.26328125,1.2890625,1.2890625,1.2890625,1.29873046875,1.2955078125,1.301953125,1.28583984375,1.2955078125,1.29873046875,1.31806640625,1.327734375,1.32451171875,1.327734375,1.33740234375,1.301953125,1.3212890625,1.3083984375,1.31484375,1.33095703125,1.32451171875,1.32451171875,1.3083984375,1.3083984375,1.29873046875,1.29228515625,1.29228515625,1.28583984375,1.2826171875,1.3083984375,1.31162109375,1.327734375,1.33095703125,1.3341796875,1.36962890625,1.3599609375,1.353515625,1.3470703125,1.35029296875,1.35029296875,1.35029296875,1.35673828125,1.353515625,1.36640625,1.35673828125,1.353515625,1.3599609375,1.37607421875,1.379296875,1.38251953125,1.3728515625,1.37607421875,1.35673828125,1.353515625,1.353515625,1.3470703125,1.35673828125,1.34384765625,1.340625,1.33095703125,1.3212890625,1.340625,1.353515625,1.35029296875,1.31806640625,1.35029296875,1.3470703125,1.33740234375,1.353515625,1.37607421875,1.405078125,1.430859375,1.40830078125,1.38896484375,1.327734375,1.301953125,1.31484375,1.29228515625,1.30517578125,1.30517578125,1.30517578125,1.3083984375,1.340625,1.62744140625,2.19140625,2.745703125,3.0357421875,2.719921875,1.959375,1.24072265625,1.1150390625,1.2052734375,1.26005859375,1.2890625,1.2955078125,1.29873046875,1.30517578125,1.30517578125,1.31484375,1.2955078125,1.29228515625,1.29228515625,1.28583984375,1.2955078125,1.2890625,1.28583984375,1.29228515625,1.28583984375,1.2955078125,1.27939453125,1.28583984375,1.28583984375,1.28583984375,1.28583984375,1.27939453125,1.2697265625,1.276171875,1.26328125,1.2890625,1.2890625,1.29228515625,1.3083984375,1.3212890625,1.327734375,1.31806640625,1.32451171875,1.30517578125,1.31484375,1.31162109375,1.30517578125,1.301953125,1.301953125,1.30517578125,1.31162109375,1.31484375,1.31806640625,1.33095703125,1.327734375,1.33740234375,1.32451171875,1.31162109375,1.3083984375,1.30517578125,1.29873046875,1.29228515625,1.27939453125,1.29873046875,1.301953125,1.3212890625,1.32451171875,1.31806640625,1.327734375,1.32451171875,1.3470703125,1.3599609375,1.36962890625,1.35673828125,1.3986328125,1.3986328125,1.38896484375,1.40830078125,1.43408203125,1.456640625,1.4759765625,1.456640625,1.40185546875,1.3599609375,1.340625,1.35029296875,1.33740234375,1.33095703125,1.33740234375,1.3212890625,1.31806640625,1.39541015625,1.766015625,2.3138671875,2.87138671875,3.14208984375,2.72314453125,1.9400390625,1.20849609375,1.11181640625,1.21494140625,1.26650390625,1.276171875,1.276171875,1.276171875,1.29228515625,1.3083984375,1.30517578125,1.31484375,1.31806640625,1.33095703125,1.33095703125,1.3341796875,1.33095703125,1.340625,1.34384765625,1.34384765625,1.33740234375,1.3470703125,1.3341796875,1.3599609375,1.35673828125,1.35673828125,1.35029296875,1.353515625,1.35673828125,1.35029296875,1.353515625,1.36318359375,1.353515625,1.37607421875,1.38251953125,1.3986328125,1.405078125,1.405078125,1.405078125,1.39541015625,1.3728515625,1.3728515625,1.3599609375,1.3728515625,1.3728515625,1.3599609375,1.36640625,1.3470703125,1.36962890625,1.36318359375,1.3599609375,1.35673828125,1.340625,1.33095703125,1.327734375,1.32451171875,1.33095703125,1.301953125,1.31806640625,1.3083984375,1.3083984375,1.3083984375,1.29873046875,1.2955078125,1.2890625,1.29228515625,1.31484375,1.301953125,1.32451171875,1.3341796875,1.33740234375,1.3599609375,1.3728515625,1.42119140625,1.44697265625,1.4373046875,1.43408203125,1.353515625,1.3341796875,1.31484375,1.31162109375,1.31162109375,1.31484375,1.327734375,1.3341796875,1.3212890625,1.4630859375,1.91748046875,2.539453125,3.07763671875,3.07119140625,2.43955078125,1.60166015625,1.121484375,1.11826171875,1.2052734375,1.2568359375,1.2826171875,1.2826171875,1.2890625,1.276171875,1.2890625,1.2890625,1.29228515625,1.2890625,1.2955078125,1.301953125,1.30517578125,1.30517578125,1.301953125,1.3212890625,1.29873046875,1.31484375,1.3341796875,1.32451171875,1.3341796875,1.33095703125,1.3212890625,1.327734375,1.30517578125,1.29228515625,1.2955078125,1.32451171875,1.33095703125,1.3599609375,1.38251953125,1.37607421875,1.3728515625,1.41474609375,1.3986328125,1.4115234375,1.4244140625,1.40185546875,1.40185546875,1.3857421875,1.38896484375,1.3921875,1.3921875,1.38896484375,1.379296875,1.37607421875,1.37607421875,1.353515625,1.36640625,1.36318359375,1.34384765625,1.3470703125,1.33740234375,1.33095703125,1.32451171875,1.32451171875,1.34384765625,1.3083984375,1.301953125,1.3083984375,1.29873046875,1.29873046875,1.29228515625,1.3083984375,1.2697265625,1.29228515625,1.29873046875,1.29228515625,1.30517578125,1.32451171875,1.36318359375,1.38896484375,1.3728515625,1.35029296875,1.27939453125,1.276171875,1.2697265625,1.250390625,1.2568359375,1.2568359375,1.250390625,1.26328125,1.2697265625,1.508203125,2.00771484375,2.539453125,2.926171875,2.745703125,2.04638671875,1.30517578125,1.07314453125,1.09892578125,1.1923828125,1.24716796875,1.24716796875,1.2375,1.26328125,1.2697265625,1.28583984375,1.28583984375,1.28583984375,1.28583984375,1.27294921875,1.27939453125,1.2826171875,1.2890625,1.301953125,1.31806640625,1.32451171875,1.31162109375,1.31162109375,1.3212890625,1.31162109375,1.3212890625,1.31162109375,1.3083984375,1.31484375,1.3083984375,1.33095703125,1.3341796875,1.3470703125,1.3728515625,1.3728515625,1.38251953125,1.3857421875,1.38251953125,1.37607421875,1.36962890625,1.37607421875,1.37607421875,1.37607421875,1.38896484375,1.38251953125,1.40185546875,1.38896484375,1.3857421875,1.38896484375,1.38251953125,1.38251953125,1.3728515625,1.379296875,1.379296875,1.38251953125,1.3921875,1.38251953125,1.379296875,1.37607421875,1.36962890625,1.379296875,1.36318359375,1.36640625,1.37607421875,1.37607421875,1.3986328125,1.40185546875,1.39541015625,1.3857421875,1.40830078125,1.40830078125,1.40185546875,1.42763671875,1.45341796875,1.46953125,1.4888671875,1.47275390625,1.40830078125,1.36962890625,1.3470703125,1.3341796875,1.33095703125,1.31806640625,1.327734375,1.31162109375,1.31162109375,1.3857421875,1.8111328125,2.36865234375,2.93583984375,3.15498046875,2.694140625,1.85625,1.17626953125,1.10537109375,1.21494140625,1.26650390625,1.28583984375,1.29873046875,1.301953125,1.3083984375,1.31162109375,1.301953125,1.30517578125,1.2955078125,1.32451171875,1.31806640625,1.3212890625,1.32451171875,1.32451171875,1.3212890625,1.31806640625,1.2890625,1.30517578125,1.31162109375,1.29873046875,1.29873046875,1.28583984375,1.2955078125,1.28583984375,1.29228515625,1.3083984375,1.32451171875,1.327734375,1.33095703125,1.36640625,1.36318359375,1.37607421875,1.3921875,1.38251953125,1.379296875,1.36962890625,1.36318359375,1.35673828125,1.353515625,1.36640625,1.36962890625,1.36318359375,1.36640625,1.35029296875,1.36962890625,1.340625,1.3599609375,1.35673828125,1.35673828125,1.35673828125,1.35673828125,1.34384765625,1.353515625,1.340625,1.327734375,1.2890625,1.2890625,1.2826171875,1.28583984375,1.31162109375,1.30517578125,1.301953125,1.3341796875,1.29228515625,1.327734375,1.3212890625,1.3083984375,1.327734375,1.36318359375,1.3921875,1.42763671875,1.41474609375,1.40830078125,1.340625,1.33740234375,1.32451171875,1.32451171875,1.31162109375,1.2955078125,1.3083984375,1.2826171875,1.30517578125,1.54365234375,2.07861328125,2.63291015625,2.96162109375,2.719921875,1.96904296875,1.22138671875,1.0634765625,1.10537109375,1.198828125,1.2568359375,1.2439453125,1.2697265625,1.276171875,1.2826171875,1.301953125,1.29228515625,1.29873046875,1.29228515625,1.2955078125,1.31162109375,1.30517578125,1.3083984375,1.31484375,1.3212890625,1.31484375,1.30517578125,1.31484375,1.31162109375,1.31806640625,1.3083984375,1.301953125,1.28583984375,1.2890625,1.2826171875,1.2955078125,1.2955078125,1.31806640625,1.31484375,1.327734375,1.33740234375,1.33740234375,1.34384765625,1.34384765625,1.34384765625,1.3341796875,1.34384765625,1.34384765625,1.33740234375,1.353515625,1.35029296875,1.3470703125,1.36318359375,1.35673828125,1.36318359375,1.36962890625,1.36640625,1.36962890625,1.36318359375,1.36640625,1.36318359375,1.3599609375,1.3599609375,1.35673828125,1.36640625,1.3728515625,1.36318359375,1.35673828125,1.33740234375,1.3470703125,1.3470703125,1.3599609375,1.36640625,1.37607421875,1.39541015625,1.38896484375,1.39541015625,1.4373046875,1.456640625,1.4888671875,1.50498046875,1.47919921875,1.40185546875,1.3728515625,1.35673828125,1.3599609375,1.3470703125,1.34384765625,1.3341796875,1.340625,1.33740234375,1.49853515625,1.9916015625,2.54267578125,3.09697265625,3.09052734375,2.4234375,1.57587890625,1.134375,1.134375,1.224609375,1.26328125,1.276171875,1.27294921875,1.2826171875,1.28583984375,1.27939453125,1.29228515625,1.28583984375,1.2890625,1.29228515625,1.29228515625,1.29228515625,1.2826171875,1.301953125,1.2890625,1.29228515625,1.30517578125,1.301953125,1.30517578125,1.31162109375,1.31162109375,1.31484375,1.30517578125,1.29873046875,1.2955078125,1.2890625,1.2955078125,1.2890625,1.32451171875,1.3212890625,1.3470703125,1.36318359375,1.35673828125,1.36962890625,1.36640625,1.353515625,1.37607421875,1.3470703125,1.35029296875,1.33095703125,1.32451171875,1.33740234375,1.32451171875,1.340625,1.3599609375,1.35029296875,1.3599609375,1.353515625,1.35029296875,1.353515625,1.34384765625,1.35029296875,1.33095703125,1.34384765625,1.340625,1.3212890625,1.340625,1.301953125,1.33095703125,1.32451171875,1.31806640625,1.35029296875,1.34384765625,1.33740234375,1.36962890625,1.36640625,1.3728515625,1.379296875,1.40830078125,1.43408203125,1.430859375,1.430859375,1.36962890625,1.3212890625,1.30517578125,1.301953125,1.29228515625,1.301953125,1.30517578125,1.31484375,1.2890625,1.3857421875,1.7724609375,2.36220703125,2.91005859375,2.96806640625,2.45888671875,1.65,1.06669921875,1.05703125,1.15048828125,1.2310546875,1.2310546875,1.2375,1.2181640625,1.2439453125,1.24716796875,1.24072265625,1.25361328125,1.27939453125,1.2890625,1.301953125,1.30517578125,1.31806640625,1.33740234375,1.3470703125,1.36318359375,1.34384765625,1.36640625,1.36962890625,1.36640625,1.379296875,1.36318359375,1.3728515625,1.379296875,1.3470703125,1.353515625,1.3599609375,1.36962890625,1.38251953125,1.3921875,1.41796875,1.405078125,1.41474609375,1.405078125,1.405078125,1.40830078125,1.39541015625,1.39541015625,1.38896484375,1.38896484375,1.38896484375,1.37607421875,1.36962890625,1.3857421875,1.38251953125,1.3921875,1.3857421875,1.38896484375,1.38896484375,1.3857421875,1.38896484375,1.36962890625,1.3857421875,1.38896484375,1.3921875,1.379296875,1.37607421875,1.379296875,1.3857421875,1.379296875,1.40185546875,1.40185546875,1.41474609375,1.39541015625,1.41796875,1.41474609375,1.405078125,1.40830078125,1.4373046875,1.4501953125,1.4759765625,1.4630859375
