1.611328125,1.6177734375,1.59521484375,1.56298828125,1.51142578125,1.44697265625,1.3921875,1.353515625,1.3212890625,1.3083984375,1.30517578125,1.2955078125,1.30517578125,1.3083984375,1.31162109375,1.31806640625,1.32451171875,1.327734375,1.327734375,1.327734375,1.33740234375,1.33095703125,1.3341796875,1.340625,1.33095703125,1.32451171875,1.327734375,1.33095703125,1.32451171875,1.327734375,1.327734375,1.3212890625,1.327734375,1.327734375,1.3212890625,1.32451171875,1.33095703125,1.327734375,1.327734375,1.327734375,1.327734375,1.327734375,1.33095703125,1.33095703125,1.33740234375,1.3341796875,1.3341796875,1.33740234375,1.340625,1.35029296875,1.379296875,1.4244140625,1.43408203125,1.456640625,1.5146484375,1.559765625,1.5919921875,1.5404296875,1.45341796875,1.37607421875,1.33740234375,1.32451171875,1.31484375,1.301953125,1.3083984375,1.3083984375,1.250390625,1.10859375,1.26328125,1.9529296875,2.96806640625,2.8875,1.89169921875,1.1923828125,1.12470703125,1.2375,1.26005859375,1.25361328125,1.250390625,1.26005859375,1.276171875,1.2826171875,1.2955078125,1.2955078125,1.30517578125,1.32451171875,1.33740234375,1.35673828125,1.36962890625,1.38251953125,1.3986328125,1.405078125,1.42119140625,1.43408203125,1.45341796875,1.4630859375,1.48564453125,1.50498046875,1.52431640625,1.546875,1.5662109375,1.56943359375,1.585546875,1.5984375,1.611328125,1.6177734375,1.5919921875,1.55654296875,1.49208984375,1.430859375,1.379296875,1.3341796875,1.31162109375,1.301953125,1.30517578125,1.3083984375,1.301953125,1.29873046875,1.3083984375,1.31162109375,1.31162109375,1.31162109375,1.3212890625,1.3212890625,1.32451171875,1.31806640625,1.31484375,1.31806640625,1.31484375,1.31162109375,1.31806640625,1.31806640625,1.31484375,1.31162109375,1.31484375,1.31806640625,1.3083984375,1.30517578125,1.31484375,1.3083984375,1.31162109375,1.3212890625,1.3212890625,1.31484375,1.31806640625,1.3212890625,1.3212890625,1.32451171875,1.327734375,1.33095703125,1.3212890625,1.340625,1.3921875,1.4115234375,1.4244140625,1.48564453125,1.52431640625,1.56943359375,1.5275390625,1.4373046875,1.3599609375,1.31484375,1.29873046875,1.28583984375,1.27939453125,1.27294921875,1.26650390625,1.25361328125,1.10537109375,1.1794921875,1.76923828125,2.8681640625,2.9197265625,2.02060546875,1.2890625,1.0892578125,1.16982421875,1.24072265625,1.2310546875,1.22138671875,1.23427734375,1.2439453125,1.26328125,1.26650390625,1.28583984375,1.2955078125,1.301953125,1.3212890625,1.33095703125,1.34384765625,1.3599609375,1.36318359375,1.379296875,1.3986328125,1.4115234375,1.42763671875,1.44375,1.4630859375,1.482421875,1.50498046875,1.5275390625,1.55009765625,1.5662109375,1.57587890625,1.5919921875,1.5984375,1.60166015625,1.59521484375,1.5533203125,1.4888671875,1.4244140625,1.3728515625,1.32451171875,1.301953125,1.2890625,1.2955078125,1.2890625,1.2955078125,1.30517578125,1.2955078125,1.29873046875,1.3083984375,1.31162109375,1.29873046875,1.3083984375,1.31162109375,1.3083984375,1.3083984375,1.31484375,1.31806640625,1.3083984375,1.3083984375,1.32451171875,1.31806640625,1.31806640625,1.3212890625,1.31162109375,1.31162109375,1.32451171875,1.31162109375,1.32451171875,1.32451171875,1.327734375,1.31484375,1.3212890625,1.36640625,1.41474609375,1.3921875,1.41474609375,1.52109375,1.59521484375,1.58232421875,1.50498046875,1.42763671875,1.36640625,1.34384765625,1.33095703125,1.31484375,1.31162109375,1.30517578125,1.31484375,1.24716796875,1.1279296875,1.38251953125,2.152734375,2.96484375,2.60712890625,1.64677734375,1.20849609375,1.1150390625,1.22783203125,1.250390625,1.2439453125,1.2439453125,1.250390625,1.2890625,1.301953125,1.31162109375,1.31484375,1.31806640625,1.3341796875,1.34384765625,1.35673828125,1.36640625,1.37607421875,1.39541015625,1.3986328125,1.41796875,1.42763671875,1.43408203125,1.46630859375,1.482421875,1.50498046875,1.52431640625,1.53720703125,1.546875,1.559765625,1.5791015625,1.6048828125,1.5984375,1.5919921875,1.559765625,1.5017578125,1.4373046875,1.3857421875,1.3470703125,1.31162109375,1.30517578125,1.29228515625,1.2890625,1.2955078125,1.29228515625,1.2955078125,1.30517578125,1.3083984375,1.31484375,1.31484375,1.31484375,1.3083984375,1.3083984375,1.30517578125,1.30517578125,1.301953125,1.29873046875,1.2890625,1.29873046875,1.301953125,1.30517578125,1.2890625,1.29228515625,1.29873046875,1.2890625,1.2826171875,1.29228515625,1.30517578125,1.30517578125,1.301953125,1.30517578125,1.30517578125,1.3470703125,1.3921875,1.405078125,1.456640625,1.51787109375,1.55009765625,1.52109375,1.44375,1.3599609375,1.30517578125,1.29228515625,1.27294921875,1.2568359375,1.26005859375,1.26650390625,1.26005859375,1.173046875,1.07958984375,1.43408203125,2.35576171875,2.9583984375,2.53623046875,1.47919921875,1.09892578125,1.173046875,1.250390625,1.24072265625,1.23427734375,1.250390625,1.250390625,1.24716796875,1.27939453125,1.29873046875,1.2955078125,1.3083984375,1.31806640625,1.34384765625,1.35029296875,1.36640625,1.379296875,1.38896484375,1.4115234375,1.430859375,1.44375,1.45986328125,1.46630859375,1.49853515625,1.52109375,1.53720703125,1.55654296875,1.5662109375,1.58232421875,1.59521484375,1.5984375,1.6177734375,1.5984375,1.5662109375,1.51142578125,1.4501953125,1.38896484375,1.3341796875,1.31484375,1.3083984375,1.3083984375,1.31806640625,1.31806640625,1.3212890625,1.3212890625,1.3212890625,1.32451171875,1.3212890625,1.32451171875,1.33095703125,1.33740234375,1.33740234375,1.3341796875,1.33740234375,1.327734375,1.32451171875,1.3212890625,1.32451171875,1.31806640625,1.31806640625,1.3212890625,1.32451171875,1.32451171875,1.327734375,1.327734375,1.32451171875,1.3212890625,1.32451171875,1.33095703125,1.379296875,1.41474609375,1.40830078125,1.456640625,1.533984375,1.56943359375,1.533984375,1.45341796875,1.37607421875,1.31806640625,1.29228515625,1.27939453125,1.27294921875,1.2697265625,1.27294921875,1.276171875,1.18271484375,1.08603515625,1.3728515625,2.24619140625,2.96806640625,2.578125,1.5275390625,1.11181640625,1.1537109375,1.2439453125,1.24072265625,1.23427734375,1.24072265625,1.250390625,1.26650390625,1.27939453125,1.2890625,1.29228515625,1.30517578125,1.31484375,1.3341796875,1.34384765625,1.35673828125,1.379296875,1.3857421875,1.405078125,1.42119140625,1.430859375,1.456640625,1.46630859375,1.4888671875,1.5146484375,1.5275390625,1.546875,1.56943359375,1.5791015625,1.58232421875,1.6048828125,1.611328125,1.5919921875,1.5533203125,1.49853515625,1.4373046875,1.3857421875,1.35029296875,1.31806640625,1.30517578125,1.2955078125,1.3083984375,1.31162109375,1.31162109375,1.31162109375,1.31806640625,1.31806640625,1.31162109375,1.31806640625,1.3212890625,1.31806640625,1.32451171875,1.31162109375,1.30517578125,1.3083984375,1.3083984375,1.31484375,1.30517578125,1.30517578125,1.301953125,1.31162109375,1.31162109375,1.3083984375,1.31484375,1.3212890625,1.31162109375,1.31484375,1.31806640625,1.31484375,1.31484375,1.3212890625,1.31484375,1.327734375,1.38251953125,1.40830078125,1.405078125,1.45341796875,1.5146484375,1.5533203125,1.508203125,1.42763671875,1.353515625,1.31162109375,1.29873046875,1.2826171875,1.2697265625,1.27939453125,1.2697265625,1.27294921875,1.173046875,1.10537109375,1.4953125,2.42021484375,2.96806640625,2.34931640625,1.47919921875,1.13759765625,1.134375,1.22783203125,1.2439453125,1.2439453125,1.250390625,1.26005859375,1.27294921875,1.28583984375,1.29228515625,1.29873046875,1.31162109375,1.327734375,1.3341796875,1.34384765625,1.36640625,1.38251953125,1.39541015625,1.41474609375,1.42763671875,1.4373046875,1.4501953125,1.4759765625,1.49208984375,1.50498046875,1.52431640625,1.54365234375,1.5662109375,1.585546875,1.585546875,1.60166015625,1.61455078125,1.60166015625,1.56298828125,1.51142578125,1.44375,1.3986328125,1.35029296875,1.31806640625,1.301953125,1.29873046875,1.29228515625,1.2955078125,1.31162109375,1.31484375,1.31162109375,1.31484375,1.31484375,1.31484375,1.31484375,1.31806640625,1.3212890625,1.327734375,1.32451171875,1.32451171875,1.327734375,1.3212890625,1.31806640625,1.32451171875,1.31484375,1.31484375,1.3212890625,1.32451171875,1.32451171875,1.31162109375,1.3212890625,1.3599609375,1.3986328125,1.40830078125,1.45341796875,1.51787109375,1.56943359375,1.55654296875,1.482421875,1.38251953125,1.31484375,1.28583984375,1.26650390625,1.26650390625,1.26328125,1.2697265625,1.2697265625,1.1923828125,1.08603515625,1.327734375,2.09150390625,2.9583984375,2.56201171875,1.60810546875,1.17626953125,1.07958984375,1.1859375,1.224609375,1.22138671875,1.2181640625,1.23427734375,1.25361328125,1.26328125,1.27294921875,1.28583984375,1.301953125,1.3083984375,1.3212890625,1.340625,1.3470703125,1.36318359375,1.3857421875,1.39541015625,1.4115234375,1.42763671875,1.44697265625,1.4630859375,1.47919921875,1.50498046875,1.52431640625,1.533984375,1.5533203125,1.56298828125,1.58232421875,1.58876953125,1.5919921875,1.585546875,1.54365234375,1.4953125,1.43408203125,1.38251953125,1.33740234375,1.31806640625,1.31484375,1.30517578125,1.3083984375,1.31162109375,1.31162109375,1.31484375,1.3212890625,1.31806640625,1.31484375,1.3212890625,1.32451171875,1.32451171875,1.327734375,1.33095703125,1.327734375,1.32451171875,1.31162109375,1.3212890625,1.32451171875,1.31806640625,1.3212890625,1.31806640625,1.31484375,1.31162109375,1.32451171875,1.32451171875,1.29873046875,1.31484375,1.31806640625,1.32451171875,1.34384765625,1.340625,1.40185546875,1.44375,1.4501953125,1.5146484375,1.5533203125,1.60166015625,1.559765625,1.46953125,1.38896484375,1.34384765625,1.31806640625,1.3083984375,1.30517578125,1.30517578125,1.29228515625,1.2890625,1.173046875,1.10859375,1.5275390625,2.513671875,2.951953125,2.5201171875,1.42763671875,1.08603515625,1.19560546875,1.26005859375,1.250390625,1.2375,1.2439453125,1.250390625,1.2568359375,1.2697265625,1.28583984375,1.29873046875,1.30517578125,1.3212890625,1.327734375,1.3341796875,1.353515625,1.36640625,1.37607421875,1.3986328125,1.4115234375,1.42119140625,1.430859375,1.456640625,1.482421875,1.49853515625,1.51787109375,1.53076171875,1.546875,1.5533203125,1.5791015625,1.58876953125,1.58232421875,1.56943359375,1.5275390625,1.4759765625,1.41796875,1.35673828125,1.31806640625,1.301953125,1.29228515625,1.2890625,1.29228515625,1.2955078125,1.301953125,1.301953125,1.30517578125,1.3083984375,1.31484375,1.31806640625,1.31484375,1.32451171875,1.3212890625,1.31806640625,1.31162109375,1.31806640625,1.31484375,1.3083984375,1.30517578125,1.3083984375,1.31162109375,1.31162109375,1.3083984375,1.31484375,1.31806640625,1.31806640625,1.31162109375,1.31162109375,1.3212890625,1.3212890625,1.3083984375,1.31806640625,1.32451171875,1.33740234375,1.3470703125,1.3921875,1.42119140625,1.44052734375,1.4888671875,1.54365234375,1.57265625,1.51142578125,1.430859375,1.35029296875,1.31806640625,1.2955078125,1.2826171875,1.276171875,1.276171875,1.28583984375,1.25361328125,1.13115234375,1.15693359375,1.68544921875,2.797265625,2.951953125,2.1462890625,1.27294921875,1.08603515625,1.20849609375,1.2439453125,1.2375,1.22783203125,1.2439453125,1.25361328125,1.26005859375,1.276171875,1.2890625,1.29873046875,1.31162109375,1.32451171875,1.340625,1.353515625,1.37607421875,1.38896484375,1.3986328125,1.40830078125,1.430859375,1.44052734375,1.45986328125,1.482421875,1.49853515625,1.51787109375,1.53720703125,1.55009765625,1.5662109375,1.57587890625,1.58876953125,1.60166015625,1.60810546875,1.5919921875,1.5533203125,1.4888671875,1.42763671875,1.38251953125,1.34384765625,1.32451171875,1.31162109375,1.3083984375,1.30517578125,1.31162109375,1.31806640625,1.31162109375,1.327734375,1.31806640625,1.3212890625,1.33740234375,1.33740234375,1.33740234375,1.3341796875,1.33095703125,1.3341796875,1.32451171875,1.33095703125,1.327734375,1.3212890625,1.327734375,1.327734375,1.3341796875,1.33095703125,1.32451171875,1.33095703125,1.33095703125,1.33095703125,1.33095703125,1.33095703125,1.3341796875,1.3341796875,1.3341796875,1.33095703125,1.3341796875,1.3341796875,1.33740234375,1.340625,1.340625,1.3857421875,1.42119140625,1.4244140625,1.46630859375,1.5275390625,1.5662109375,1.546875,1.45986328125,1.379296875,1.3341796875,1.31484375,1.2955078125,1.2826171875,1.2826171875,1.2890625,1.2826171875,1.20849609375,1.1021484375,1.379296875,2.2107421875,2.98095703125,2.616796875,1.5984375,1.1537109375,1.1279296875,1.224609375,1.2375,1.2375,1.2439453125,1.24716796875,1.25361328125,1.27294921875,1.276171875,1.28583984375,1.2955078125,1.301953125,1.31162109375,1.33095703125,1.34384765625,1.35673828125,1.3728515625,1.3921875,1.40185546875,1.42763671875,1.44052734375,1.44697265625,1.4759765625,1.49853515625,1.5146484375,1.533984375,1.55009765625,1.5662109375,1.5791015625,1.5919921875,1.611328125,1.61455078125,1.57265625,1.5146484375,1.456640625,1.39541015625,1.34384765625,1.31806640625,1.2955078125,1.2955078125,1.29228515625,1.29228515625,1.29228515625,1.2955078125,1.30517578125,1.31484375,1.31484375,1.31806640625,1.31484375,1.31806640625,1.3212890625,1.32451171875,1.3212890625,1.31806640625,1.33095703125,1.3341796875,1.32451171875,1.3212890625,1.31806640625,1.3212890625,1.32451171875,1.31162109375,1.3212890625,1.3212890625,1.327734375,1.327734375,1.327734375,1.33740234375,1.3728515625,1.40830078125,1.41474609375,1.430859375,1.50498046875,1.559765625,1.559765625,1.4953125,1.4115234375,1.34384765625,1.31484375,1.30517578125,1.2955078125,1.2826171875,1.276171875,1.27939453125,1.24072265625,1.10859375,1.25361328125,1.9013671875,2.94228515625,2.75537109375,1.8046875,1.29873046875,1.0828125,1.15048828125,1.224609375,1.23427734375,1.2375,1.250390625,1.26005859375,1.276171875,1.29228515625,1.2955078125,1.3083984375,1.31806640625,1.33095703125,1.3470703125,1.353515625,1.36640625,1.38251953125,1.40185546875,1.41796875,1.4244140625,1.44375,1.45341796875,1.46630859375,1.4953125,1.508203125,1.52109375,1.5404296875,1.55654296875,1.56943359375,1.57587890625,1.5919921875,1.58876953125,1.55654296875,1.508203125,1.44697265625,1.40185546875,1.35029296875,1.32451171875,1.3083984375,1.30517578125,1.301953125,1.29873046875,1.301953125,1.30517578125,1.30517578125,1.3083984375,1.3083984375,1.3083984375,1.31162109375,1.3212890625,1.3212890625,1.31806640625,1.31484375,1.31484375,1.30517578125,1.3083984375,1.31162109375,1.3083984375,1.301953125,1.30517578125,1.3083984375,1.30517578125,1.31162109375,1.31484375,1.31162109375,1.30517578125,1.31484375,1.31806640625,1.31806640625,1.31484375,1.3212890625,1.327734375,1.33095703125,1.353515625,1.39541015625,1.41474609375,1.44052734375,1.4953125,1.5404296875,1.55009765625,1.4888671875,1.4115234375,1.3470703125,1.31484375,1.2826171875,1.27294921875,1.27294921875,1.27939453125,1.2826171875,1.23427734375,1.10537109375,1.224609375,1.86591796875,2.94873046875,2.9326171875,2.01416015625,1.18271484375,1.10537109375,1.224609375,1.24072265625,1.24072265625,1.2375,1.24716796875,1.26005859375,1.2697265625,1.28583984375,1.29228515625,1.30517578125,1.3083984375,1.32451171875,1.340625,1.353515625,1.36318359375,1.379296875,1.39541015625,1.41796875,1.4244140625,1.4373046875,1.4630859375,1.47275390625,1.49853515625,1.52109375,1.533984375,1.546875,1.56298828125,1.5791015625,1.59521484375,1.60810546875,1.611328125,1.58876953125,1.53720703125,1.4888671875,1.42763671875,1.379296875,1.3341796875,1.31484375,1.31162109375,1.31484375,1.31806640625,1.3083984375,1.327734375,1.33095703125,1.32451171875,1.33095703125,1.3341796875,1.33740234375,1.33740234375,1.3341796875,1.34384765625,1.340625,1.33740234375,1.3341796875,1.3341796875,1.33095703125,1.327734375,1.33740234375,1.33740234375,1.33095703125,1.327734375,1.327734375,1.33740234375,1.33740234375,1.33095703125,1.3341796875,1.33095703125,1.34384765625,1.35029296875,1.33095703125,1.33740234375,1.33740234375,1.34384765625,1.38251953125,1.42763671875,1.43408203125,1.46630859375,1.52431640625,1.57587890625,1.585546875,1.51142578125,1.4244140625,1.35029296875,1.31806640625,1.30517578125,1.29228515625,1.29228515625,1.27939453125,1.276171875,1.224609375,1.0892578125,1.26650390625,1.998046875,2.96806640625,2.8294921875,1.76923828125,1.134375,1.1150390625,1.21494140625,1.224609375,1.21171875,1.2181640625,1.22783203125,1.2310546875,1.24072265625,1.25361328125,1.2568359375,1.26005859375,1.276171875,1.2890625,1.29228515625,1.30517578125,1.3212890625,1.327734375,1.33740234375,1.353515625,1.3599609375,1.3728515625,1.3857421875,1.3986328125,1.41796875,1.42763671875,1.44052734375,1.45986328125,1.46630859375,1.4759765625,1.47919921875,1.49208984375,1.48564453125
1.2955078125,1.30517578125,1.31484375,1.301953125,1.31484375,1.31162109375,1.31162109375,1.31484375,1.31484375,1.32451171875,1.32451171875,1.32451171875,1.32451171875,1.353515625,1.38896484375,1.3986328125,1.405078125,1.46953125,1.50498046875,1.508203125,1.456640625,1.3986328125,1.33740234375,1.31806640625,1.3083984375,1.29228515625,1.28583984375,1.2890625,1.28583984375,1.2826171875,1.16982421875,1.1150390625,1.53720703125,2.5265625,2.95517578125,2.487890625,1.5017578125,1.134375,1.147265625,1.24072265625,1.2568359375,1.25361328125,1.2568359375,1.2697265625,1.2826171875,1.28583984375,1.2955078125,1.31484375,1.31806640625,1.3341796875,1.3470703125,1.3599609375,1.36962890625,1.379296875,1.405078125,1.40830078125,1.42119140625,1.4373046875,1.45341796875,1.4759765625,1.4953125,1.52109375,1.5404296875,1.559765625,1.585546875,1.60166015625,1.60810546875,1.62744140625,1.64033203125,1.637109375,1.60810546875,1.559765625,1.4953125,1.41474609375,1.353515625,1.31162109375,1.28583984375,1.27294921875,1.26650390625,1.2697265625,1.2697265625,1.276171875,1.27939453125,1.27939453125,1.2955078125,1.29228515625,1.29228515625,1.29873046875,1.2955078125,1.29873046875,1.29873046875,1.29228515625,1.29873046875,1.29873046875,1.2955078125,1.2890625,1.2826171875,1.2890625,1.2890625,1.2955078125,1.29873046875,1.29873046875,1.29873046875,1.29873046875,1.301953125,1.301953125,1.30517578125,1.31162109375,1.31162109375,1.31484375,1.31806640625,1.31806640625,1.31806640625,1.31806640625,1.32451171875,1.327734375,1.35673828125,1.40185546875,1.4115234375,1.430859375,1.4888671875,1.52431640625,1.52431640625,1.4630859375,1.40830078125,1.3470703125,1.3341796875,1.31806640625,1.301953125,1.30517578125,1.2955078125,1.29873046875,1.29228515625,1.1666015625,1.147265625,1.64033203125,2.74248046875,2.96484375,2.52333984375,1.41796875,1.1021484375,1.2181640625,1.276171875,1.26005859375,1.26328125,1.2697265625,1.27294921875,1.2826171875,1.29873046875,1.30517578125,1.3083984375,1.32451171875,1.33740234375,1.34384765625,1.35673828125,1.3728515625,1.379296875,1.3986328125,1.4115234375,1.42119140625,1.44697265625,1.45986328125,1.4759765625,1.49208984375,1.5275390625,1.546875,1.5662109375,1.59521484375,1.611328125,1.62421875,1.64033203125,1.6564453125,1.66611328125,1.64033203125,1.57587890625,1.50498046875,1.430859375,1.3599609375,1.31484375,1.2890625,1.2697265625,1.2697265625,1.276171875,1.2826171875,1.2826171875,1.2890625,1.29228515625,1.29873046875,1.30517578125,1.29873046875,1.30517578125,1.3083984375,1.3083984375,1.3083984375,1.3083984375,1.30517578125,1.301953125,1.3083984375,1.29873046875,1.2955078125,1.29873046875,1.2955078125,1.2955078125,1.29873046875,1.29873046875,1.29873046875,1.29873046875,1.30517578125,1.29873046875,1.301953125,1.3083984375,1.31484375,1.31806640625,1.31162109375,1.31806640625,1.32451171875,1.3212890625,1.32451171875,1.31806640625,1.327734375,1.3341796875,1.36640625,1.40185546875,1.3986328125,1.42763671875,1.5017578125,1.5275390625,1.508203125,1.456640625,1.3921875,1.34384765625,1.32451171875,1.30517578125,1.2955078125,1.29228515625,1.29873046875,1.2955078125,1.27294921875,1.134375,1.173046875,1.73701171875,2.8875,2.9712890625,2.26875,1.31806640625,1.10537109375,1.22138671875,1.26650390625,1.2568359375,1.2568359375,1.25361328125,1.2697265625,1.28583984375,1.29228515625,1.30517578125,1.32451171875,1.32451171875,1.33095703125,1.35029296875,1.3599609375,1.36640625,1.379296875,1.39541015625,1.405078125,1.4244140625,1.44375,1.456640625,1.47919921875,1.50498046875,1.51787109375,1.546875,1.57265625,1.58876953125,1.611328125,1.6306640625,1.64677734375,1.65,1.66611328125,1.6435546875,1.58232421875,1.5017578125,1.4115234375,1.35673828125,1.3083984375,1.27939453125,1.2697265625,1.26650390625,1.26650390625,1.26650390625,1.27939453125,1.27939453125,1.28583984375,1.27939453125,1.2890625,1.29873046875,1.2955078125,1.29873046875,1.301953125,1.301953125,1.301953125,1.2955078125,1.2955078125,1.29873046875,1.301953125,1.29873046875,1.29228515625,1.301953125,1.301953125,1.301953125,1.30517578125,1.30517578125,1.29873046875,1.29873046875,1.29873046875,1.31162109375,1.31484375,1.301953125,1.31484375,1.3083984375,1.31806640625,1.3341796875,1.3599609375,1.3857421875,1.39541015625,1.4244140625,1.5017578125,1.52109375,1.48564453125,1.42763671875,1.36318359375,1.3212890625,1.31484375,1.301953125,1.2955078125,1.29228515625,1.2955078125,1.29873046875,1.24716796875,1.12470703125,1.3083984375,2.0109375,2.96806640625,2.771484375,1.8111328125,1.33095703125,1.11826171875,1.18271484375,1.25361328125,1.26005859375,1.26328125,1.276171875,1.28583984375,1.301953125,1.30517578125,1.31806640625,1.3212890625,1.33740234375,1.35673828125,1.3599609375,1.3728515625,1.38896484375,1.40185546875,1.40830078125,1.41796875,1.44052734375,1.456640625,1.47275390625,1.4888671875,1.51142578125,1.53076171875,1.546875,1.57265625,1.5919921875,1.6048828125,1.6306640625,1.6435546875,1.65,1.64677734375,1.611328125,1.546875,1.46630859375,1.40185546875,1.3470703125,1.31162109375,1.28583984375,1.27939453125,1.276171875,1.27939453125,1.28583984375,1.2890625,1.301953125,1.2955078125,1.2955078125,1.301953125,1.301953125,1.301953125,1.29873046875,1.30517578125,1.29873046875,1.29228515625,1.30517578125,1.29873046875,1.30517578125,1.2955078125,1.29228515625,1.2955078125,1.2890625,1.29228515625,1.29228515625,1.301953125,1.301953125,1.2955078125,1.29873046875,1.301953125,1.301953125,1.3083984375,1.30517578125,1.31484375,1.31806640625,1.31162109375,1.3212890625,1.3341796875,1.37607421875,1.3921875,1.40185546875,1.44697265625,1.5017578125,1.53076171875,1.482421875,1.41474609375,1.353515625,1.32451171875,1.30517578125,1.2890625,1.2890625,1.28583984375,1.2826171875,1.2826171875,1.21171875,1.095703125,1.36640625,2.2107421875,2.96162109375,2.8552734375,1.7595703125,1.13759765625,1.15048828125,1.250390625,1.2568359375,1.24716796875,1.2568359375,1.26328125,1.27294921875,1.2826171875,1.29228515625,1.3083984375,1.3212890625,1.327734375,1.33740234375,1.34384765625,1.36318359375,1.3728515625,1.39541015625,1.40830078125,1.42119140625,1.44052734375,1.45986328125,1.47919921875,1.49208984375,1.51142578125,1.533984375,1.5533203125,1.57587890625,1.5984375,1.6177734375,1.63388671875,1.64677734375,1.662890625,1.65,1.6048828125,1.5404296875,1.4501953125,1.379296875,1.33095703125,1.29873046875,1.27939453125,1.26650390625,1.26650390625,1.2697265625,1.2826171875,1.28583984375,1.2890625,1.2955078125,1.29873046875,1.29873046875,1.3083984375,1.31484375,1.31484375,1.3083984375,1.3083984375,1.301953125,1.29228515625,1.29873046875,1.30517578125,1.3083984375,1.29873046875,1.29873046875,1.301953125,1.301953125,1.31162109375,1.30517578125,1.301953125,1.31484375,1.31484375,1.3083984375,1.31484375,1.31484375,1.31484375,1.31484375,1.31484375,1.32451171875,1.36318359375,1.39541015625,1.40830078125,1.42119140625,1.482421875,1.51142578125,1.51787109375,1.44697265625,1.3921875,1.34384765625,1.31806640625,1.301953125,1.2890625,1.2955078125,1.2890625,1.2955078125,1.27939453125,1.15048828125,1.1666015625,1.66611328125,2.78115234375,2.96162109375,2.38154296875,1.35029296875,1.10537109375,1.2181640625,1.26328125,1.26005859375,1.26005859375,1.26650390625,1.26650390625,1.2826171875,1.2890625,1.29873046875,1.31162109375,1.3212890625,1.33095703125,1.3470703125,1.3599609375,1.3728515625,1.3857421875,1.40830078125,1.41796875,1.430859375,1.44697265625,1.456640625,1.4888671875,1.50498046875,1.52431640625,1.546875,1.57587890625,1.59521484375,1.61455078125,1.62099609375,1.63388671875,1.65322265625,1.6564453125,1.62099609375,1.56943359375,1.48564453125,1.40830078125,1.353515625,1.301953125,1.27294921875,1.2697265625,1.25361328125,1.2568359375,1.26328125,1.26650390625,1.27294921875,1.2826171875,1.28583984375,1.28583984375,1.29228515625,1.2890625,1.29228515625,1.301953125,1.29873046875,1.29228515625,1.2890625,1.28583984375,1.2890625,1.2826171875,1.29228515625,1.2955078125,1.29228515625,1.28583984375,1.2826171875,1.29228515625,1.2955078125,1.29228515625,1.2955078125,1.2955078125,1.28583984375,1.30517578125,1.301953125,1.29873046875,1.301953125,1.31162109375,1.33740234375,1.36640625,1.3857421875,1.40185546875,1.4630859375,1.508203125,1.50498046875,1.44052734375,1.379296875,1.31484375,1.31162109375,1.30517578125,1.28583984375,1.276171875,1.2826171875,1.28583984375,1.2697265625,1.1537109375,1.147265625,1.6306640625,2.67802734375,2.95517578125,2.23330078125,1.44052734375,1.147265625,1.1537109375,1.23427734375,1.26328125,1.26005859375,1.2568359375,1.27294921875,1.2826171875,1.29873046875,1.31162109375,1.32451171875,1.327734375,1.340625,1.36640625,1.36962890625,1.379296875,1.38896484375,1.40185546875,1.4244140625,1.43408203125,1.44697265625,1.46630859375,1.4888671875,1.51787109375,1.53720703125,1.55654296875,1.56943359375,1.5984375,1.6177734375,1.637109375,1.64677734375,1.6693359375,1.6693359375,1.65322265625,1.58876953125,1.508203125,1.44052734375,1.3728515625,1.32451171875,1.29873046875,1.27939453125,1.28583984375,1.29228515625,1.29228515625,1.28583984375,1.29873046875,1.301953125,1.29228515625,1.29873046875,1.3083984375,1.3083984375,1.31162109375,1.31162109375,1.3083984375,1.31162109375,1.3083984375,1.31162109375,1.301953125,1.301953125,1.3083984375,1.301953125,1.31162109375,1.31162109375,1.30517578125,1.31484375,1.3212890625,1.31162109375,1.30517578125,1.30517578125,1.3083984375,1.3341796875,1.36318359375,1.38251953125,1.40185546875,1.44697265625,1.4953125,1.51142578125,1.45986328125,1.40830078125,1.34384765625,1.31806640625,1.301953125,1.2826171875,1.27939453125,1.28583984375,1.2890625,1.2826171875,1.19560546875,1.0828125,1.3470703125,2.1591796875,2.96806640625,2.719921875,1.6951171875,1.198828125,1.121484375,1.22783203125,1.2568359375,1.2439453125,1.2439453125,1.2568359375,1.26650390625,1.276171875,1.2890625,1.301953125,1.31162109375,1.327734375,1.34384765625,1.35029296875,1.3599609375,1.38251953125,1.3986328125,1.3986328125,1.4115234375,1.4244140625,1.4501953125,1.4759765625,1.4888671875,1.51142578125,1.533984375,1.56298828125,1.58232421875,1.58876953125,1.6048828125,1.62099609375,1.637109375,1.6435546875,1.62421875,1.57587890625,1.5017578125,1.41474609375,1.36318359375,1.31806640625,1.2890625,1.27939453125,1.26328125,1.26005859375,1.26328125,1.2826171875,1.2890625,1.27939453125,1.28583984375,1.29873046875,1.29873046875,1.301953125,1.29873046875,1.2955078125,1.301953125,1.30517578125,1.30517578125,1.2890625,1.2955078125,1.2890625,1.2890625,1.301953125,1.2955078125,1.2955078125,1.2955078125,1.29228515625,1.2955078125,1.2890625,1.2955078125,1.30517578125,1.3083984375,1.301953125,1.3083984375,1.3083984375,1.3083984375,1.31484375,1.340625,1.379296875,1.3986328125,1.40185546875,1.4630859375,1.51142578125,1.51142578125,1.456640625,1.39541015625,1.3470703125,1.31484375,1.2890625,1.29228515625,1.28583984375,1.28583984375,1.29228515625,1.28583984375,1.17626953125,1.121484375,1.53720703125,2.5845703125,2.96484375,2.63935546875,1.48564453125,1.095703125,1.2052734375,1.276171875,1.2697265625,1.24716796875,1.25361328125,1.276171875,1.27939453125,1.29873046875,1.3083984375,1.31806640625,1.32451171875,1.32451171875,1.340625,1.3599609375,1.37607421875,1.39541015625,1.405078125,1.4244140625,1.430859375,1.45341796875,1.46953125,1.48564453125,1.51142578125,1.53076171875,1.559765625,1.58232421875,1.5984375,1.6177734375,1.62744140625,1.64033203125,1.662890625,1.66611328125,1.63388671875,1.5791015625,1.50498046875,1.4244140625,1.36318359375,1.31162109375,1.28583984375,1.276171875,1.2697265625,1.2697265625,1.27939453125,1.28583984375,1.2826171875,1.2890625,1.2955078125,1.301953125,1.29228515625,1.2955078125,1.31484375,1.3083984375,1.29873046875,1.29228515625,1.2955078125,1.2955078125,1.2955078125,1.29873046875,1.28583984375,1.2890625,1.2890625,1.29228515625,1.2890625,1.2890625,1.2955078125,1.301953125,1.2890625,1.301953125,1.30517578125,1.29873046875,1.3083984375,1.30517578125,1.30517578125,1.3083984375,1.31806640625,1.35673828125,1.38251953125,1.3921875,1.41796875,1.47919921875,1.5017578125,1.49853515625,1.44052734375,1.3728515625,1.32451171875,1.32451171875,1.301953125,1.28583984375,1.2890625,1.2890625,1.2890625,1.276171875,1.147265625,1.16015625,1.69189453125,2.82626953125,2.96806640625,2.3525390625,1.35029296875,1.11826171875,1.224609375,1.26650390625,1.26005859375,1.26005859375,1.26650390625,1.28583984375,1.28583984375,1.30517578125,1.31162109375,1.31162109375,1.3341796875,1.340625,1.34384765625,1.353515625,1.379296875,1.3921875,1.40830078125,1.41474609375,1.43408203125,1.45341796875,1.482421875,1.5017578125,1.508203125,1.533984375,1.56298828125,1.5791015625,1.5984375,1.61455078125,1.61455078125,1.6435546875,1.662890625,1.662890625,1.6306640625,1.5662109375,1.49208984375,1.4115234375,1.340625,1.301953125,1.27939453125,1.26328125,1.2568359375,1.26650390625,1.27294921875,1.27294921875,1.27939453125,1.27939453125,1.27939453125,1.28583984375,1.2955078125,1.29228515625,1.2890625,1.29228515625,1.29228515625,1.2890625,1.28583984375,1.2955078125,1.29873046875,1.31162109375,1.301953125,1.29873046875,1.30517578125,1.31162109375,1.301953125,1.3083984375,1.31484375,1.3083984375,1.30517578125,1.31162109375,1.31162109375,1.31484375,1.31484375,1.31806640625,1.327734375,1.353515625,1.3728515625,1.38896484375,1.40185546875,1.46953125,1.52431640625,1.5275390625,1.4501953125,1.379296875,1.3341796875,1.31484375,1.29228515625,1.29228515625,1.2826171875,1.2890625,1.28583984375,1.276171875,1.173046875,1.13759765625,1.56943359375,2.55234375,2.9583984375,2.3203125,1.47919921875,1.1666015625,1.147265625,1.23427734375,1.26005859375,1.26328125,1.2697265625,1.27939453125,1.2955078125,1.30517578125,1.31806640625,1.33095703125,1.32451171875,1.3212890625,1.340625,1.3599609375,1.36962890625,1.38896484375,1.40830078125,1.42119140625,1.4244140625,1.44052734375,1.4630859375,1.46953125,1.48564453125,1.5146484375,1.53720703125,1.54365234375,1.5662109375,1.59521484375,1.60810546875,1.62744140625,1.65,1.65,1.62421875,1.57265625,1.49853515625,1.42119140625,1.35673828125,1.31806640625,1.2890625,1.2826171875,1.276171875,1.26650390625,1.276171875,1.27939453125,1.28583984375,1.2890625,1.2955078125,1.2955078125,1.29873046875,1.3083984375,1.30517578125,1.301953125,1.3083984375,1.301953125,1.3083984375,1.31162109375,1.30517578125,1.2955078125,1.2955078125,1.301953125,1.301953125,1.29228515625,1.2955078125,1.301953125,1.3083984375,1.3083984375,1.30517578125,1.30517578125,1.30517578125,1.301953125,1.31162109375,1.31484375,1.31162109375,1.31162109375,1.31806640625,1.31806640625,1.35029296875,1.3857421875,1.405078125,1.41474609375,1.46953125,1.50498046875,1.52109375,1.46630859375,1.40185546875,1.35029296875,1.31806640625,1.30517578125,1.29228515625,1.28583984375,1.29873046875,1.2955078125,1.27939453125,1.16982421875,1.12470703125,1.546875,2.58779296875,2.96484375,2.565234375,1.4630859375,1.10859375,1.198828125,1.26650390625,1.26005859375,1.26005859375,1.26650390625,1.26650390625,1.276171875,1.29228515625,1.3083984375,1.31484375,1.32451171875,1.33740234375,1.340625,1.353515625,1.3857421875,1.39541015625,1.3986328125,1.405078125,1.430859375,1.44375,1.45341796875,1.46953125,1.51787109375,1.51787109375,1.53720703125,1.58232421875,1.60810546875,1.60810546875,1.6306640625,1.64033203125,1.662890625,1.688671875,1.65966796875,1.5984375,1.52109375,1.4373046875,1.379296875,1.3470703125,1.3083984375,1.27939453125,1.27939453125,1.2890625,1.301953125,1.3083984375,1.31162109375,1.301953125,1.29873046875,1.30517578125,1.31162109375,1.31484375,1.31162109375,1.31162109375,1.31806640625,1.3083984375,1.29873046875,1.2955078125,1.31806640625,1.30517578125,1.3083984375,1.301953125,1.301953125,1.2955078125,1.29228515625,1.30517578125,1.30517578125,1.3083984375,1.31484375,1.3083984375,1.3212890625,1.31162109375,1.3083984375,1.3212890625,1.3212890625,1.32451171875,1.3212890625,1.31162109375,1.35029296875,1.3921875,1.41474609375,1.41474609375,1.45341796875,1.5146484375,1.5404296875,1.5017578125,1.430859375,1.36640625,1.33740234375,1.31162109375,1.29228515625,1.2955078125,1.28583984375,1.276171875,1.276171875,1.2181640625,1.1021484375,1.36962890625,2.2107421875,2.97451171875,2.81015625,1.6951171875,1.12470703125,1.17626953125,1.26005859375,1.25361328125,1.2439453125,1.24072265625,1.250390625,1.26005859375,1.26005859375,1.26650390625,1.26650390625,1.276171875,1.301953125
1.224609375,1.224609375,1.21494140625,1.22783203125,1.23427734375,1.18271484375,1.0505859375,1.24716796875,2.03671875,2.9583984375,2.745703125,1.6693359375,1.16337890625,1.11826171875,1.2052734375,1.22138671875,1.21171875,1.21494140625,1.21494140625,1.2375,1.24716796875,1.26005859375,1.27294921875,1.2826171875,1.31484375,1.327734375,1.327734375,1.340625,1.35673828125,1.3728515625,1.3986328125,1.41796875,1.4244140625,1.44375,1.46953125,1.49208984375,1.5017578125,1.5146484375,1.53076171875,1.5404296875,1.5533203125,1.57265625,1.58232421875,1.58232421875,1.55654296875,1.5017578125,1.43408203125,1.3728515625,1.340625,1.31806640625,1.2890625,1.28583984375,1.28583984375,1.2890625,1.28583984375,1.29228515625,1.301953125,1.2955078125,1.30517578125,1.30517578125,1.31806640625,1.30517578125,1.3083984375,1.301953125,1.3083984375,1.31162109375,1.31806640625,1.3083984375,1.33095703125,1.3599609375,1.379296875,1.379296875,1.4373046875,1.5146484375,1.5533203125,1.5404296875,1.46953125,1.3599609375,1.301953125,1.27294921875,1.26328125,1.25361328125,1.250390625,1.2568359375,1.24716796875,1.18916015625,1.0763671875,1.340625,2.19462890625,2.9583984375,2.578125,1.6177734375,1.1923828125,1.10859375,1.20205078125,1.2310546875,1.23427734375,1.23427734375,1.22783203125,1.24716796875,1.27939453125,1.276171875,1.2826171875,1.301953125,1.31484375,1.33740234375,1.33095703125,1.353515625,1.3728515625,1.379296875,1.40830078125,1.42763671875,1.42763671875,1.44697265625,1.482421875,1.4888671875,1.508203125,1.51787109375,1.546875,1.5662109375,1.5791015625,1.6048828125,1.60810546875,1.5919921875,1.56298828125,1.5017578125,1.4373046875,1.38896484375,1.340625,1.301953125,1.2890625,1.2890625,1.276171875,1.27939453125,1.27939453125,1.29228515625,1.2955078125,1.29873046875,1.29873046875,1.301953125,1.3212890625,1.31484375,1.33095703125,1.35673828125,1.38896484375,1.37607421875,1.41474609375,1.48564453125,1.5404296875,1.53076171875,1.46630859375,1.3728515625,1.2955078125,1.25361328125,1.24072265625,1.2375,1.224609375,1.22138671875,1.22783203125,1.1859375,1.05380859375,1.13115234375,1.73056640625,2.874609375,2.85849609375,1.94326171875,1.31806640625,1.0634765625,1.12470703125,1.2052734375,1.2052734375,1.20205078125,1.21171875,1.2310546875,1.2439453125,1.26005859375,1.26328125,1.27939453125,1.29228515625,1.30517578125,1.327734375,1.3470703125,1.3599609375,1.38251953125,1.40185546875,1.41474609375,1.43408203125,1.4501953125,1.46630859375,1.4888671875,1.49853515625,1.5146484375,1.53720703125,1.54365234375,1.559765625,1.57265625,1.57587890625,1.559765625,1.5404296875,1.4888671875,1.41796875,1.36318359375,1.327734375,1.29228515625,1.27294921875,1.27939453125,1.28583984375,1.27294921875,1.27939453125,1.29228515625,1.29228515625,1.301953125,1.30517578125,1.31806640625,1.31484375,1.31162109375,1.31162109375,1.3083984375,1.31484375,1.340625,1.3728515625,1.379296875,1.3986328125,1.4630859375,1.5146484375,1.53720703125,1.4953125,1.40185546875,1.29228515625,1.25361328125,1.24072265625,1.2375,1.22138671875,1.22783203125,1.224609375,1.2181640625,1.1021484375,1.05703125,1.49208984375,2.5265625,2.9583984375,2.38154296875,1.45341796875,1.0828125,1.1021484375,1.1923828125,1.21171875,1.21171875,1.2181640625,1.22783203125,1.2439453125,1.26005859375,1.26005859375,1.2826171875,1.29873046875,1.3083984375,1.33095703125,1.3470703125,1.35029296875,1.36318359375,1.3857421875,1.40185546875,1.41796875,1.4501953125,1.4630859375,1.47919921875,1.5017578125,1.5146484375,1.53720703125,1.53720703125,1.5533203125,1.5662109375,1.58876953125,1.58876953125,1.5533203125,1.5146484375,1.47275390625,1.40830078125,1.353515625,1.31162109375,1.301953125,1.29228515625,1.2826171875,1.2890625,1.29873046875,1.29873046875,1.30517578125,1.301953125,1.31806640625,1.327734375,1.327734375,1.31806640625,1.3212890625,1.3212890625,1.3341796875,1.36318359375,1.3921875,1.40830078125,1.430859375,1.4888671875,1.53076171875,1.56943359375,1.5404296875,1.4501953125,1.353515625,1.301953125,1.26650390625,1.25361328125,1.24716796875,1.250390625,1.24716796875,1.24072265625,1.15693359375,1.0376953125,1.33740234375,2.24619140625,2.96484375,2.7650390625,1.62099609375,1.0763671875,1.134375,1.22783203125,1.22138671875,1.22138671875,1.22138671875,1.23427734375,1.2375,1.26005859375,1.2697265625,1.27294921875,1.2955078125,1.31484375,1.31806640625,1.33095703125,1.3470703125,1.36318359375,1.3857421875,1.40185546875,1.41796875,1.43408203125,1.4501953125,1.47275390625,1.4888671875,1.51142578125,1.53076171875,1.5404296875,1.546875,1.55654296875,1.57265625,1.57587890625,1.546875,1.51787109375,1.45341796875,1.3921875,1.34384765625,1.31162109375,1.28583984375,1.2697265625,1.27294921875,1.2826171875,1.2826171875,1.2890625,1.29228515625,1.2955078125,1.30517578125,1.3083984375,1.31484375,1.31484375,1.31806640625,1.327734375,1.33095703125,1.31806640625,1.327734375,1.36962890625,1.40185546875,1.3986328125,1.45986328125,1.52431640625,1.559765625,1.533984375,1.456640625,1.34384765625,1.27294921875,1.25361328125,1.2375,1.224609375,1.22783203125,1.22783203125,1.22138671875,1.16015625,1.0248046875,1.22783203125,2.0431640625,2.977734375,2.86494140625,1.73701171875,1.0828125,1.1150390625,1.21494140625,1.22138671875,1.21494140625,1.21171875,1.22138671875,1.24072265625,1.250390625,1.26005859375,1.27294921875,1.28583984375,1.3083984375,1.3212890625,1.327734375,1.35029296875,1.36318359375,1.37607421875,1.405078125,1.4244140625,1.44375,1.45986328125,1.47275390625,1.48564453125,1.5146484375,1.53720703125,1.54365234375,1.56943359375,1.57587890625,1.59521484375,1.60810546875,1.5662109375,1.533984375,1.47919921875,1.42119140625,1.36962890625,1.32451171875,1.2955078125,1.2890625,1.2890625,1.29228515625,1.29228515625,1.2955078125,1.29228515625,1.301953125,1.31484375,1.3083984375,1.31484375,1.32451171875,1.327734375,1.3212890625,1.3212890625,1.3212890625,1.31484375,1.31162109375,1.29873046875,1.30517578125,1.31162109375,1.3083984375,1.3083984375,1.31484375,1.31162109375,1.31484375,1.3212890625,1.31806640625,1.31484375,1.31162109375,1.327734375,1.33095703125,1.31806640625,1.35673828125,1.40830078125,1.4244140625,1.4501953125,1.508203125,1.559765625,1.585546875,1.52431640625,1.4373046875,1.35673828125,1.3083984375,1.29228515625,1.28583984375,1.27939453125,1.27939453125,1.27939453125,1.250390625,1.11181640625,1.18271484375,1.78857421875,2.94873046875,2.95517578125,2.075390625,1.24716796875,1.1279296875,1.2439453125,1.26650390625,1.250390625,1.24716796875,1.25361328125,1.27294921875,1.276171875,1.29228515625,1.3083984375,1.31806640625,1.327734375,1.35029296875,1.36640625,1.36962890625,1.3921875,1.40185546875,1.4115234375,1.430859375,1.44052734375,1.45986328125,1.482421875,1.49853515625,1.51142578125,1.53076171875,1.546875,1.5662109375,1.57587890625,1.5919921875,1.611328125,1.6177734375,1.611328125,1.57587890625,1.51787109375,1.456640625,1.405078125,1.36318359375,1.3212890625,1.31484375,1.3212890625,1.31162109375,1.31162109375,1.31484375,1.31806640625,1.31484375,1.3212890625,1.32451171875,1.3083984375,1.3083984375,1.30517578125,1.29873046875,1.301953125,1.29873046875,1.29228515625,1.29873046875,1.301953125,1.2955078125,1.28583984375,1.29228515625,1.30517578125,1.301953125,1.2890625,1.301953125,1.31162109375,1.29873046875,1.301953125,1.3083984375,1.30517578125,1.31806640625,1.31806640625,1.301953125,1.31484375,1.32451171875,1.3599609375,1.38896484375,1.3986328125,1.40830078125,1.47919921875,1.546875,1.5533203125,1.51787109375,1.42763671875,1.33740234375,1.2955078125,1.29228515625,1.27294921875,1.276171875,1.2697265625,1.26650390625,1.2375,1.10537109375,1.16982421875,1.72412109375,2.797265625,2.85849609375,1.98515625,1.405078125,1.121484375,1.134375,1.22783203125,1.2439453125,1.25361328125,1.25361328125,1.2697265625,1.27939453125,1.2955078125,1.31162109375,1.31484375,1.31806640625,1.340625,1.3599609375,1.36962890625,1.379296875,1.3857421875,1.4115234375,1.42763671875,1.430859375,1.44375,1.4759765625,1.49208984375,1.49853515625,1.51787109375,1.5275390625,1.53720703125,1.55009765625,1.5662109375,1.58876953125,1.5919921875,1.5919921875,1.5662109375,1.508203125,1.45341796875,1.40185546875,1.36962890625,1.340625,1.327734375,1.31484375,1.3083984375,1.31484375,1.33095703125,1.32451171875,1.31806640625,1.31806640625,1.31806640625,1.3212890625,1.327734375,1.327734375,1.33095703125,1.3212890625,1.31484375,1.3212890625,1.32451171875,1.31806640625,1.3212890625,1.3212890625,1.32451171875,1.3212890625,1.31162109375,1.31484375,1.31484375,1.31484375,1.31806640625,1.31806640625,1.31806640625,1.3212890625,1.31806640625,1.31806640625,1.31484375,1.34384765625,1.40185546875,1.41796875,1.44697265625,1.4953125,1.5404296875,1.5533203125,1.49208984375,1.41474609375,1.3341796875,1.301953125,1.2826171875,1.27294921875,1.276171875,1.26005859375,1.26005859375,1.2310546875,1.0892578125,1.16337890625,1.76279296875,2.926171875,2.9583984375,2.21396484375,1.2181640625,1.10537109375,1.24072265625,1.2568359375,1.2375,1.23427734375,1.224609375,1.24716796875,1.2697265625,1.27939453125,1.28583984375,1.29873046875,1.31806640625,1.327734375,1.33740234375,1.33095703125,1.35029296875,1.38896484375,1.40185546875,1.40830078125,1.42763671875,1.44375,1.46953125,1.482421875,1.50498046875,1.52109375,1.5404296875,1.56298828125,1.57265625,1.58876953125,1.6048828125,1.60810546875,1.611328125,1.56943359375,1.5146484375,1.44697265625,1.3728515625,1.327734375,1.2955078125,1.2826171875,1.2826171875,1.2697265625,1.2826171875,1.29873046875,1.29873046875,1.29228515625,1.2890625,1.29228515625,1.301953125,1.29873046875,1.30517578125,1.30517578125,1.3083984375,1.31162109375,1.3083984375,1.31806640625,1.30517578125,1.29873046875,1.301953125,1.3083984375,1.30517578125,1.30517578125,1.31162109375,1.31484375,1.31162109375,1.31806640625,1.31484375,1.31806640625,1.32451171875,1.31806640625,1.31484375,1.33095703125,1.3341796875,1.36640625,1.41474609375,1.40830078125,1.43408203125,1.5146484375,1.56943359375,1.559765625,1.47275390625,1.405078125,1.3341796875,1.301953125,1.2890625,1.28583984375,1.27939453125,1.27939453125,1.27939453125,1.21171875,1.0828125,1.32451171875,2.13984375,2.9712890625,2.7650390625,1.6951171875,1.15693359375,1.16015625,1.26005859375,1.26650390625,1.26650390625,1.2568359375,1.2697265625,1.28583984375,1.2890625,1.301953125,1.31806640625,1.327734375,1.327734375,1.33740234375,1.3599609375,1.36640625,1.39541015625,1.41474609375,1.43408203125,1.44052734375,1.4501953125,1.47275390625,1.4888671875,1.508203125,1.52431640625,1.546875,1.56943359375,1.58876953125,1.6048828125,1.61455078125,1.62744140625,1.64033203125,1.6306640625,1.57587890625,1.51142578125,1.43408203125,1.37607421875,1.33740234375,1.31162109375,1.2955078125,1.28583984375,1.2890625,1.301953125,1.3083984375,1.301953125,1.30517578125,1.31484375,1.31162109375,1.301953125,1.31162109375,1.31806640625,1.29228515625,1.29228515625,1.301953125,1.301953125,1.2955078125,1.2955078125,1.29873046875,1.2955078125,1.29873046875,1.301953125,1.30517578125,1.29228515625,1.29228515625,1.2955078125,1.29873046875,1.3083984375,1.29873046875,1.301953125,1.30517578125,1.3083984375,1.31484375,1.30517578125,1.31484375,1.35673828125,1.38896484375,1.40185546875,1.44052734375,1.4953125,1.5404296875,1.52109375,1.44697265625,1.35029296875,1.29873046875,1.27939453125,1.26328125,1.27294921875,1.2568359375,1.26650390625,1.26328125,1.1537109375,1.07958984375,1.4759765625,2.42666015625,2.95517578125,2.358984375,1.51787109375,1.1666015625,1.12470703125,1.2310546875,1.2375,1.2439453125,1.24072265625,1.25361328125,1.26328125,1.2697265625,1.2955078125,1.31484375,1.31484375,1.33740234375,1.353515625,1.353515625,1.3857421875,1.3921875,1.4115234375,1.4244140625,1.41796875,1.44697265625,1.47275390625,1.4888671875,1.49853515625,1.52431640625,1.55009765625,1.55654296875,1.5791015625,1.58876953125,1.60166015625,1.62099609375,1.62744140625,1.6177734375,1.56943359375,1.508203125,1.4373046875,1.3728515625,1.33095703125,1.3083984375,1.29228515625,1.28583984375,1.2890625,1.29228515625,1.2890625,1.29228515625,1.2890625,1.301953125,1.31484375,1.3083984375,1.31162109375,1.31162109375,1.31162109375,1.31162109375,1.3083984375,1.29228515625,1.31162109375,1.31484375,1.30517578125,1.31162109375,1.30517578125,1.3083984375,1.3083984375,1.327734375,1.37607421875,1.3986328125,1.40830078125,1.46953125,1.53076171875,1.56298828125,1.5275390625,1.43408203125,1.340625,1.2890625,1.27294921875,1.276171875,1.27294921875,1.26005859375,1.26328125,1.26005859375,1.134375,1.0892578125,1.51787109375,2.5330078125,2.951953125,2.28486328125,1.39541015625,1.0828125,1.14404296875,1.2375,1.24716796875,1.24716796875,1.250390625,1.26328125,1.27939453125,1.2826171875,1.2955078125,1.31806640625,1.327734375,1.33740234375,1.353515625,1.36962890625,1.37607421875,1.3921875,1.40830078125,1.41796875,1.44697265625,1.46630859375,1.47919921875,1.4953125,1.5146484375,1.52109375,1.5404296875,1.5662109375,1.5791015625,1.585546875,1.60166015625,1.61455078125,1.60166015625,1.56298828125,1.51142578125,1.4373046875,1.38251953125,1.340625,1.30517578125,1.27939453125,1.27939453125,1.2697265625,1.27939453125,1.276171875,1.2826171875,1.29228515625,1.29228515625,1.2890625,1.301953125,1.30517578125,1.301953125,1.29228515625,1.30517578125,1.30517578125,1.2955078125,1.29228515625,1.30517578125,1.29873046875,1.2955078125,1.2955078125,1.2955078125,1.2955078125,1.31162109375,1.3599609375,1.38896484375,1.40185546875,1.4630859375,1.5275390625,1.57265625,1.533984375,1.43408203125,1.33095703125,1.28583984375,1.26005859375,1.2439453125,1.2375,1.23427734375,1.24072265625,1.24072265625,1.1279296875,1.04091796875,1.42119140625,2.40087890625,2.96806640625,2.58134765625,1.44697265625,1.07314453125,1.18271484375,1.24716796875,1.23427734375,1.22783203125,1.2310546875,1.2439453125,1.250390625,1.26005859375,1.276171875,1.29228515625,1.301953125,1.3212890625,1.3341796875,1.340625,1.353515625,1.36962890625,1.3857421875,1.40185546875,1.4244140625,1.44052734375,1.4630859375,1.482421875,1.49208984375,1.508203125,1.5404296875,1.5404296875,1.55009765625,1.56943359375,1.58232421875,1.5919921875,1.5919921875,1.559765625,1.508203125,1.44375,1.379296875,1.33740234375,1.30517578125,1.28583984375,1.276171875,1.26650390625,1.28583984375,1.2890625,1.2890625,1.2890625,1.2955078125,1.301953125,1.31162109375,1.3212890625,1.3212890625,1.31806640625,1.31806640625,1.31162109375,1.3083984375,1.30517578125,1.3083984375,1.3083984375,1.31162109375,1.31162109375,1.31162109375,1.3212890625,1.379296875,1.40830078125,1.41474609375,1.47275390625,1.533984375,1.58232421875,1.56943359375,1.482421875,1.353515625,1.28583984375,1.26328125,1.26005859375,1.25361328125,1.250390625,1.24072265625,1.24716796875,1.16337890625,1.02802734375,1.327734375,2.19140625,2.9712890625,2.72314453125,1.5791015625,1.09248046875,1.15693359375,1.2375,1.22783203125,1.23427734375,1.24072265625,1.2439453125,1.250390625,1.2568359375,1.276171875,1.2955078125,1.301953125,1.31162109375,1.32451171875,1.3341796875,1.3599609375,1.37607421875,1.3921875,1.40185546875,1.42119140625,1.44375,1.456640625,1.4759765625,1.4953125,1.51787109375,1.533984375,1.55009765625,1.5662109375,1.58232421875,1.5984375,1.6048828125,1.611328125,1.58876953125,1.52431640625,1.45986328125,1.3986328125,1.34384765625,1.3212890625,1.29873046875,1.29873046875,1.29228515625,1.29873046875,1.31484375,1.30517578125,1.31162109375,1.327734375,1.340625,1.3341796875,1.3341796875,1.3341796875,1.33095703125,1.33095703125,1.327734375,1.32451171875,1.3212890625,1.327734375,1.33095703125,1.33095703125,1.3212890625,1.3212890625,1.31162109375,1.340625,1.40185546875,1.4244140625,1.430859375,1.4888671875,1.546875,1.60166015625,1.57265625,1.4759765625,1.3599609375,1.29873046875,1.27294921875,1.2568359375,1.2568359375,1.2568359375,1.26005859375,1.2568359375,1.14404296875,1.06025390625,1.41796875,2.3525390625,2.96162109375,2.42666015625,1.40185546875,1.0763671875,1.16337890625,1.24072265625,1.22783203125,1.22783203125,1.22138671875,1.22138671875,1.2310546875,1.24716796875,1.2568359375,1.26005859375,1.2697265625,1.2826171875,1.2955078125,1.3083984375,1.31484375,1.34384765625,1.3599609375,1.3599609375,1.36962890625,1.3857421875,1.3986328125,1.41474609375,1.42763671875,1.44052734375,1.45341796875,1.46953125,1.48564453125,1.49208984375,1.508203125,1.53076171875,1.51142578125,1.47275390625,1.40830078125,1.33740234375,1.276171875
1.546875,1.57265625,1.60166015625,1.6048828125,1.611328125,1.62099609375,1.58876953125,1.51787109375,1.46630859375,1.3986328125,1.3470703125,1.3212890625,1.31162109375,1.3083984375,1.301953125,1.2890625,1.29873046875,1.3083984375,1.2890625,1.30517578125,1.3212890625,1.31806640625,1.31806640625,1.31484375,1.31484375,1.31162109375,1.31484375,1.33095703125,1.31162109375,1.30517578125,1.31806640625,1.327734375,1.31806640625,1.301953125,1.31484375,1.31162109375,1.29873046875,1.31484375,1.3212890625,1.340625,1.38251953125,1.4244140625,1.4373046875,1.4888671875,1.5533203125,1.585546875,1.5404296875,1.45341796875,1.353515625,1.2955078125,1.2826171875,1.26650390625,1.26650390625,1.2568359375,1.24716796875,1.23427734375,1.09248046875,1.16015625,1.77890625,2.9326171875,2.8875,1.9013671875,1.22783203125,1.13115234375,1.2375,1.27939453125,1.25361328125,1.26005859375,1.26005859375,1.26650390625,1.29228515625,1.3083984375,1.31162109375,1.31484375,1.327734375,1.3470703125,1.35029296875,1.35029296875,1.36962890625,1.39541015625,1.4115234375,1.430859375,1.456640625,1.456640625,1.47919921875,1.4953125,1.53076171875,1.51787109375,1.52431640625,1.55654296875,1.5919921875,1.58876953125,1.58876953125,1.6306640625,1.64033203125,1.5662109375,1.5017578125,1.44052734375,1.36640625,1.32451171875,1.301953125,1.29228515625,1.28583984375,1.2890625,1.2890625,1.28583984375,1.29873046875,1.2955078125,1.29873046875,1.2890625,1.28583984375,1.2826171875,1.29228515625,1.28583984375,1.276171875,1.276171875,1.276171875,1.27939453125,1.2697265625,1.29228515625,1.2955078125,1.2890625,1.2890625,1.2955078125,1.27939453125,1.30517578125,1.34384765625,1.36318359375,1.3921875,1.456640625,1.53720703125,1.5533203125,1.51142578125,1.38251953125,1.29873046875,1.26005859375,1.2375,1.25361328125,1.2439453125,1.2052734375,1.2181640625,1.1859375,1.0634765625,1.224609375,1.920703125,2.95517578125,2.6748046875,1.688671875,1.2181640625,1.10859375,1.19560546875,1.2375,1.22783203125,1.21494140625,1.224609375,1.2310546875,1.250390625,1.2697265625,1.29873046875,1.301953125,1.31484375,1.340625,1.33740234375,1.34384765625,1.37607421875,1.379296875,1.3857421875,1.4115234375,1.42763671875,1.456640625,1.47275390625,1.482421875,1.508203125,1.52109375,1.546875,1.5662109375,1.585546875,1.611328125,1.62744140625,1.62099609375,1.5984375,1.5275390625,1.45986328125,1.41796875,1.35029296875,1.32451171875,1.2955078125,1.2697265625,1.2439453125,1.2310546875,1.26005859375,1.2826171875,1.27939453125,1.27939453125,1.276171875,1.2826171875,1.27939453125,1.276171875,1.27294921875,1.29228515625,1.30517578125,1.301953125,1.2955078125,1.30517578125,1.31806640625,1.3599609375,1.3921875,1.405078125,1.456640625,1.52109375,1.57587890625,1.56298828125,1.46630859375,1.35673828125,1.31162109375,1.27939453125,1.26328125,1.2697265625,1.2697265625,1.26005859375,1.26650390625,1.18916015625,1.12470703125,1.5017578125,2.46533203125,2.94228515625,2.307421875,1.482421875,1.20205078125,1.13115234375,1.250390625,1.27939453125,1.276171875,1.276171875,1.29873046875,1.29873046875,1.31806640625,1.327734375,1.327734375,1.340625,1.36318359375,1.36640625,1.37607421875,1.40185546875,1.430859375,1.44052734375,1.44375,1.45341796875,1.4759765625,1.49853515625,1.51787109375,1.51787109375,1.54365234375,1.55009765625,1.585546875,1.6048828125,1.5984375,1.6306640625,1.65,1.6177734375,1.55654296875,1.5017578125,1.44052734375,1.36962890625,1.32451171875,1.30517578125,1.30517578125,1.276171875,1.27294921875,1.27939453125,1.2890625,1.2826171875,1.26328125,1.2826171875,1.29228515625,1.27294921875,1.2826171875,1.27294921875,1.27939453125,1.2890625,1.3212890625,1.3341796875,1.35029296875,1.36640625,1.4373046875,1.482421875,1.4953125,1.49853515625,1.4244140625,1.2890625,1.2375,1.224609375,1.22138671875,1.18916015625,1.198828125,1.198828125,1.1859375,1.08603515625,1.0376953125,1.49208984375,2.56201171875,2.96162109375,2.31708984375,1.31162109375,1.03447265625,1.11826171875,1.19560546875,1.198828125,1.18271484375,1.1923828125,1.2052734375,1.2181640625,1.2375,1.24716796875,1.25361328125,1.2697265625,1.276171875,1.3083984375,1.33095703125,1.34384765625,1.35673828125,1.36962890625,1.3921875,1.405078125,1.41474609375,1.44697265625,1.47275390625,1.47919921875,1.5017578125,1.50498046875,1.51787109375,1.55009765625,1.56298828125,1.56943359375,1.56943359375,1.5533203125,1.508203125,1.43408203125,1.37607421875,1.31806640625,1.27939453125,1.2568359375,1.26005859375,1.26650390625,1.250390625,1.26650390625,1.2890625,1.2826171875,1.27294921875,1.2826171875,1.28583984375,1.28583984375,1.29228515625,1.31806640625,1.353515625,1.37607421875,1.36962890625,1.41796875,1.482421875,1.52109375,1.52109375,1.4759765625,1.3599609375,1.29228515625,1.26005859375,1.25361328125,1.25361328125,1.24072265625,1.23427734375,1.24072265625,1.20205078125,1.0505859375,1.147265625,1.84013671875,2.98095703125,2.9455078125,1.9658203125,1.2052734375,1.1021484375,1.21494140625,1.23427734375,1.224609375,1.23427734375,1.2310546875,1.2375,1.25361328125,1.2697265625,1.2890625,1.2955078125,1.3083984375,1.327734375,1.35029296875,1.36318359375,1.36962890625,1.3986328125,1.4115234375,1.43408203125,1.456640625,1.4630859375,1.47919921875,1.5017578125,1.52109375,1.52431640625,1.54365234375,1.56298828125,1.585546875,1.5919921875,1.60166015625,1.585546875,1.54365234375,1.48564453125,1.4244140625,1.379296875,1.33095703125,1.31162109375,1.29873046875,1.29873046875,1.3083984375,1.2955078125,1.29873046875,1.3083984375,1.301953125,1.3083984375,1.31162109375,1.31806640625,1.3212890625,1.3083984375,1.31806640625,1.3341796875,1.36318359375,1.3857421875,1.3857421875,1.43408203125,1.49853515625,1.546875,1.533984375,1.456640625,1.353515625,1.2955078125,1.26328125,1.24716796875,1.250390625,1.25361328125,1.250390625,1.24072265625,1.1859375,1.044140625,1.2310546875,2.0173828125,2.9712890625,2.8037109375,1.77890625,1.18916015625,1.0892578125,1.1923828125,1.224609375,1.2181640625,1.2181640625,1.22138671875,1.23427734375,1.250390625,1.26328125,1.276171875,1.2890625,1.301953125,1.3212890625,1.32451171875,1.340625,1.3599609375,1.36962890625,1.3857421875,1.40185546875,1.42763671875,1.44375,1.4630859375,1.48564453125,1.49853515625,1.508203125,1.52431640625,1.54365234375,1.55654296875,1.56298828125,1.58232421875,1.56298828125,1.52109375,1.4630859375,1.40185546875,1.34384765625,1.3083984375,1.2955078125,1.27939453125,1.27294921875,1.28583984375,1.29228515625,1.2826171875,1.29228515625,1.28583984375,1.2890625,1.2890625,1.301953125,1.3083984375,1.32451171875,1.340625,1.3728515625,1.379296875,1.4244140625,1.49208984375,1.5275390625,1.51787109375,1.4630859375,1.35673828125,1.29228515625,1.25361328125,1.2310546875,1.2310546875,1.23427734375,1.2310546875,1.224609375,1.18271484375,1.03447265625,1.1279296875,1.791796875,2.93583984375,2.848828125,1.91103515625,1.29873046875,1.0505859375,1.11826171875,1.1923828125,1.20849609375,1.21494140625,1.21494140625,1.2310546875,1.250390625,1.2568359375,1.26650390625,1.28583984375,1.30517578125,1.31162109375,1.3341796875,1.3599609375,1.36640625,1.3857421875,1.40185546875,1.41796875,1.430859375,1.45341796875,1.4759765625,1.47919921875,1.4953125,1.51787109375,1.53076171875,1.54365234375,1.55009765625,1.5662109375,1.56298828125,1.5404296875,1.50498046875,1.456640625,1.40185546875,1.35029296875,1.3212890625,1.301953125,1.2890625,1.2890625,1.28583984375,1.2890625,1.29873046875,1.29873046875,1.301953125,1.3083984375,1.31162109375,1.3212890625,1.31806640625,1.31484375,1.31484375,1.31162109375,1.3212890625,1.31484375,1.3212890625,1.35029296875,1.379296875,1.3921875,1.41474609375,1.48564453125,1.53720703125,1.5533203125,1.5017578125,1.405078125,1.31484375,1.2826171875,1.26650390625,1.250390625,1.24072265625,1.23427734375,1.24716796875,1.22783203125,1.1021484375,1.0892578125,1.5919921875,2.74892578125,2.95517578125,2.35576171875,1.327734375,1.069921875,1.18916015625,1.2375,1.2310546875,1.224609375,1.2375,1.250390625,1.26005859375,1.27939453125,1.2890625,1.2890625,1.3083984375,1.3212890625,1.34384765625,1.353515625,1.3728515625,1.38896484375,1.3986328125,1.41474609375,1.4373046875,1.4630859375,1.48564453125,1.5017578125,1.51142578125,1.5275390625,1.546875,1.559765625,1.5662109375,1.585546875,1.59521484375,1.58232421875,1.5533203125,1.4953125,1.4373046875,1.38251953125,1.34384765625,1.301953125,1.2826171875,1.28583984375,1.2826171875,1.28583984375,1.2890625,1.29228515625,1.30517578125,1.31484375,1.3212890625,1.32451171875,1.327734375,1.32451171875,1.32451171875,1.32451171875,1.32451171875,1.3212890625,1.31806640625,1.31806640625,1.31806640625,1.3083984375,1.31484375,1.31806640625,1.31484375,1.31806640625,1.3212890625,1.31484375,1.3212890625,1.32451171875,1.32451171875,1.36318359375,1.3857421875,1.3986328125,1.42763671875,1.4888671875,1.54365234375,1.56298828125,1.52431640625,1.44052734375,1.353515625,1.301953125,1.2955078125,1.2826171875,1.26005859375,1.26650390625,1.276171875,1.24716796875,1.121484375,1.12470703125,1.64677734375,2.80048828125,2.96806640625,2.3396484375,1.3341796875,1.09892578125,1.20849609375,1.25361328125,1.25361328125,1.24716796875,1.2568359375,1.2697265625,1.27294921875,1.2890625,1.29873046875,1.31162109375,1.327734375,1.3341796875,1.35029296875,1.37607421875,1.3857421875,1.405078125,1.41796875,1.43408203125,1.44375,1.456640625,1.48564453125,1.50498046875,1.52109375,1.5275390625,1.559765625,1.57587890625,1.58876953125,1.60166015625,1.5984375,1.6048828125,1.5919921875,1.55009765625,1.49208984375,1.4244140625,1.36640625,1.32451171875,1.29873046875,1.2890625,1.2826171875,1.29228515625,1.28583984375,1.29228515625,1.29873046875,1.2955078125,1.2955078125,1.30517578125,1.3083984375,1.3083984375,1.3083984375,1.3083984375,1.31162109375,1.30517578125,1.2955078125,1.2955078125,1.3083984375,1.3083984375,1.2955078125,1.2955078125,1.29228515625,1.29873046875,1.301953125,1.30517578125,1.2955078125,1.301953125,1.30517578125,1.3083984375,1.30517578125,1.30517578125,1.3083984375,1.31162109375,1.31162109375,1.31806640625,1.327734375,1.31806640625,1.32451171875,1.36640625,1.3921875,1.3857421875,1.4115234375,1.48564453125,1.55009765625,1.55009765625,1.5017578125,1.40830078125,1.33095703125,1.301953125,1.2890625,1.2826171875,1.28583984375,1.276171875,1.2697265625,1.22783203125,1.09248046875,1.23427734375,1.94326171875,2.96484375,2.87138671875,1.93359375,1.2826171875,1.11826171875,1.2052734375,1.24716796875,1.26005859375,1.25361328125,1.26005859375,1.27939453125,1.2890625,1.2955078125,1.3083984375,1.327734375,1.33095703125,1.3470703125,1.36318359375,1.3599609375,1.38251953125,1.40830078125,1.41796875,1.42763671875,1.44697265625,1.47275390625,1.48564453125,1.5017578125,1.52109375,1.54365234375,1.559765625,1.57265625,1.5919921875,1.60810546875,1.611328125,1.61455078125,1.60810546875,1.5662109375,1.49853515625,1.430859375,1.3728515625,1.33095703125,1.31162109375,1.2955078125,1.28583984375,1.28583984375,1.28583984375,1.2890625,1.29873046875,1.301953125,1.29873046875,1.29873046875,1.31162109375,1.31806640625,1.31484375,1.31484375,1.31484375,1.30517578125,1.30517578125,1.31484375,1.31806640625,1.30517578125,1.301953125,1.30517578125,1.30517578125,1.31484375,1.3083984375,1.31162109375,1.30517578125,1.31162109375,1.31484375,1.31162109375,1.31484375,1.31162109375,1.31806640625,1.327734375,1.33740234375,1.36962890625,1.3921875,1.3921875,1.45986328125,1.53076171875,1.55009765625,1.53720703125,1.47919921875,1.379296875,1.32451171875,1.301953125,1.28583984375,1.276171875,1.27939453125,1.27294921875,1.2697265625,1.1666015625,1.07314453125,1.4373046875,2.37509765625,2.95517578125,2.49111328125,1.61455078125,1.20205078125,1.10859375,1.21494140625,1.25361328125,1.24716796875,1.25361328125,1.26005859375,1.2697265625,1.2826171875,1.29873046875,1.31484375,1.32451171875,1.34384765625,1.3599609375,1.36962890625,1.3857421875,1.405078125,1.41796875,1.430859375,1.45341796875,1.47275390625,1.48564453125,1.49853515625,1.52109375,1.5404296875,1.559765625,1.57587890625,1.58876953125,1.60810546875,1.61455078125,1.6177734375,1.61455078125,1.58232421875,1.52431640625,1.45986328125,1.40185546875,1.353515625,1.31162109375,1.29873046875,1.28583984375,1.2826171875,1.2890625,1.28583984375,1.2955078125,1.2955078125,1.301953125,1.3083984375,1.30517578125,1.31162109375,1.30517578125,1.31806640625,1.31484375,1.31806640625,1.3212890625,1.31162109375,1.31806640625,1.31806640625,1.31484375,1.31162109375,1.31484375,1.31162109375,1.30517578125,1.3083984375,1.31484375,1.31484375,1.31806640625,1.32451171875,1.3212890625,1.32451171875,1.31806640625,1.3212890625,1.327734375,1.33095703125,1.33095703125,1.327734375,1.3341796875,1.33740234375,1.340625,1.3470703125,1.3728515625,1.40830078125,1.42119140625,1.44052734375,1.5017578125,1.546875,1.56943359375,1.52109375,1.43408203125,1.3599609375,1.33095703125,1.32451171875,1.3083984375,1.29873046875,1.301953125,1.301953125,1.26650390625,1.121484375,1.20849609375,1.85625,2.96484375,2.96484375,2.33642578125,1.27294921875,1.10537109375,1.2439453125,1.26650390625,1.25361328125,1.25361328125,1.2568359375,1.2697265625,1.28583984375,1.29228515625,1.301953125,1.31162109375,1.3212890625,1.3341796875,1.353515625,1.36640625,1.3728515625,1.38896484375,1.40185546875,1.42119140625,1.43408203125,1.4501953125,1.46953125,1.49853515625,1.51787109375,1.533984375,1.559765625,1.56943359375,1.5791015625,1.59521484375,1.60810546875,1.611328125,1.60810546875,1.57587890625,1.51142578125,1.43408203125,1.36640625,1.31484375,1.27939453125,1.2568359375,1.2439453125,1.23427734375,1.24072265625,1.25361328125,1.26005859375,1.26005859375,1.26650390625,1.27939453125,1.27294921875,1.27939453125,1.29228515625,1.2955078125,1.2890625,1.29228515625,1.2890625,1.29228515625,1.2890625,1.28583984375,1.2890625,1.27939453125,1.2826171875,1.2890625,1.27939453125,1.27939453125,1.29228515625,1.2890625,1.29873046875,1.2826171875,1.29228515625,1.301953125,1.29873046875,1.29873046875,1.31162109375,1.32451171875,1.31806640625,1.31484375,1.31806640625,1.32451171875,1.327734375,1.327734375,1.3341796875,1.33740234375,1.33095703125,1.3470703125,1.35029296875,1.3470703125,1.3599609375,1.3728515625,1.4244140625,1.430859375,1.44375,1.51142578125,1.55009765625,1.58876953125,1.54365234375,1.47919921875,1.3986328125,1.35029296875,1.33095703125,1.32451171875,1.32451171875,1.32451171875,1.31806640625,1.2955078125,1.1794921875,1.17626953125,1.6951171875,2.8359375,2.96484375,2.5330078125,1.40830078125,1.12470703125,1.2439453125,1.2826171875,1.276171875,1.2697265625,1.2890625,1.2955078125,1.30517578125,1.3083984375,1.3212890625,1.33095703125,1.34384765625,1.35673828125,1.36640625,1.38251953125,1.405078125,1.41796875,1.430859375,1.44375,1.45341796875,1.47275390625,1.49208984375,1.51787109375,1.53720703125,1.5533203125,1.57587890625,1.5919921875,1.59521484375,1.60810546875,1.6306640625,1.6564453125,1.65,1.62744140625,1.57265625,1.50498046875,1.430859375,1.36640625,1.32451171875,1.28583984375,1.2697265625,1.2697265625,1.2697265625,1.276171875,1.2826171875,1.2826171875,1.2955078125,1.301953125,1.301953125,1.30517578125,1.3083984375,1.3083984375,1.2955078125,1.30517578125,1.31162109375,1.30517578125,1.3083984375,1.30517578125,1.30517578125,1.30517578125,1.30517578125,1.30517578125,1.31162109375,1.30517578125,1.3083984375,1.3083984375,1.31484375,1.31484375,1.31806640625,1.31162109375,1.3212890625,1.3212890625,1.33095703125,1.33095703125,1.33095703125,1.3212890625,1.327734375,1.33740234375,1.340625,1.34384765625,1.327734375,1.3341796875,1.3470703125,1.34384765625,1.34384765625,1.35673828125,1.35673828125,1.35673828125,1.38251953125,1.40185546875,1.41796875,1.4373046875,1.5017578125,1.56943359375,1.57587890625,1.546875,1.456640625,1.38896484375,1.33740234375,1.327734375,1.31806640625,1.31162109375,1.29873046875,1.29873046875,1.250390625,1.10537109375,1.2697265625,1.97548828125,2.96484375,2.81337890625,1.87236328125,1.33095703125,1.1021484375,1.16982421875,1.24716796875,1.2439453125,1.24716796875,1.2439453125,1.26328125,1.26650390625,1.26650390625,1.28583984375,1.2890625,1.29873046875,1.30517578125,1.30517578125,1.327734375,1.327734375,1.34384765625,1.35673828125,1.36318359375,1.379296875,1.3921875,1.405078125,1.41796875,1.4244140625,1.430859375,1.44697265625,1.4630859375,1.47275390625,1.49208984375,1.5017578125,1.49853515625,1.5017578125,1.4759765625,1.40830078125,1.32451171875,1.250390625,1.1923828125
1.26328125,1.2826171875,1.27939453125,1.28583984375,1.2890625,1.29873046875,1.31484375,1.3212890625,1.3341796875,1.3470703125,1.3599609375,1.38251953125,1.3857421875,1.38896484375,1.41796875,1.430859375,1.44697265625,1.4630859375,1.47919921875,1.50498046875,1.51787109375,1.55009765625,1.56943359375,1.58876953125,1.59521484375,1.61455078125,1.6306640625,1.65966796875,1.66611328125,1.67255859375,1.65,1.58232421875,1.51142578125,1.4373046875,1.36962890625,1.31162109375,1.3212890625,1.30517578125,1.29873046875,1.30517578125,1.29228515625,1.301953125,1.2890625,1.301953125,1.30517578125,1.29228515625,1.3212890625,1.32451171875,1.327734375,1.31806640625,1.31484375,1.3083984375,1.30517578125,1.301953125,1.31806640625,1.301953125,1.30517578125,1.31162109375,1.301953125,1.2890625,1.31484375,1.31162109375,1.301953125,1.3083984375,1.3212890625,1.3212890625,1.3083984375,1.3341796875,1.3212890625,1.31806640625,1.3212890625,1.36318359375,1.405078125,1.3986328125,1.42763671875,1.4888671875,1.52109375,1.47919921875,1.42119140625,1.35673828125,1.31162109375,1.3083984375,1.30517578125,1.29228515625,1.276171875,1.2826171875,1.27294921875,1.1794921875,1.1021484375,1.48564453125,2.4814453125,2.96484375,2.54912109375,1.5146484375,1.13115234375,1.1666015625,1.25361328125,1.26328125,1.26328125,1.276171875,1.2826171875,1.2955078125,1.2890625,1.31806640625,1.31806640625,1.327734375,1.340625,1.353515625,1.36640625,1.38251953125,1.3986328125,1.4115234375,1.43408203125,1.44697265625,1.4630859375,1.46953125,1.48564453125,1.50498046875,1.533984375,1.53720703125,1.56298828125,1.59521484375,1.60166015625,1.6048828125,1.637109375,1.65322265625,1.63388671875,1.56943359375,1.48564453125,1.42119140625,1.36640625,1.31484375,1.28583984375,1.2955078125,1.26650390625,1.26650390625,1.2826171875,1.276171875,1.26650390625,1.276171875,1.27939453125,1.2826171875,1.28583984375,1.29228515625,1.2955078125,1.30517578125,1.29873046875,1.3083984375,1.301953125,1.26650390625,1.26328125,1.26650390625,1.26328125,1.26328125,1.2826171875,1.2826171875,1.28583984375,1.2890625,1.2955078125,1.29228515625,1.28583984375,1.2955078125,1.301953125,1.30517578125,1.2955078125,1.29873046875,1.31162109375,1.33095703125,1.34384765625,1.36962890625,1.3921875,1.44697265625,1.4953125,1.508203125,1.4501953125,1.38251953125,1.33095703125,1.301953125,1.28583984375,1.28583984375,1.2890625,1.30517578125,1.28583984375,1.27294921875,1.15693359375,1.147265625,1.662890625,2.74248046875,2.951953125,2.1978515625,1.42763671875,1.1537109375,1.1666015625,1.27939453125,1.2826171875,1.26650390625,1.2826171875,1.27939453125,1.301953125,1.3212890625,1.3212890625,1.3341796875,1.35673828125,1.36640625,1.36962890625,1.3857421875,1.41474609375,1.4244140625,1.4373046875,1.45341796875,1.456640625,1.49208984375,1.5146484375,1.52109375,1.546875,1.56943359375,1.58232421875,1.60166015625,1.6177734375,1.64033203125,1.65322265625,1.6693359375,1.6693359375,1.65322265625,1.5984375,1.52109375,1.44375,1.38896484375,1.34384765625,1.31484375,1.2955078125,1.2955078125,1.2955078125,1.29228515625,1.2955078125,1.3083984375,1.31484375,1.30517578125,1.30517578125,1.301953125,1.30517578125,1.31162109375,1.31162109375,1.29228515625,1.30517578125,1.29228515625,1.2890625,1.2955078125,1.29873046875,1.29228515625,1.2890625,1.28583984375,1.2955078125,1.2890625,1.29228515625,1.2955078125,1.28583984375,1.29873046875,1.29873046875,1.30517578125,1.29873046875,1.2890625,1.301953125,1.3470703125,1.3599609375,1.36318359375,1.3921875,1.4501953125,1.482421875,1.47275390625,1.41474609375,1.35029296875,1.31484375,1.29228515625,1.2697265625,1.26650390625,1.2697265625,1.2697265625,1.27294921875,1.224609375,1.0828125,1.22138671875,1.894921875,2.96806640625,2.8681640625,1.93037109375,1.3212890625,1.1150390625,1.1794921875,1.22783203125,1.2375,1.26328125,1.26650390625,1.26328125,1.26005859375,1.27294921875,1.2890625,1.30517578125,1.31484375,1.31806640625,1.340625,1.353515625,1.36962890625,1.38251953125,1.405078125,1.42119140625,1.4244140625,1.44375,1.46630859375,1.48564453125,1.5017578125,1.53076171875,1.546875,1.56943359375,1.58876953125,1.6048828125,1.61455078125,1.62744140625,1.6306640625,1.611328125,1.54365234375,1.46630859375,1.40185546875,1.34384765625,1.3083984375,1.27294921875,1.25361328125,1.2568359375,1.27294921875,1.2697265625,1.2697265625,1.276171875,1.27939453125,1.2890625,1.2955078125,1.2826171875,1.28583984375,1.2955078125,1.29228515625,1.2890625,1.2955078125,1.29228515625,1.29873046875,1.31162109375,1.31162109375,1.3083984375,1.30517578125,1.301953125,1.3083984375,1.31806640625,1.33095703125,1.35673828125,1.3728515625,1.41796875,1.482421875,1.5017578125,1.46630859375,1.405078125,1.33740234375,1.3083984375,1.2890625,1.276171875,1.26650390625,1.276171875,1.2890625,1.26650390625,1.21171875,1.08603515625,1.31162109375,2.08828125,2.96484375,2.6490234375,1.740234375,1.2955078125,1.1021484375,1.18916015625,1.250390625,1.25361328125,1.26650390625,1.276171875,1.2826171875,1.29873046875,1.30517578125,1.31484375,1.33095703125,1.3341796875,1.35673828125,1.36318359375,1.37607421875,1.3921875,1.40185546875,1.430859375,1.44052734375,1.456640625,1.47275390625,1.49853515625,1.51787109375,1.53076171875,1.5533203125,1.56943359375,1.5791015625,1.60810546875,1.61455078125,1.6306640625,1.6306640625,1.6048828125,1.559765625,1.4953125,1.4244140625,1.36640625,1.32451171875,1.29873046875,1.28583984375,1.27294921875,1.27939453125,1.27939453125,1.27939453125,1.276171875,1.28583984375,1.2955078125,1.29873046875,1.301953125,1.30517578125,1.3083984375,1.31484375,1.3083984375,1.29873046875,1.30517578125,1.31162109375,1.31162109375,1.3083984375,1.29873046875,1.2955078125,1.30517578125,1.30517578125,1.30517578125,1.30517578125,1.30517578125,1.327734375,1.3599609375,1.379296875,1.3857421875,1.44052734375,1.48564453125,1.49853515625,1.4501953125,1.38896484375,1.3212890625,1.2890625,1.2697265625,1.26005859375,1.26005859375,1.26005859375,1.26328125,1.25361328125,1.13759765625,1.08603515625,1.50498046875,2.55556640625,2.96162109375,2.63935546875,1.4953125,1.07958984375,1.1794921875,1.250390625,1.24072265625,1.2310546875,1.250390625,1.2568359375,1.26650390625,1.276171875,1.2890625,1.301953125,1.31162109375,1.327734375,1.3341796875,1.35029296875,1.36318359375,1.38251953125,1.3986328125,1.41796875,1.43408203125,1.45341796875,1.45986328125,1.48564453125,1.5017578125,1.5275390625,1.546875,1.5662109375,1.5791015625,1.59521484375,1.611328125,1.6306640625,1.62744140625,1.60166015625,1.546875,1.47919921875,1.405078125,1.33740234375,1.29228515625,1.276171875,1.2697265625,1.26328125,1.2568359375,1.2697265625,1.276171875,1.27939453125,1.27939453125,1.2955078125,1.2955078125,1.30517578125,1.301953125,1.29228515625,1.30517578125,1.29873046875,1.30517578125,1.3083984375,1.301953125,1.29873046875,1.301953125,1.28583984375,1.301953125,1.2955078125,1.30517578125,1.301953125,1.31162109375,1.3599609375,1.379296875,1.38251953125,1.42119140625,1.4759765625,1.50498046875,1.45341796875,1.4115234375,1.340625,1.29873046875,1.27939453125,1.26650390625,1.250390625,1.250390625,1.2568359375,1.26005859375,1.1923828125,1.05380859375,1.301953125,2.1462890625,2.96484375,2.874609375,1.78212890625,1.13115234375,1.13115234375,1.23427734375,1.25361328125,1.250390625,1.25361328125,1.250390625,1.2697265625,1.276171875,1.2955078125,1.29228515625,1.31162109375,1.31806640625,1.327734375,1.3470703125,1.36318359375,1.3728515625,1.39541015625,1.41474609375,1.4373046875,1.44052734375,1.46953125,1.49208984375,1.5017578125,1.5275390625,1.5533203125,1.57265625,1.58876953125,1.59521484375,1.61455078125,1.62421875,1.62744140625,1.611328125,1.559765625,1.49208984375,1.40830078125,1.35029296875,1.30517578125,1.27294921875,1.26650390625,1.26328125,1.26650390625,1.27294921875,1.276171875,1.2826171875,1.2826171875,1.2826171875,1.2955078125,1.29228515625,1.2955078125,1.301953125,1.30517578125,1.30517578125,1.301953125,1.301953125,1.301953125,1.29873046875,1.29873046875,1.29873046875,1.2890625,1.29228515625,1.2955078125,1.30517578125,1.33740234375,1.37607421875,1.379296875,1.40185546875,1.4759765625,1.52431640625,1.53076171875,1.4630859375,1.36962890625,1.3083984375,1.27294921875,1.26650390625,1.26005859375,1.25361328125,1.250390625,1.24716796875,1.22783203125,1.0892578125,1.1279296875,1.70478515625,2.88427734375,2.951953125,2.13662109375,1.29228515625,1.095703125,1.18916015625,1.2439453125,1.2375,1.2375,1.24072265625,1.24716796875,1.26328125,1.27939453125,1.2890625,1.2955078125,1.31484375,1.327734375,1.34384765625,1.36640625,1.38251953125,1.3986328125,1.4115234375,1.42119140625,1.43408203125,1.45341796875,1.47275390625,1.5017578125,1.51787109375,1.533984375,1.5662109375,1.5791015625,1.585546875,1.5984375,1.62744140625,1.62421875,1.61455078125,1.5791015625,1.51142578125,1.42763671875,1.3728515625,1.3212890625,1.2890625,1.27294921875,1.26005859375,1.276171875,1.27294921875,1.2826171875,1.2890625,1.28583984375,1.2955078125,1.3083984375,1.3083984375,1.31162109375,1.3083984375,1.31162109375,1.3083984375,1.301953125,1.29873046875,1.301953125,1.2955078125,1.2955078125,1.33740234375,1.36962890625,1.37607421875,1.4115234375,1.47919921875,1.53720703125,1.546875,1.4953125,1.3921875,1.301953125,1.26328125,1.2375,1.224609375,1.2310546875,1.23427734375,1.23427734375,1.21494140625,1.07958984375,1.10537109375,1.65322265625,2.8359375,2.9583984375,2.18818359375,1.2826171875,1.0634765625,1.1794921875,1.22783203125,1.2052734375,1.19560546875,1.22138671875,1.2310546875,1.2439453125,1.26328125,1.2697265625,1.2826171875,1.2955078125,1.3083984375,1.3212890625,1.32451171875,1.3470703125,1.3728515625,1.3857421875,1.40830078125,1.42763671875,1.44375,1.46953125,1.482421875,1.5017578125,1.53076171875,1.55009765625,1.56943359375,1.56943359375,1.58876953125,1.60166015625,1.6177734375,1.60166015625,1.54365234375,1.47275390625,1.40185546875,1.33095703125,1.2955078125,1.27294921875,1.25361328125,1.2568359375,1.2568359375,1.26650390625,1.26650390625,1.276171875,1.2826171875,1.29228515625,1.28583984375,1.2955078125,1.29873046875,1.2955078125,1.29228515625,1.2955078125,1.29228515625,1.301953125,1.3083984375,1.3212890625,1.3470703125,1.36318359375,1.3986328125,1.45986328125,1.51787109375,1.546875,1.5017578125,1.40830078125,1.3212890625,1.26650390625,1.250390625,1.2439453125,1.24716796875,1.24072265625,1.2375,1.24072265625,1.13759765625,1.0763671875,1.49853515625,2.513671875,2.95517578125,2.29453125,1.51142578125,1.16337890625,1.1021484375,1.20205078125,1.2375,1.2375,1.2375,1.2439453125,1.276171875,1.29228515625,1.301953125,1.31162109375,1.3212890625,1.3341796875,1.340625,1.36640625,1.38896484375,1.40185546875,1.42119140625,1.430859375,1.44375,1.4759765625,1.4953125,1.5146484375,1.52431640625,1.54365234375,1.5662109375,1.585546875,1.60166015625,1.6048828125,1.6177734375,1.62744140625,1.611328125,1.57265625,1.51142578125,1.44052734375,1.3857421875,1.340625,1.31806640625,1.3083984375,1.29873046875,1.2955078125,1.29228515625,1.29873046875,1.301953125,1.30517578125,1.3083984375,1.31162109375,1.31162109375,1.31484375,1.31806640625,1.31484375,1.31484375,1.31484375,1.3083984375,1.30517578125,1.31484375,1.31162109375,1.3083984375,1.3083984375,1.31484375,1.31806640625,1.31162109375,1.3083984375,1.31484375,1.31162109375,1.31484375,1.36318359375,1.40185546875,1.39541015625,1.45341796875,1.51787109375,1.55654296875,1.53720703125,1.47919921875,1.38896484375,1.31162109375,1.27939453125,1.26650390625,1.2568359375,1.25361328125,1.26005859375,1.24716796875,1.18271484375,1.0505859375,1.28583984375,2.1140625,2.96162109375,2.874609375,1.7982421875,1.12470703125,1.1150390625,1.22138671875,1.23427734375,1.224609375,1.224609375,1.23427734375,1.24716796875,1.2568359375,1.27294921875,1.2826171875,1.29228515625,1.30517578125,1.32451171875,1.340625,1.35029296875,1.36640625,1.37607421875,1.3986328125,1.40830078125,1.42763671875,1.44375,1.4630859375,1.4888671875,1.50498046875,1.52109375,1.5533203125,1.559765625,1.56298828125,1.585546875,1.5984375,1.6048828125,1.58232421875,1.546875,1.49208984375,1.42763671875,1.36962890625,1.32451171875,1.301953125,1.29228515625,1.2826171875,1.276171875,1.2826171875,1.28583984375,1.2890625,1.30517578125,1.31484375,1.3083984375,1.31162109375,1.31162109375,1.31484375,1.31484375,1.31162109375,1.301953125,1.29873046875,1.3083984375,1.301953125,1.30517578125,1.30517578125,1.301953125,1.31162109375,1.30517578125,1.30517578125,1.30517578125,1.3083984375,1.31162109375,1.30517578125,1.3083984375,1.31162109375,1.31484375,1.31484375,1.3212890625,1.3470703125,1.3986328125,1.4115234375,1.42763671875,1.48564453125,1.54365234375,1.57265625,1.52109375,1.44052734375,1.35029296875,1.3083984375,1.2955078125,1.2697265625,1.276171875,1.276171875,1.2697265625,1.2568359375,1.11826171875,1.1279296875,1.688671875,2.8423828125,2.9583984375,2.3138671875,1.33740234375,1.09892578125,1.20849609375,1.2697265625,1.250390625,1.24716796875,1.2568359375,1.2697265625,1.2826171875,1.29228515625,1.29873046875,1.31484375,1.33095703125,1.340625,1.353515625,1.36318359375,1.3857421875,1.40830078125,1.4244140625,1.42763671875,1.44375,1.4630859375,1.47919921875,1.51142578125,1.53720703125,1.54365234375,1.56298828125,1.5791015625,1.59521484375,1.60810546875,1.62421875,1.6306640625,1.63388671875,1.61455078125,1.55654296875,1.4888671875,1.430859375,1.36640625,1.327734375,1.30517578125,1.29228515625,1.2955078125,1.2955078125,1.29873046875,1.29873046875,1.301953125,1.3083984375,1.31484375,1.31806640625,1.31806640625,1.31806640625,1.31484375,1.31484375,1.31484375,1.3083984375,1.30517578125,1.2955078125,1.29873046875,1.29873046875,1.2955078125,1.2955078125,1.29228515625,1.2955078125,1.29228515625,1.28583984375,1.2955078125,1.30517578125,1.30517578125,1.301953125,1.30517578125,1.301953125,1.29873046875,1.29873046875,1.3083984375,1.3083984375,1.3212890625,1.3212890625,1.33740234375,1.3728515625,1.3921875,1.39541015625,1.44375,1.50498046875,1.55654296875,1.533984375,1.47919921875,1.3921875,1.327734375,1.301953125,1.276171875,1.28583984375,1.27294921875,1.2697265625,1.27294921875,1.17626953125,1.07958984375,1.44697265625,2.38154296875,2.977734375,2.55234375,1.61455078125,1.198828125,1.1408203125,1.23427734375,1.26650390625,1.250390625,1.250390625,1.2568359375,1.27939453125,1.2955078125,1.29873046875,1.31162109375,1.32451171875,1.3470703125,1.35029296875,1.36640625,1.37607421875,1.3921875,1.405078125,1.40830078125,1.4373046875,1.44697265625,1.46953125,1.49208984375,1.51142578125,1.52431640625,1.55009765625,1.55654296875,1.57587890625,1.5919921875,1.60166015625,1.6177734375,1.62421875,1.62744140625,1.59521484375,1.52109375,1.4501953125,1.3986328125,1.34384765625,1.301953125,1.2890625,1.2890625,1.27939453125,1.29228515625,1.29228515625,1.29873046875,1.30517578125,1.2890625,1.3083984375,1.30517578125,1.30517578125,1.30517578125,1.30517578125,1.3083984375,1.29873046875,1.29873046875,1.29873046875,1.2955078125,1.301953125,1.3083984375,1.3083984375,1.2955078125,1.29873046875,1.29873046875,1.301953125,1.301953125,1.301953125,1.30517578125,1.301953125,1.2955078125,1.327734375,1.36318359375,1.3728515625,1.38251953125,1.44697265625,1.508203125,1.54365234375,1.51787109375,1.4373046875,1.34384765625,1.2955078125,1.276171875,1.2697265625,1.2568359375,1.25361328125,1.2568359375,1.2375,1.13115234375,1.069921875,1.49208984375,2.49111328125,2.9455078125,2.39765625,1.5404296875,1.15693359375,1.09892578125,1.20205078125,1.2310546875,1.22783203125,1.2310546875,1.2439453125,1.26650390625,1.2697265625,1.27294921875,1.29228515625,1.31162109375,1.31484375,1.32451171875,1.340625,1.36318359375,1.379296875,1.3921875,1.4115234375,1.4244140625,1.44052734375,1.46630859375,1.48564453125,1.4953125,1.52431640625,1.533984375,1.5533203125,1.57265625,1.585546875,1.59521484375,1.611328125,1.62744140625,1.5984375,1.55009765625,1.48564453125,1.41474609375,1.3599609375,1.32451171875,1.3083984375,1.29228515625,1.2890625,1.29873046875,1.29873046875,1.31484375,1.31806640625,1.31484375,1.32451171875,1.327734375,1.33095703125,1.3341796875,1.33740234375,1.34384765625,1.35029296875,1.353515625,1.35673828125,1.35673828125,1.3599609375,1.35673828125,1.36318359375,1.3728515625,1.37607421875,1.379296875,1.379296875,1.38251953125,1.3921875,1.38896484375,1.39541015625,1.40830078125,1.40830078125,1.41474609375,1.4244140625,1.43408203125,1.44052734375,1.44052734375,1.456640625,1.5017578125
1.327734375,1.35673828125,1.38251953125,1.4115234375,1.430859375,1.49208984375,1.546875,1.54365234375,1.4759765625,1.39541015625,1.327734375,1.2955078125,1.2890625,1.27294921875,1.276171875,1.2890625,1.2697265625,1.1923828125,1.09248046875,1.3986328125,2.3138671875,2.951953125,2.62001953125,1.54365234375,1.1537109375,1.1794921875,1.26328125,1.26650390625,1.250390625,1.276171875,1.26650390625,1.29228515625,1.29228515625,1.30517578125,1.31806640625,1.3212890625,1.33095703125,1.35029296875,1.36318359375,1.3857421875,1.38896484375,1.41474609375,1.42119140625,1.43408203125,1.456640625,1.46953125,1.482421875,1.4953125,1.50498046875,1.52431640625,1.559765625,1.5791015625,1.5791015625,1.61455078125,1.63388671875,1.65,1.66611328125,1.62744140625,1.50498046875,1.4630859375,1.40830078125,1.37607421875,1.327734375,1.2890625,1.29873046875,1.29873046875,1.27939453125,1.276171875,1.29228515625,1.26650390625,1.27939453125,1.29873046875,1.28583984375,1.27939453125,1.2890625,1.30517578125,1.276171875,1.29873046875,1.29873046875,1.26650390625,1.276171875,1.2890625,1.2697265625,1.276171875,1.2826171875,1.2568359375,1.26005859375,1.29873046875,1.28583984375,1.2826171875,1.2826171875,1.29228515625,1.29873046875,1.301953125,1.29228515625,1.3212890625,1.31484375,1.29228515625,1.31162109375,1.3341796875,1.3857421875,1.42763671875,1.44052734375,1.47919921875,1.54365234375,1.52431640625,1.430859375,1.34384765625,1.301953125,1.2826171875,1.250390625,1.25361328125,1.2697265625,1.2439453125,1.2439453125,1.14404296875,1.121484375,1.60810546875,2.71025390625,2.9583984375,2.20107421875,1.3341796875,1.12470703125,1.1859375,1.24716796875,1.27294921875,1.26650390625,1.2568359375,1.2697265625,1.27939453125,1.301953125,1.2955078125,1.3083984375,1.3341796875,1.3470703125,1.3599609375,1.3728515625,1.379296875,1.3986328125,1.42119140625,1.405078125,1.430859375,1.45986328125,1.4759765625,1.50498046875,1.52431640625,1.53720703125,1.53720703125,1.5275390625,1.6048828125,1.60810546875,1.6435546875,1.67255859375,1.65966796875,1.637109375,1.59521484375,1.52109375,1.430859375,1.36318359375,1.3212890625,1.29873046875,1.276171875,1.26328125,1.27939453125,1.2826171875,1.2697265625,1.26328125,1.2826171875,1.27939453125,1.29873046875,1.2697265625,1.27939453125,1.2890625,1.29228515625,1.2890625,1.27939453125,1.2890625,1.29228515625,1.2890625,1.2826171875,1.2826171875,1.29228515625,1.301953125,1.27939453125,1.29228515625,1.2890625,1.27939453125,1.3083984375,1.31806640625,1.31162109375,1.2890625,1.36318359375,1.38896484375,1.38896484375,1.45341796875,1.508203125,1.559765625,1.5017578125,1.39541015625,1.34384765625,1.301953125,1.28583984375,1.2826171875,1.2697265625,1.26328125,1.276171875,1.250390625,1.10537109375,1.2181640625,1.87236328125,2.96162109375,2.9068359375,1.920703125,1.2181640625,1.15048828125,1.26005859375,1.26328125,1.2439453125,1.26328125,1.28583984375,1.2697265625,1.2955078125,1.3212890625,1.33095703125,1.31484375,1.32451171875,1.38251953125,1.36640625,1.35029296875,1.39541015625,1.42119140625,1.430859375,1.43408203125,1.45341796875,1.48564453125,1.4759765625,1.52109375,1.5404296875,1.54365234375,1.559765625,1.58232421875,1.61455078125,1.62744140625,1.637109375,1.662890625,1.65966796875,1.62421875,1.559765625,1.5017578125,1.4115234375,1.33740234375,1.3083984375,1.3083984375,1.3083984375,1.28583984375,1.26650390625,1.276171875,1.27939453125,1.2890625,1.29873046875,1.2955078125,1.28583984375,1.29228515625,1.28583984375,1.29873046875,1.29873046875,1.28583984375,1.2826171875,1.29228515625,1.2890625,1.2890625,1.2890625,1.27939453125,1.27294921875,1.28583984375,1.2890625,1.2955078125,1.31806640625,1.327734375,1.3728515625,1.37607421875,1.36640625,1.44052734375,1.50498046875,1.52109375,1.45986328125,1.3921875,1.31484375,1.27294921875,1.250390625,1.22783203125,1.23427734375,1.2310546875,1.250390625,1.2310546875,1.095703125,1.13115234375,1.7208984375,2.89716796875,2.9390625,2.03671875,1.2826171875,1.10859375,1.1859375,1.2375,1.21494140625,1.23427734375,1.2375,1.250390625,1.25361328125,1.26650390625,1.2826171875,1.2826171875,1.31162109375,1.31484375,1.33095703125,1.3341796875,1.36318359375,1.3728515625,1.3921875,1.405078125,1.430859375,1.45986328125,1.46953125,1.482421875,1.52109375,1.52431640625,1.546875,1.585546875,1.5919921875,1.6048828125,1.65,1.67255859375,1.67255859375,1.62099609375,1.53720703125,1.47275390625,1.38896484375,1.32451171875,1.2826171875,1.2568359375,1.2697265625,1.26328125,1.27939453125,1.27939453125,1.25361328125,1.2697265625,1.276171875,1.26005859375,1.2826171875,1.276171875,1.2697265625,1.2826171875,1.2890625,1.27939453125,1.2826171875,1.28583984375,1.28583984375,1.2826171875,1.2955078125,1.27939453125,1.32451171875,1.37607421875,1.36640625,1.40830078125,1.4888671875,1.52431640625,1.51787109375,1.44375,1.34384765625,1.27939453125,1.25361328125,1.25361328125,1.23427734375,1.23427734375,1.24072265625,1.24072265625,1.1537109375,1.0892578125,1.37607421875,2.29453125,2.96484375,2.55234375,1.52431640625,1.14404296875,1.121484375,1.2310546875,1.2439453125,1.24716796875,1.24716796875,1.25361328125,1.27294921875,1.27939453125,1.27939453125,1.2955078125,1.3212890625,1.34384765625,1.3599609375,1.353515625,1.3728515625,1.3921875,1.40830078125,1.41474609375,1.44375,1.46630859375,1.482421875,1.49208984375,1.52431640625,1.546875,1.5662109375,1.57265625,1.58232421875,1.61455078125,1.64677734375,1.6564453125,1.64677734375,1.61455078125,1.55009765625,1.4888671875,1.4115234375,1.34384765625,1.3083984375,1.29228515625,1.2890625,1.276171875,1.26650390625,1.2826171875,1.2890625,1.2890625,1.276171875,1.2890625,1.301953125,1.3083984375,1.28583984375,1.27939453125,1.2955078125,1.29873046875,1.29228515625,1.29228515625,1.2826171875,1.2826171875,1.2890625,1.31484375,1.340625,1.36318359375,1.36962890625,1.4244140625,1.49208984375,1.53076171875,1.5146484375,1.430859375,1.32451171875,1.26328125,1.24072265625,1.2310546875,1.2310546875,1.2375,1.22783203125,1.22783203125,1.1408203125,1.07314453125,1.4759765625,2.49755859375,2.96162109375,2.42021484375,1.45986328125,1.11826171875,1.12470703125,1.22138671875,1.2310546875,1.2310546875,1.23427734375,1.23427734375,1.24716796875,1.26005859375,1.2826171875,1.27939453125,1.29228515625,1.31806640625,1.33740234375,1.33740234375,1.35673828125,1.3921875,1.3921875,1.40185546875,1.4373046875,1.45341796875,1.4630859375,1.48564453125,1.51142578125,1.54365234375,1.559765625,1.56943359375,1.58876953125,1.60166015625,1.62421875,1.64033203125,1.637109375,1.59521484375,1.533984375,1.456640625,1.3857421875,1.3341796875,1.301953125,1.28583984375,1.276171875,1.27939453125,1.27294921875,1.26005859375,1.2826171875,1.2955078125,1.2955078125,1.29873046875,1.29228515625,1.2955078125,1.2890625,1.27294921875,1.2697265625,1.29228515625,1.30517578125,1.30517578125,1.32451171875,1.3599609375,1.36318359375,1.37607421875,1.45341796875,1.51142578125,1.52431640625,1.48564453125,1.40185546875,1.33740234375,1.26650390625,1.2439453125,1.250390625,1.2310546875,1.224609375,1.23427734375,1.21494140625,1.11181640625,1.0505859375,1.482421875,2.48466796875,2.95517578125,2.31064453125,1.482421875,1.147265625,1.0892578125,1.17626953125,1.224609375,1.22138671875,1.224609375,1.24072265625,1.26005859375,1.26328125,1.2826171875,1.2955078125,1.31806640625,1.33095703125,1.33095703125,1.353515625,1.36962890625,1.40185546875,1.4115234375,1.41474609375,1.43408203125,1.4501953125,1.49208984375,1.508203125,1.5146484375,1.53720703125,1.55654296875,1.57265625,1.58876953125,1.59521484375,1.61455078125,1.611328125,1.59521484375,1.57265625,1.4953125,1.42763671875,1.36318359375,1.3212890625,1.29873046875,1.276171875,1.27294921875,1.26005859375,1.26328125,1.26650390625,1.276171875,1.2955078125,1.29228515625,1.2890625,1.301953125,1.2955078125,1.2955078125,1.31162109375,1.3083984375,1.30517578125,1.29873046875,1.327734375,1.353515625,1.37607421875,1.38896484375,1.44052734375,1.49853515625,1.533984375,1.53076171875,1.4630859375,1.35029296875,1.27939453125,1.2439453125,1.250390625,1.2439453125,1.23427734375,1.2310546875,1.2310546875,1.17626953125,1.05380859375,1.26005859375,1.98837890625,2.9712890625,2.797265625,1.79501953125,1.21494140625,1.069921875,1.173046875,1.2181640625,1.2181640625,1.21494140625,1.23427734375,1.2310546875,1.24716796875,1.27294921875,1.2826171875,1.29873046875,1.31806640625,1.327734375,1.33740234375,1.3470703125,1.3728515625,1.3857421875,1.40185546875,1.4244140625,1.44052734375,1.46630859375,1.48564453125,1.508203125,1.52431640625,1.55654296875,1.56943359375,1.58232421875,1.6048828125,1.611328125,1.62421875,1.6048828125,1.58232421875,1.52431640625,1.4373046875,1.38251953125,1.33740234375,1.29873046875,1.2826171875,1.2890625,1.27939453125,1.28583984375,1.28583984375,1.28583984375,1.2955078125,1.29873046875,1.301953125,1.30517578125,1.3083984375,1.31162109375,1.30517578125,1.31484375,1.31484375,1.31484375,1.3083984375,1.3083984375,1.301953125,1.30517578125,1.30517578125,1.31162109375,1.31484375,1.31806640625,1.3083984375,1.31806640625,1.30517578125,1.31484375,1.3212890625,1.32451171875,1.32451171875,1.327734375,1.327734375,1.3599609375,1.39541015625,1.405078125,1.43408203125,1.4953125,1.533984375,1.5533203125,1.5275390625,1.4373046875,1.3599609375,1.3212890625,1.301953125,1.276171875,1.27939453125,1.2826171875,1.2826171875,1.250390625,1.11181640625,1.16982421875,1.74990234375,2.9390625,2.96484375,2.32998046875,1.3212890625,1.1021484375,1.20849609375,1.25361328125,1.26328125,1.250390625,1.2568359375,1.26650390625,1.276171875,1.29873046875,1.30517578125,1.3083984375,1.32451171875,1.33740234375,1.35673828125,1.36318359375,1.36962890625,1.38896484375,1.40185546875,1.43408203125,1.44697265625,1.47275390625,1.48564453125,1.50498046875,1.53076171875,1.54365234375,1.56943359375,1.5791015625,1.58876953125,1.5984375,1.611328125,1.6435546875,1.62099609375,1.5984375,1.54365234375,1.456640625,1.39541015625,1.35029296875,1.31484375,1.29873046875,1.27939453125,1.276171875,1.27939453125,1.28583984375,1.2955078125,1.2955078125,1.301953125,1.3083984375,1.30517578125,1.3083984375,1.301953125,1.31162109375,1.31484375,1.31162109375,1.31162109375,1.29873046875,1.301953125,1.3083984375,1.29228515625,1.301953125,1.30517578125,1.301953125,1.301953125,1.2890625,1.29873046875,1.301953125,1.2955078125,1.30517578125,1.29873046875,1.30517578125,1.3083984375,1.30517578125,1.3083984375,1.3083984375,1.31162109375,1.31162109375,1.32451171875,1.31806640625,1.31484375,1.31806640625,1.32451171875,1.327734375,1.33095703125,1.327734375,1.3341796875,1.33740234375,1.35029296875,1.3921875,1.42119140625,1.41796875,1.4630859375,1.53076171875,1.57265625,1.53720703125,1.49853515625,1.4115234375,1.35029296875,1.31484375,1.30517578125,1.30517578125,1.2955078125,1.2955078125,1.30517578125,1.21494140625,1.0892578125,1.35029296875,2.23974609375,2.9583984375,2.8939453125,1.83046875,1.1537109375,1.14404296875,1.25361328125,1.2697265625,1.26650390625,1.26650390625,1.26328125,1.2826171875,1.2890625,1.3083984375,1.3083984375,1.327734375,1.35029296875,1.35673828125,1.36640625,1.38251953125,1.3986328125,1.41796875,1.42763671875,1.456640625,1.47275390625,1.482421875,1.5017578125,1.5275390625,1.5533203125,1.56943359375,1.60166015625,1.62099609375,1.63388671875,1.637109375,1.662890625,1.67578125,1.66611328125,1.63388671875,1.58232421875,1.508203125,1.430859375,1.36318359375,1.33095703125,1.301953125,1.2826171875,1.29228515625,1.2955078125,1.29873046875,1.30517578125,1.301953125,1.30517578125,1.30517578125,1.3083984375,1.31484375,1.3212890625,1.32451171875,1.31806640625,1.32451171875,1.3212890625,1.31162109375,1.3083984375,1.301953125,1.2955078125,1.30517578125,1.3083984375,1.29873046875,1.2955078125,1.29873046875,1.3083984375,1.301953125,1.29228515625,1.29873046875,1.29873046875,1.29228515625,1.301953125,1.3083984375,1.301953125,1.30517578125,1.29873046875,1.2955078125,1.30517578125,1.31162109375,1.3083984375,1.3083984375,1.30517578125,1.31806640625,1.3083984375,1.3212890625,1.327734375,1.33095703125,1.32451171875,1.33095703125,1.3341796875,1.32451171875,1.33095703125,1.3599609375,1.3857421875,1.4115234375,1.40830078125,1.44375,1.51142578125,1.559765625,1.56298828125,1.50498046875,1.41796875,1.35673828125,1.31806640625,1.3083984375,1.3083984375,1.2890625,1.2955078125,1.301953125,1.24072265625,1.0828125,1.24072265625,1.98193359375,2.9712890625,2.91328125,1.98837890625,1.29873046875,1.1150390625,1.2052734375,1.250390625,1.26005859375,1.25361328125,1.26328125,1.276171875,1.29228515625,1.30517578125,1.31162109375,1.32451171875,1.340625,1.3599609375,1.353515625,1.379296875,1.38896484375,1.40185546875,1.41474609375,1.43408203125,1.45986328125,1.4630859375,1.4888671875,1.50498046875,1.533984375,1.55009765625,1.585546875,1.6048828125,1.60166015625,1.62099609375,1.65,1.6564453125,1.65,1.6435546875,1.5919921875,1.52109375,1.4501953125,1.37607421875,1.31484375,1.28583984375,1.26328125,1.250390625,1.24072265625,1.24716796875,1.2568359375,1.25361328125,1.26328125,1.2697265625,1.27939453125,1.28583984375,1.29873046875,1.2955078125,1.29873046875,1.301953125,1.29873046875,1.29873046875,1.2955078125,1.29873046875,1.31162109375,1.3083984375,1.30517578125,1.2955078125,1.30517578125,1.301953125,1.29873046875,1.301953125,1.301953125,1.30517578125,1.301953125,1.29873046875,1.31162109375,1.31484375,1.29873046875,1.3083984375,1.3212890625,1.32451171875,1.3341796875,1.33095703125,1.327734375,1.327734375,1.33095703125,1.3599609375,1.3857421875,1.3921875,1.43408203125,1.49853515625,1.55009765625,1.5662109375,1.51142578125,1.41474609375,1.353515625,1.3212890625,1.30517578125,1.2890625,1.29873046875,1.2955078125,1.2890625,1.2439453125,1.08603515625,1.26650390625,1.972265625,2.977734375,2.926171875,1.9916015625,1.29228515625,1.11181640625,1.21171875,1.26650390625,1.26328125,1.26650390625,1.28583984375,1.301953125,1.3083984375,1.31162109375,1.3212890625,1.33095703125,1.353515625,1.3728515625,1.3728515625,1.38896484375,1.3986328125,1.41474609375,1.43408203125,1.44697265625,1.46953125,1.49208984375,1.5146484375,1.533984375,1.546875,1.57265625,1.5919921875,1.6177734375,1.64033203125,1.63388671875,1.65966796875,1.66611328125,1.67255859375,1.65,1.57265625,1.51142578125,1.43408203125,1.36640625,1.31806640625,1.29228515625,1.276171875,1.276171875,1.276171875,1.26650390625,1.26328125,1.27939453125,1.28583984375,1.28583984375,1.2890625,1.301953125,1.2955078125,1.2955078125,1.3083984375,1.30517578125,1.2955078125,1.29873046875,1.2955078125,1.28583984375,1.2955078125,1.3083984375,1.28583984375,1.276171875,1.2890625,1.2955078125,1.2826171875,1.2826171875,1.276171875,1.2890625,1.31162109375,1.31162109375,1.276171875,1.27939453125,1.3083984375,1.33095703125,1.31806640625,1.33095703125,1.32451171875,1.3212890625,1.32451171875,1.31162109375,1.31806640625,1.3212890625,1.31806640625,1.3341796875,1.327734375,1.33095703125,1.31806640625,1.31484375,1.3470703125,1.38896484375,1.40830078125,1.3986328125,1.44375,1.49853515625,1.53720703125,1.5404296875,1.4630859375,1.38251953125,1.32451171875,1.2955078125,1.2955078125,1.2826171875,1.27294921875,1.27294921875,1.27939453125,1.1794921875,1.08603515625,1.4244140625,2.40087890625,2.95517578125,2.874609375,1.70478515625,1.0763671875,1.15048828125,1.250390625,1.24716796875,1.24716796875,1.2439453125,1.25361328125,1.26005859375,1.2826171875,1.29873046875,1.29873046875,1.31162109375,1.3212890625,1.327734375,1.3470703125,1.36962890625,1.3857421875,1.39541015625,1.405078125,1.42763671875,1.456640625,1.48564453125,1.4953125,1.508203125,1.5404296875,1.5662109375,1.5791015625,1.6048828125,1.6306640625,1.64033203125,1.6564453125,1.66611328125,1.6693359375,1.64677734375,1.5984375,1.52431640625,1.43408203125,1.3599609375,1.31806640625,1.2890625,1.26650390625,1.2568359375,1.2697265625,1.27939453125,1.27939453125,1.27939453125,1.29228515625,1.301953125,1.3083984375,1.31806640625,1.30517578125,1.32451171875,1.3341796875,1.327734375,1.31806640625,1.33095703125,1.3341796875,1.3341796875,1.3341796875,1.3212890625,1.3341796875,1.33095703125,1.33095703125,1.327734375,1.3470703125,1.3470703125,1.3470703125,1.3599609375,1.35029296875,1.35029296875,1.3599609375,1.3728515625,1.3728515625,1.37607421875,1.38896484375,1.379296875,1.38896484375,1.39541015625,1.40185546875,1.41474609375,1.40830078125,1.41474609375,1.41474609375,1.430859375,1.4373046875,1.4501953125,1.44052734375,1.45986328125,1.46953125,1.46630859375,1.4759765625,1.508203125
2.29775390625,1.2568359375,1.0828125,1.24072265625,1.27294921875,1.250390625,1.25361328125,1.25361328125,1.26328125,1.27939453125,1.29228515625,1.29873046875,1.3083984375,1.3341796875,1.3470703125,1.353515625,1.36962890625,1.3986328125,1.3986328125,1.41474609375,1.4373046875,1.456640625,1.4759765625,1.4953125,1.50498046875,1.52109375,1.546875,1.56298828125,1.585546875,1.5984375,1.6048828125,1.62421875,1.63388671875,1.6306640625,1.60810546875,1.533984375,1.47275390625,1.42763671875,1.35673828125,1.31484375,1.29873046875,1.301953125,1.2890625,1.2955078125,1.31484375,1.31806640625,1.31162109375,1.31484375,1.32451171875,1.33095703125,1.32451171875,1.327734375,1.31484375,1.31806640625,1.32451171875,1.3341796875,1.3341796875,1.31162109375,1.31806640625,1.31484375,1.30517578125,1.31484375,1.3083984375,1.31484375,1.31484375,1.31484375,1.31806640625,1.31806640625,1.30517578125,1.31162109375,1.3212890625,1.3212890625,1.32451171875,1.327734375,1.327734375,1.379296875,1.405078125,1.4115234375,1.45341796875,1.5017578125,1.54365234375,1.54365234375,1.4888671875,1.3986328125,1.3341796875,1.30517578125,1.2890625,1.2890625,1.28583984375,1.276171875,1.276171875,1.20205078125,1.07314453125,1.327734375,2.204296875,2.97451171875,2.8939453125,1.79501953125,1.1408203125,1.13759765625,1.24716796875,1.250390625,1.2439453125,1.24716796875,1.24716796875,1.26328125,1.2826171875,1.2955078125,1.29873046875,1.31162109375,1.3212890625,1.3341796875,1.35029296875,1.3728515625,1.379296875,1.39541015625,1.4115234375,1.430859375,1.43408203125,1.456640625,1.49208984375,1.51142578125,1.5275390625,1.53076171875,1.5533203125,1.57265625,1.585546875,1.58876953125,1.611328125,1.62099609375,1.61455078125,1.58876953125,1.53076171875,1.4759765625,1.39541015625,1.33740234375,1.31484375,1.2890625,1.2826171875,1.276171875,1.28583984375,1.29228515625,1.2890625,1.28583984375,1.29228515625,1.301953125,1.30517578125,1.2890625,1.29228515625,1.301953125,1.301953125,1.30517578125,1.30517578125,1.29873046875,1.301953125,1.2955078125,1.2955078125,1.301953125,1.28583984375,1.29873046875,1.29873046875,1.2890625,1.29873046875,1.30517578125,1.30517578125,1.30517578125,1.29873046875,1.3083984375,1.3212890625,1.3212890625,1.30517578125,1.31484375,1.31806640625,1.35029296875,1.379296875,1.38251953125,1.40830078125,1.482421875,1.5404296875,1.55654296875,1.51787109375,1.41474609375,1.34384765625,1.3083984375,1.2955078125,1.28583984375,1.2826171875,1.2826171875,1.2826171875,1.2181640625,1.08603515625,1.29228515625,2.05927734375,2.96162109375,2.81982421875,1.8626953125,1.29873046875,1.09248046875,1.1859375,1.2375,1.25361328125,1.25361328125,1.27294921875,1.2826171875,1.2826171875,1.2955078125,1.3083984375,1.31806640625,1.3341796875,1.3470703125,1.36318359375,1.3728515625,1.38896484375,1.39541015625,1.405078125,1.41796875,1.43408203125,1.4501953125,1.47919921875,1.48564453125,1.5146484375,1.53720703125,1.53720703125,1.5533203125,1.57265625,1.57587890625,1.59521484375,1.60166015625,1.60166015625,1.59521484375,1.5404296875,1.46953125,1.4115234375,1.35673828125,1.3212890625,1.301953125,1.2826171875,1.27939453125,1.2826171875,1.2826171875,1.2826171875,1.2826171875,1.29873046875,1.2955078125,1.301953125,1.29873046875,1.30517578125,1.3083984375,1.3083984375,1.2955078125,1.2955078125,1.29873046875,1.30517578125,1.301953125,1.29228515625,1.30517578125,1.30517578125,1.30517578125,1.31162109375,1.29873046875,1.301953125,1.301953125,1.31162109375,1.31162109375,1.3083984375,1.31484375,1.31484375,1.31806640625,1.3341796875,1.379296875,1.38251953125,1.405078125,1.46953125,1.508203125,1.53720703125,1.5404296875,1.482421875,1.38251953125,1.31806640625,1.301953125,1.27939453125,1.27939453125,1.26005859375,1.26328125,1.25361328125,1.134375,1.069921875,1.51142578125,2.5845703125,2.96484375,2.72314453125,1.54365234375,1.069921875,1.147265625,1.2375,1.2375,1.23427734375,1.24716796875,1.24716796875,1.276171875,1.276171875,1.2890625,1.29873046875,1.31484375,1.31806640625,1.353515625,1.353515625,1.35673828125,1.3921875,1.405078125,1.405078125,1.44697265625,1.4630859375,1.4759765625,1.482421875,1.50498046875,1.54365234375,1.546875,1.559765625,1.58232421875,1.60166015625,1.60810546875,1.62099609375,1.62421875,1.611328125,1.5791015625,1.52431640625,1.456640625,1.39541015625,1.34384765625,1.31162109375,1.29873046875,1.27939453125,1.27294921875,1.26650390625,1.2890625,1.301953125,1.30517578125,1.29873046875,1.3212890625,1.3212890625,1.31806640625,1.31162109375,1.3212890625,1.31484375,1.30517578125,1.31162109375,1.3083984375,1.31162109375,1.3083984375,1.30517578125,1.3083984375,1.3083984375,1.3083984375,1.31162109375,1.3083984375,1.30517578125,1.301953125,1.30517578125,1.31806640625,1.301953125,1.31484375,1.31806640625,1.31484375,1.31806640625,1.31484375,1.31484375,1.31484375,1.327734375,1.37607421875,1.4115234375,1.40830078125,1.45986328125,1.51787109375,1.559765625,1.55009765625,1.47919921875,1.3921875,1.33740234375,1.2955078125,1.28583984375,1.27939453125,1.27939453125,1.28583984375,1.27939453125,1.15693359375,1.095703125,1.533984375,2.6232421875,2.97451171875,2.6619140625,1.5017578125,1.095703125,1.1794921875,1.2310546875,1.26005859375,1.27294921875,1.26005859375,1.2568359375,1.2568359375,1.27939453125,1.2890625,1.29873046875,1.31162109375,1.327734375,1.33740234375,1.33740234375,1.36640625,1.3921875,1.39541015625,1.4115234375,1.42119140625,1.43408203125,1.4630859375,1.47919921875,1.49853515625,1.51787109375,1.54365234375,1.5662109375,1.5662109375,1.585546875,1.6048828125,1.611328125,1.62744140625,1.6177734375,1.58876953125,1.5404296875,1.45986328125,1.3986328125,1.3470703125,1.301953125,1.28583984375,1.27939453125,1.26328125,1.26005859375,1.27939453125,1.27939453125,1.27294921875,1.29873046875,1.30517578125,1.29228515625,1.301953125,1.301953125,1.3083984375,1.29228515625,1.2890625,1.301953125,1.3083984375,1.29228515625,1.29873046875,1.29228515625,1.2890625,1.2890625,1.29873046875,1.29228515625,1.2890625,1.29228515625,1.29873046875,1.29873046875,1.2955078125,1.30517578125,1.3083984375,1.3083984375,1.32451171875,1.31806640625,1.3212890625,1.31484375,1.31806640625,1.32451171875,1.3212890625,1.327734375,1.3212890625,1.327734375,1.353515625,1.39541015625,1.41474609375,1.4244140625,1.48564453125,1.53720703125,1.5662109375,1.55009765625,1.48564453125,1.38896484375,1.3341796875,1.3083984375,1.29873046875,1.2890625,1.2890625,1.29228515625,1.26005859375,1.11826171875,1.16015625,1.7724609375,2.951953125,2.96162109375,2.3525390625,1.36962890625,1.10537109375,1.20205078125,1.26005859375,1.2568359375,1.25361328125,1.2568359375,1.26005859375,1.28583984375,1.2826171875,1.29873046875,1.31484375,1.33095703125,1.340625,1.34384765625,1.3599609375,1.37607421875,1.3986328125,1.405078125,1.40830078125,1.4244140625,1.4501953125,1.47919921875,1.49208984375,1.5017578125,1.533984375,1.54365234375,1.5662109375,1.585546875,1.59521484375,1.60166015625,1.60810546875,1.6435546875,1.64033203125,1.5919921875,1.546875,1.46953125,1.4115234375,1.35029296875,1.3083984375,1.28583984375,1.27294921875,1.29873046875,1.28583984375,1.2890625,1.29873046875,1.29228515625,1.2890625,1.301953125,1.29228515625,1.2890625,1.2890625,1.29873046875,1.301953125,1.29228515625,1.3083984375,1.3083984375,1.3083984375,1.2890625,1.2955078125,1.301953125,1.29873046875,1.2955078125,1.2955078125,1.30517578125,1.301953125,1.2955078125,1.301953125,1.29873046875,1.30517578125,1.32451171875,1.31484375,1.31162109375,1.31484375,1.35673828125,1.3728515625,1.379296875,1.41796875,1.49853515625,1.53720703125,1.53720703125,1.50498046875,1.405078125,1.3341796875,1.301953125,1.2890625,1.2826171875,1.26650390625,1.27939453125,1.2826171875,1.20205078125,1.08603515625,1.379296875,2.22685546875,2.9583984375,2.65224609375,1.714453125,1.24716796875,1.095703125,1.18916015625,1.250390625,1.25361328125,1.23427734375,1.250390625,1.27939453125,1.2890625,1.2890625,1.3083984375,1.327734375,1.327734375,1.3341796875,1.353515625,1.37607421875,1.3857421875,1.38896484375,1.4115234375,1.430859375,1.44697265625,1.46953125,1.47919921875,1.4888671875,1.51142578125,1.5275390625,1.55009765625,1.55654296875,1.585546875,1.6048828125,1.60166015625,1.64033203125,1.63388671875,1.60810546875,1.5533203125,1.49208984375,1.41474609375,1.353515625,1.31162109375,1.29228515625,1.2955078125,1.28583984375,1.26005859375,1.26328125,1.28583984375,1.2890625,1.28583984375,1.2955078125,1.29873046875,1.2955078125,1.301953125,1.29228515625,1.28583984375,1.29228515625,1.301953125,1.301953125,1.2955078125,1.28583984375,1.2955078125,1.29228515625,1.29873046875,1.2955078125,1.301953125,1.2890625,1.301953125,1.29873046875,1.29873046875,1.301953125,1.29873046875,1.3083984375,1.30517578125,1.29873046875,1.301953125,1.31162109375,1.3470703125,1.3857421875,1.3921875,1.41796875,1.47919921875,1.51787109375,1.54365234375,1.5017578125,1.4244140625,1.353515625,1.31162109375,1.2955078125,1.2826171875,1.2697265625,1.27939453125,1.2826171875,1.20849609375,1.0763671875,1.250390625,1.99482421875,2.96806640625,2.951953125,2.0431640625,1.2181640625,1.08603515625,1.21171875,1.24072265625,1.250390625,1.25361328125,1.25361328125,1.26328125,1.276171875,1.28583984375,1.3083984375,1.30517578125,1.31806640625,1.34384765625,1.3470703125,1.36640625,1.379296875,1.3986328125,1.405078125,1.42119140625,1.4373046875,1.44052734375,1.4630859375,1.49208984375,1.51142578125,1.53720703125,1.55654296875,1.56298828125,1.57265625,1.5791015625,1.60166015625,1.6306640625,1.6306640625,1.61455078125,1.57265625,1.51787109375,1.44052734375,1.36962890625,1.33095703125,1.3083984375,1.28583984375,1.2826171875,1.27939453125,1.27939453125,1.2697265625,1.2890625,1.29873046875,1.28583984375,1.31806640625,1.3083984375,1.3212890625,1.31484375,1.301953125,1.31484375,1.29873046875,1.301953125,1.29873046875,1.29873046875,1.3083984375,1.31162109375,1.3083984375,1.30517578125,1.301953125,1.29873046875,1.29873046875,1.30517578125,1.29873046875,1.29873046875,1.31162109375,1.30517578125,1.30517578125,1.3212890625,1.31806640625,1.3212890625,1.32451171875,1.33740234375,1.3921875,1.405078125,1.40185546875,1.47275390625,1.52431640625,1.559765625,1.533984375,1.44375,1.36962890625,1.32451171875,1.301953125,1.2955078125,1.27294921875,1.27294921875,1.26328125,1.26005859375,1.11826171875,1.13759765625,1.7080078125,2.91005859375,2.96806640625,2.436328125,1.3599609375,1.0892578125,1.20849609375,1.2568359375,1.2439453125,1.2568359375,1.26005859375,1.26328125,1.27294921875,1.27939453125,1.29873046875,1.31162109375,1.327734375,1.3470703125,1.33740234375,1.3470703125,1.36962890625,1.37607421875,1.3986328125,1.4244140625,1.43408203125,1.44375,1.47275390625,1.482421875,1.50498046875,1.533984375,1.546875,1.55654296875,1.56943359375,1.5791015625,1.5984375,1.611328125,1.62421875,1.62744140625,1.58876953125,1.51787109375,1.456640625,1.39541015625,1.3341796875,1.29228515625,1.27939453125,1.26650390625,1.2697265625,1.28583984375,1.27294921875,1.27939453125,1.29873046875,1.2890625,1.29228515625,1.2890625,1.2955078125,1.301953125,1.3083984375,1.3083984375,1.29228515625,1.2890625,1.301953125,1.29228515625,1.29228515625,1.29873046875,1.29228515625,1.301953125,1.301953125,1.301953125,1.30517578125,1.29873046875,1.29873046875,1.31162109375,1.301953125,1.30517578125,1.3083984375,1.3212890625,1.31484375,1.31806640625,1.31484375,1.33095703125,1.3728515625,1.405078125,1.39541015625,1.45341796875,1.50498046875,1.55654296875,1.54365234375,1.4759765625,1.38251953125,1.31806640625,1.29228515625,1.2826171875,1.27939453125,1.26650390625,1.27294921875,1.26005859375,1.147265625,1.0892578125,1.51787109375,2.58134765625,2.96484375,2.6232421875,1.50498046875,1.09248046875,1.173046875,1.25361328125,1.2568359375,1.250390625,1.24716796875,1.2568359375,1.27294921875,1.27939453125,1.2890625,1.30517578125,1.31806640625,1.327734375,1.33740234375,1.36640625,1.37607421875,1.3857421875,1.3986328125,1.40830078125,1.42763671875,1.44375,1.4501953125,1.482421875,1.49853515625,1.5275390625,1.5404296875,1.5533203125,1.58232421875,1.5919921875,1.60166015625,1.62421875,1.63388671875,1.62099609375,1.60166015625,1.5404296875,1.456640625,1.3986328125,1.35673828125,1.2955078125,1.27939453125,1.2697265625,1.2697265625,1.26328125,1.276171875,1.27939453125,1.28583984375,1.29873046875,1.29228515625,1.2826171875,1.2955078125,1.301953125,1.29228515625,1.28583984375,1.2826171875,1.27939453125,1.29873046875,1.29228515625,1.28583984375,1.29873046875,1.301953125,1.2955078125,1.30517578125,1.2955078125,1.29228515625,1.28583984375,1.2890625,1.29228515625,1.301953125,1.30517578125,1.31162109375,1.31162109375,1.340625,1.37607421875,1.37607421875,1.405078125,1.4759765625,1.53720703125,1.53076171875,1.48564453125,1.3986328125,1.33740234375,1.29873046875,1.276171875,1.2826171875,1.27939453125,1.26650390625,1.26650390625,1.21171875,1.0763671875,1.31162109375,2.08828125,2.9583984375,2.74248046875,1.78212890625,1.29873046875,1.1021484375,1.1859375,1.2439453125,1.24716796875,1.250390625,1.26328125,1.26650390625,1.276171875,1.31162109375,1.31162109375,1.31484375,1.33095703125,1.34384765625,1.36318359375,1.379296875,1.38896484375,1.41474609375,1.43408203125,1.4244140625,1.43408203125,1.47275390625,1.4888671875,1.508203125,1.53076171875,1.53076171875,1.54365234375,1.56298828125,1.58876953125,1.5984375,1.62099609375,1.637109375,1.6435546875,1.60810546875,1.546875,1.49208984375,1.42119140625,1.3599609375,1.32451171875,1.301953125,1.276171875,1.27294921875,1.2890625,1.28583984375,1.2890625,1.28583984375,1.2890625,1.30517578125,1.30517578125,1.2955078125,1.29228515625,1.2955078125,1.31162109375,1.31806640625,1.3083984375,1.31162109375,1.301953125,1.30517578125,1.3083984375,1.31484375,1.30517578125,1.29873046875,1.31162109375,1.29873046875,1.30517578125,1.31484375,1.31162109375,1.3083984375,1.31806640625,1.31484375,1.32451171875,1.34384765625,1.3921875,1.3986328125,1.42119140625,1.48564453125,1.5275390625,1.546875,1.50498046875,1.41796875,1.3470703125,1.2955078125,1.2826171875,1.276171875,1.2568359375,1.2697265625,1.276171875,1.23427734375,1.069921875,1.1794921875,1.8240234375,2.9712890625,2.9712890625,2.16884765625,1.276171875,1.0763671875,1.1923828125,1.25361328125,1.2439453125,1.24072265625,1.24716796875,1.2568359375,1.27939453125,1.28583984375,1.29228515625,1.31162109375,1.3212890625,1.340625,1.3470703125,1.3728515625,1.3921875,1.3986328125,1.41474609375,1.42763671875,1.44052734375,1.4759765625,1.47919921875,1.49853515625,1.508203125,1.533984375,1.56943359375,1.5662109375,1.5919921875,1.60810546875,1.60166015625,1.6177734375,1.63388671875,1.61455078125,1.56298828125,1.49853515625,1.44375,1.36318359375,1.32451171875,1.301953125,1.27939453125,1.28583984375,1.2826171875,1.27939453125,1.29228515625,1.2955078125,1.29873046875,1.29873046875,1.29228515625,1.2955078125,1.29873046875,1.31162109375,1.30517578125,1.31162109375,1.3083984375,1.3083984375,1.301953125,1.2955078125,1.2955078125,1.2890625,1.301953125,1.2955078125,1.2955078125,1.30517578125,1.301953125,1.2955078125,1.29873046875,1.29228515625,1.2955078125,1.3083984375,1.301953125,1.30517578125,1.301953125,1.31484375,1.30517578125,1.29873046875,1.327734375,1.33095703125,1.36640625,1.3921875,1.3986328125,1.456640625,1.51142578125,1.53720703125,1.52109375,1.4759765625,1.3986328125,1.31484375,1.276171875,1.2697265625,1.2568359375,1.23427734375,1.25361328125,1.2697265625,1.1537109375,1.07314453125,1.4759765625,2.513671875,2.9326171875,2.76181640625,1.5919921875,1.0763671875,1.15693359375,1.24716796875,1.23427734375,1.22138671875,1.26005859375,1.25361328125,1.26005859375,1.25361328125,1.26328125,1.26328125,1.29228515625,1.35673828125,1.35029296875,1.34384765625,1.353515625,1.37607421875,1.3857421875,1.3986328125,1.4115234375,1.4244140625,1.4373046875,1.47919921875,1.48564453125,1.49853515625,1.52431640625,1.56298828125,1.57587890625,1.56298828125,1.60166015625,1.6306640625,1.62099609375,1.62744140625,1.58876953125,1.5404296875,1.4759765625,1.405078125,1.35029296875,1.29873046875,1.26650390625,1.26005859375,1.2568359375,1.276171875,1.27294921875,1.29873046875,1.301953125,1.31162109375,1.301953125,1.31484375,1.31806640625,1.32451171875,1.32451171875,1.33740234375,1.3341796875,1.3470703125,1.3470703125,1.36318359375,1.35673828125,1.3599609375,1.35673828125,1.36318359375,1.37607421875,1.37607421875,1.3921875,1.4115234375,1.405078125,1.4115234375,1.4244140625,1.430859375,1.4373046875,1.4501953125,1.456640625,1.47919921875,1.4953125
