1.22903225806452,1.2741935483871,1.28064516129032,1.23870967741935,1.31612903225806,1.28064516129032,1.3,1.29032258064516,1.23870967741935,1.31290322580645,1.28709677419355,1.33225806451613,1.38064516129032,1.38387096774194,1.45161290322581,1.37741935483871,1.41290322580645,1.44516129032258,1.39032258064516,1.43225806451613,1.37741935483871,1.40645161290323,1.40645161290323,1.35483870967742,1.43870967741935,1.39677419354839,1.41612903225806,1.4258064516129,1.3741935483871,1.42903225806452,1.37096774193548,1.40645161290323,1.43225806451613,1.3741935483871,1.44193548387097,1.43548387096774,1.50645161290323,1.53225806451613,1.45806451612903,1.48064516129032,1.41290322580645,1.42258064516129,1.39677419354839,1.3258064516129,1.38709677419355,1.30645161290323,1.29677419354839,1.34516129032258,1.34838709677419,1.34838709677419,1.11612903225806,1.13225806451613,1.65483870967742,2.50322580645161,3.13548387096774,2.75483870967742,1.88064516129032,1.26451612903226,1.08064516129032,1.16129032258065,1.09354838709677,1.1,1.11935483870968,1.08387096774194,1.14838709677419,1.1,1.13870967741935,1.1741935483871,1.14193548387097,1.2258064516129,1.18709677419355,1.2,1.2258064516129,1.20322580645161,1.26774193548387,1.21612903225806,1.23548387096774,1.24193548387097,1.21935483870968,1.32903225806452,1.31935483870968,1.38387096774194,1.4258064516129,1.36774193548387,1.40967741935484,1.38387096774194,1.4258064516129,1.41935483870968,1.35483870967742,1.41612903225806,1.3741935483871,1.41290322580645,1.44838709677419,1.4,1.44838709677419,1.40322580645161,1.41935483870968,1.41612903225806,1.37096774193548,1.46451612903226,1.45483870967742,1.47096774193548,1.47741935483871,1.43225806451613,1.49677419354839,1.46451612903226,1.50967741935484,1.50967741935484,1.41290322580645,1.46129032258065,1.43225806451613,1.43870967741935,1.39354838709677,1.30645161290323,1.36774193548387,1.34838709677419,1.39677419354839,1.40645161290323,1.23870967741935,1.13548387096774,1.27741935483871,2.07096774193548,2.99032258064516,3.14193548387097,2.49677419354839,1.56774193548387,1.2,1.18387096774194,1.11612903225806,1.12903225806452,1.07096774193548,1.09677419354839,1.10967741935484,1.11290322580645,1.21935483870968,1.13870967741935,1.13548387096774,1.19354838709677,1.17741935483871,1.22258064516129,1.1741935483871,1.22903225806452,1.26451612903226,1.21612903225806,1.28064516129032,1.24516129032258,1.28709677419355,1.32258064516129,1.29354838709677,1.38387096774194,1.37741935483871,1.42258064516129,1.43225806451613,1.38709677419355,1.44838709677419,1.38709677419355,1.39032258064516,1.39677419354839,1.36451612903226,1.44516129032258,1.39354838709677,1.40645161290323,1.42903225806452,1.39677419354839,1.45161290322581,1.38709677419355,1.41612903225806,1.43548387096774,1.39032258064516,1.46129032258065,1.40322580645161,1.42258064516129,1.46129032258065,1.43548387096774,1.49677419354839,1.44516129032258,1.48387096774194,1.50967741935484,1.43548387096774,1.43548387096774,1.34516129032258,1.36129032258065,1.37741935483871,1.30967741935484,1.35806451612903,1.32903225806452,1.39032258064516,1.4,1.2258064516129,1.16451612903226,1.37096774193548,2.21935483870968,3.10645161290323,3.0741935483871,2.26451612903226,1.40645161290323,1.17096774193548,1.17096774193548,1.08709677419355,1.11935483870968,1.08709677419355,1.16774193548387,1.21290322580645,1.12903225806452,1.18064516129032,1.17096774193548,1.21290322580645,1.21935483870968,1.1741935483871,1.26451612903226,1.23548387096774,1.24193548387097,1.24193548387097,1.19032258064516,1.26451612903226,1.21935483870968,1.23225806451613,1.27096774193548,1.29354838709677,1.4258064516129,1.4,1.4,1.37741935483871,1.30645161290323,1.37741935483871,1.34838709677419,1.36451612903226,1.39032258064516,1.3741935483871,1.44516129032258,1.3741935483871,1.38387096774194,1.40967741935484,1.35161290322581,1.38709677419355,1.33870967741935,1.39032258064516,1.43548387096774,1.39032258064516,1.43548387096774,1.37096774193548,1.39677419354839,1.43548387096774,1.39354838709677,1.45806451612903,1.42903225806452,1.48064516129032,1.51612903225806,1.43548387096774,1.45161290322581,1.36451612903226,1.36774193548387,1.38387096774194,1.31612903225806,1.34193548387097,1.28709677419355,1.33870967741935,1.38387096774194,1.26451612903226,1.18064516129032,1.2258064516129,1.90967741935484,2.84193548387097,3.09032258064516,2.5,1.55806451612903,1.16451612903226,1.14516129032258,1.1,1.15483870967742,1.11290322580645,1.14516129032258,1.17741935483871,1.14193548387097,1.21935483870968,1.17096774193548,1.2,1.24516129032258,1.20967741935484,1.25806451612903,1.2,1.24516129032258,1.28064516129032,1.22903225806452,1.29354838709677,1.24516129032258,1.27096774193548,1.3,1.25161290322581,1.34516129032258,1.35483870967742,1.40645161290323,1.41935483870968,1.36129032258065,1.42903225806452,1.36774193548387,1.39354838709677,1.41935483870968,1.36129032258065,1.43548387096774,1.38064516129032,1.39354838709677,1.44193548387097,1.4258064516129,1.4741935483871,1.36451612903226,1.37741935483871,1.43870967741935,1.39677419354839,1.42258064516129,1.35483870967742,1.41290322580645,1.4741935483871,1.41935483870968,1.45161290322581,1.38064516129032,1.43225806451613,1.49677419354839,1.45483870967742,1.49032258064516,1.39032258064516,1.38709677419355,1.40645161290323,1.35483870967742,1.42258064516129,1.33548387096774,1.31290322580645,1.35483870967742,1.35161290322581,1.40645161290323,1.21935483870968,1.15483870967742,1.49032258064516,2.21612903225806,3.02903225806452,2.95483870967742,2.18709677419355,1.47096774193548,1.17741935483871,1.23225806451613,1.13870967741935,1.12258064516129,1.15483870967742,1.12903225806452,1.20645161290323,1.15483870967742,1.17741935483871,1.2,1.15483870967742,1.23870967741935,1.19354838709677,1.21935483870968,1.25483870967742,1.21612903225806,1.29677419354839,1.22903225806452,1.2258064516129,1.27741935483871,1.28387096774194,1.35806451612903,1.29032258064516,1.34193548387097,1.43225806451613,1.39677419354839,1.43870967741935,1.38709677419355,1.42258064516129,1.43225806451613,1.35161290322581,1.40967741935484,1.38387096774194,1.41290322580645,1.41612903225806,1.35161290322581,1.43870967741935,1.40967741935484,1.41935483870968,1.44838709677419,1.40967741935484,1.45806451612903,1.39677419354839,1.41935483870968,1.44193548387097,1.39032258064516,1.44838709677419,1.39677419354839,1.44516129032258,1.50645161290323,1.4741935483871,1.52258064516129,1.45161290322581,1.46129032258065,1.47096774193548,1.38064516129032,1.38709677419355,1.3258064516129,1.36774193548387,1.39032258064516,1.31612903225806,1.38709677419355,1.35161290322581,1.26774193548387,1.15806451612903,1.39677419354839,2.32903225806452,3.07096774193548,2.99354838709677,2.1741935483871,1.4,1.21612903225806,1.13548387096774,1.13548387096774,1.14193548387097,1.09032258064516,1.15483870967742,1.11290322580645,1.13870967741935,1.1741935483871,1.14838709677419,1.22258064516129,1.16774193548387,1.18709677419355,1.23225806451613,1.20645161290323,1.26774193548387,1.22258064516129,1.25161290322581,1.26774193548387,1.20967741935484,1.27741935483871,1.24838709677419,1.29032258064516,1.36129032258065,1.34838709677419,1.40967741935484,1.36129032258065,1.38709677419355,1.39354838709677,1.31290322580645,1.38709677419355,1.35806451612903,1.36774193548387,1.38387096774194,1.33548387096774,1.39677419354839,1.32903225806452,1.35161290322581,1.41290322580645,1.37741935483871,1.44193548387097,1.38064516129032,1.3741935483871,1.39032258064516,1.34838709677419,1.42258064516129,1.38387096774194,1.40967741935484,1.43870967741935,1.40645161290323,1.5,1.46451612903226,1.47096774193548,1.48709677419355,1.43225806451613,1.4741935483871,1.36129032258065,1.34516129032258,1.38709677419355,1.31935483870968,1.35483870967742,1.3,1.32903225806452,1.34516129032258,1.27096774193548,1.25161290322581,1.12258064516129,1.48387096774194,2.39032258064516,3.0741935483871,2.94193548387097,1.95483870967742,1.24838709677419,1.13225806451613,1.13548387096774,1.18709677419355,1.08387096774194,1.08387096774194,1.14193548387097,1.12903225806452,1.20967741935484,1.13548387096774,1.14838709677419,1.20645161290323,1.17096774193548,1.23870967741935,1.18709677419355,1.21612903225806,1.26129032258065,1.2258064516129,1.30322580645161,1.25806451612903,1.27741935483871,1.29354838709677,1.24516129032258,1.36129032258065,1.35806451612903,1.41290322580645,1.43870967741935,1.36129032258065,1.41935483870968,1.37741935483871,1.41935483870968,1.44838709677419,1.37741935483871,1.43870967741935,1.38064516129032,1.40645161290323,1.42258064516129,1.34516129032258,1.45161290322581,1.44838709677419,1.45483870967742,1.43548387096774,1.3741935483871,1.46774193548387,1.40645161290323,1.40645161290323,1.44193548387097,1.40645161290323,1.49354838709677,1.43870967741935,1.48387096774194,1.54193548387097,1.45161290322581,1.48709677419355,1.44193548387097,1.4741935483871,1.4741935483871,1.36774193548387,1.40967741935484,1.36774193548387,1.40967741935484,1.45806451612903,1.41935483870968,1.50322580645161,1.39677419354839,1.26774193548387,1.31290322580645,1.78709677419355,2.73225806451613,3.12903225806452,2.67741935483871,1.80645161290323,1.2258064516129,1.22903225806452,1.19354838709677,1.18709677419355,1.19032258064516,1.13548387096774,1.22903225806452,1.18387096774194,1.19354838709677,1.21290322580645,1.17741935483871,1.26774193548387,1.20322580645161,1.21612903225806,1.27096774193548,1.23225806451613,1.29677419354839,1.23225806451613,1.26129032258065,1.3,1.23870967741935,1.31290322580645,1.27096774193548,1.32903225806452,1.40967741935484,1.3741935483871,1.44838709677419,1.37741935483871,1.3741935483871,1.4,1.33870967741935,1.41935483870968,1.38387096774194,1.38709677419355,1.39032258064516,1.33548387096774,1.42258064516129,1.37096774193548,1.39032258064516,1.40645161290323,1.33548387096774,1.41290322580645,1.35483870967742,1.36774193548387,1.38387096774194,1.28387096774194,1.33225806451613,1.28709677419355,1.30645161290323,1.35806451612903,1.32903225806452,1.41612903225806,1.37741935483871,1.39032258064516,1.39677419354839,1.31935483870968,1.39677419354839,1.35806451612903,1.34193548387097,1.33870967741935,1.3,1.3741935483871,1.31290322580645,1.29677419354839,1.22258064516129,1.07096774193548,1.35483870967742,2.03548387096774,2.89032258064516,3.06451612903226,2.28709677419355,1.51612903225806,1.12903225806452,1.13548387096774,1.14516129032258,1.04516129032258,1.10967741935484,1.08709677419355,1.11290322580645,1.14838709677419,1.09677419354839,1.18387096774194,1.1741935483871,1.20967741935484,1.22903225806452,1.14838709677419,1.23225806451613,1.2258064516129,1.27096774193548,1.3,1.22903225806452,1.29354838709677,1.26774193548387,1.3,1.36451612903226,1.35483870967742,1.44516129032258,1.41935483870968,1.44516129032258,1.46129032258065,1.38709677419355,1.44516129032258,1.39032258064516,1.39677419354839,1.4258064516129,1.38064516129032,1.43870967741935,1.38064516129032,1.39677419354839,1.43548387096774,1.38709677419355,1.44193548387097,1.38064516129032,1.41290322580645,1.45806451612903,1.38064516129032,1.42903225806452,1.39354838709677,1.40967741935484,1.46451612903226,1.42258064516129,1.4741935483871,1.46451612903226,1.53225806451613,1.54838709677419,1.44838709677419,1.49354838709677,1.4258064516129,1.38709677419355,1.37096774193548,1.3258064516129,1.40967741935484,1.35483870967742,1.35483870967742,1.39677419354839,1.31935483870968,1.26129032258065,1.11290322580645,1.40645161290323,2.28387096774194,3.06774193548387,3.09032258064516,2.1741935483871,1.39354838709677,1.18387096774194,1.14838709677419,1.18709677419355,1.08387096774194,1.07741935483871,1.14516129032258,1.13548387096774,1.20645161290323,1.15483870967742,1.18709677419355,1.24193548387097,1.1741935483871,1.21935483870968,1.20322580645161,1.26451612903226,1.30645161290323,1.2258064516129,1.27741935483871,1.25483870967742,1.28709677419355,1.30967741935484,1.24193548387097,1.32903225806452,1.33870967741935,1.41290322580645,1.45806451612903,1.37741935483871,1.41612903225806,1.36129032258065,1.37096774193548,1.36774193548387,1.30645161290323,1.43870967741935,1.43870967741935,1.41612903225806,1.40645161290323,1.34838709677419,1.42903225806452,1.39677419354839,1.40645161290323,1.44193548387097,1.38709677419355,1.45161290322581,1.40645161290323,1.44193548387097,1.48064516129032,1.40967741935484,1.4741935483871,1.44193548387097,1.44838709677419,1.48387096774194,1.49354838709677,1.60967741935484,1.51612903225806,1.47096774193548,1.5,1.44838709677419,1.5,1.43225806451613,1.42258064516129,1.42258064516129,1.32903225806452,1.39354838709677,1.3741935483871,1.39354838709677,1.35161290322581,1.15161290322581,1.26129032258065,1.7741935483871,2.66451612903226,3.11612903225806,2.54838709677419,1.69677419354839,1.14193548387097,1.09354838709677,1.15161290322581,1.0741935483871,1.12258064516129,1.07741935483871,1.08064516129032,1.13548387096774,1.14193548387097,1.23225806451613,1.17096774193548,1.18387096774194,1.23870967741935,1.19032258064516,1.26774193548387,1.22258064516129,1.2258064516129,1.26129032258065,1.21612903225806,1.28064516129032,1.2258064516129,1.25161290322581,1.31935483870968,1.29032258064516,1.37741935483871,1.34838709677419,1.39677419354839,1.43870967741935,1.34516129032258,1.38709677419355,1.33548387096774,1.34516129032258,1.39354838709677,1.34193548387097,1.41290322580645,1.3741935483871,1.37741935483871,1.41612903225806,1.36774193548387,1.42258064516129,1.35806451612903,1.37741935483871,1.43548387096774,1.38387096774194,1.45806451612903,1.40645161290323,1.39677419354839,1.42903225806452,1.38387096774194,1.46129032258065,1.43548387096774,1.44838709677419,1.48064516129032,1.41612903225806,1.46774193548387,1.40645161290323,1.38709677419355,1.37741935483871,1.28709677419355,1.36129032258065,1.32258064516129,1.3258064516129,1.36774193548387,1.32258064516129,1.33870967741935,1.14838709677419,1.14838709677419,1.67096774193548,2.49677419354839,3.11935483870968,2.74193548387097,1.84516129032258,1.25483870967742,1.08387096774194,1.16774193548387,1.08709677419355,1.05161290322581,1.08709677419355,1.05806451612903,1.13225806451613,1.11290322580645,1.14838709677419,1.20322580645161,1.15483870967742,1.21612903225806,1.2,1.24193548387097,1.28064516129032,1.21935483870968,1.29032258064516,1.26129032258065,1.27096774193548,1.30967741935484,1.25483870967742,1.31290322580645,1.30967741935484,1.3741935483871,1.45806451612903,1.42903225806452,1.47096774193548,1.40645161290323,1.42258064516129,1.45161290322581,1.38064516129032,1.42258064516129,1.38064516129032,1.4258064516129,1.47741935483871,1.38064516129032,1.41290322580645,1.40645161290323,1.43225806451613,1.43870967741935,1.38387096774194,1.46774193548387,1.44193548387097,1.44516129032258,1.45161290322581,1.38387096774194,1.47741935483871,1.46451612903226,1.46129032258065,1.48387096774194,1.45483870967742,1.54516129032258,1.48387096774194,1.43870967741935,1.43870967741935,1.38387096774194,1.44193548387097,1.35806451612903,1.31290322580645,1.33870967741935,1.30967741935484,1.37096774193548,1.33870967741935,1.32903225806452,1.22903225806452,1.13548387096774,1.6741935483871,2.55806451612903,3.14193548387097,2.8,1.83548387096774,1.28709677419355,1.13225806451613,1.1741935483871,1.17741935483871,1.07741935483871,1.14516129032258,1.13225806451613,1.14193548387097,1.16451612903226,1.13225806451613,1.23548387096774,1.18709677419355,1.15806451612903,1.21612903225806,1.21935483870968,1.28064516129032,1.20322580645161,1.22258064516129,1.30322580645161,1.24838709677419,1.27741935483871,1.22258064516129,1.24516129032258,1.3258064516129,1.3258064516129,1.40645161290323,1.38387096774194,1.39677419354839,1.40967741935484,1.35161290322581,1.44193548387097,1.40322580645161,1.35806451612903,1.37741935483871,1.35161290322581,1.41612903225806,1.36774193548387,1.38387096774194,1.41612903225806,1.37741935483871,1.45483870967742,1.41290322580645,1.41935483870968,1.44838709677419,1.38709677419355,1.44516129032258,1.4,1.41612903225806,1.45806451612903,1.41290322580645,1.50645161290323,1.48064516129032,1.48064516129032,1.51612903225806,1.44516129032258,1.47096774193548,1.40967741935484,1.41290322580645,1.44838709677419,1.38709677419355,1.41935483870968,1.37096774193548,1.41612903225806,1.47096774193548,1.36129032258065,1.30645161290323,1.21935483870968,1.60645161290323,2.53870967741935,3.16129032258065,2.92258064516129,1.93870967741935,1.28709677419355,1.17741935483871,1.14516129032258,1.19677419354839,1.12903225806452,1.11612903225806,1.14516129032258,1.11612903225806,1.20967741935484,1.17741935483871,1.16451612903226,1.18709677419355,1.14193548387097,1.23225806451613,1.21935483870968,1.23548387096774,1.25483870967742,1.16451612903226,1.2258064516129,1.23225806451613,1.26451612903226,1.29677419354839,1.23548387096774,1.28709677419355,1.28709677419355,1.38387096774194,1.45483870967742,1.35161290322581,1.36774193548387,1.31935483870968,1.33870967741935,1.37096774193548,1.3,1.36774193548387,1.33548387096774,1.33225806451613,1.37096774193548,1.32258064516129,1.37741935483871,1.3258064516129,1.34516129032258,1.39354838709677,1.33548387096774,1.40645161290323,1.37741935483871,1.39354838709677,1.45161290322581,1.38387096774194,1.43870967741935,1.43225806451613,1.49032258064516,1.54516129032258,1.47096774193548,1.51612903225806,1.44193548387097,1.42258064516129,1.42903225806452,1.32903225806452,1.37096774193548,1.33870967741935,1.36451612903226,1.40967741935484,1.36451612903226,1.43548387096774,1.28387096774194,1.1741935483871,1.48709677419355,2.2,2.99032258064516,2.91935483870968,2.14516129032258,1.40967741935484,1.08387096774194,1.17096774193548,1.1258064516129,1.08064516129032,1.12903225806452,1.1258064516129,1.19032258064516,1.10967741935484,1.11612903225806,1.18387096774194,1.14193548387097,1.21612903225806,1.19354838709677,1.21935483870968,1.27741935483871,1.22258064516129,1.29032258064516,1.25161290322581,1.23870967741935,1.26774193548387,1.20967741935484,1.29354838709677,1.30322580645161,1.35483870967742,1.41935483870968,1.38387096774194,1.48064516129032,1.45161290322581,1.42903225806452,1.43870967741935,1.36774193548387,1.43870967741935,1.39677419354839,1.3741935483871,1.39032258064516,1.33548387096774,1.41612903225806,1.4,1.39354838709677,1.39677419354839,1.34838709677419,1.43548387096774,1.40322580645161,1.41612903225806,1.46451612903226,1.39032258064516,1.4258064516129,1.40967741935484,1.48064516129032,1.56774193548387,1.48387096774194,1.49354838709677,1.45806451612903,1.4741935483871,1.4741935483871,1.3741935483871,1.41612903225806,1.35806451612903,1.34193548387097,1.38709677419355,1.35806451612903,1.42258064516129,1.30967741935484,1.16774193548387,1.26774193548387,1.79032258064516,2.75161290322581,3.13225806451613,2.58709677419355,1.7258064516129,1.20645161290323,1.2,1.14838709677419,1.09032258064516,1.1,1.08387096774194,1.18709677419355,1.15161290322581,1.13870967741935,1.17741935483871,1.13870967741935,1.22258064516129,1.19354838709677,1.18709677419355,1.24516129032258,1.22258064516129,1.27741935483871,1.24193548387097,1.26774193548387,1.31612903225806,1.24838709677419,1.30645161290323,1.28064516129032,1.32258064516129,1.4,1.34193548387097,1.39354838709677,1.39032258064516,1.40967741935484,1.41935483870968,1.34516129032258,1.4,1.36451612903226,1.3741935483871,1.41290322580645,1.36451612903226,1.43548387096774,1.4,1.3741935483871,1.4,1.36451612903226,1.43225806451613,1.37096774193548,1.36774193548387,1.43548387096774,1.38387096774194,1.41935483870968,1.38709677419355,1.43548387096774,1.52258064516129,1.47096774193548,1.50645161290323,1.44838709677419,1.44838709677419,1.47741935483871,1.37096774193548,1.38709677419355,1.35161290322581,1.36774193548387,1.39677419354839,1.30967741935484,1.34193548387097,1.30322580645161,1.28064516129032,1.21290322580645,1.12903225806452,1.65483870967742,2.55161290322581,3.15806451612903,2.85483870967742,1.86451612903226,1.27096774193548,1.11612903225806,1.13548387096774,1.15161290322581,1.09354838709677,1.16129032258065,1.11290322580645,1.10322580645161,1.16774193548387,1.13870967741935,1.22258064516129,1.2258064516129,1.24193548387097,1.25483870967742,1.19677419354839,1.30322580645161,1.29677419354839,1.27096774193548,1.31935483870968,1.3,1.37096774193548,1.31935483870968,1.29032258064516,1.35806451612903,1.3741935483871,1.47096774193548,1.44516129032258,1.43870967741935,1.45806451612903,1.39354838709677,1.44838709677419,1.40645161290323,1.38709677419355,1.41935483870968,1.38387096774194,1.46451612903226,1.43870967741935,1.40322580645161,1.41935483870968,1.38064516129032,1.42903225806452,1.38709677419355,1.38387096774194,1.42258064516129,1.37741935483871,1.44838709677419,1.41935483870968,1.40645161290323,1.44838709677419,1.42903225806452,1.52258064516129
1.51290322580645,1.47741935483871,1.48709677419355,1.42258064516129,1.45161290322581,1.38064516129032,1.36129032258065,1.3741935483871,1.29354838709677,1.33225806451613,1.30967741935484,1.33870967741935,1.33225806451613,1.09677419354839,1.09354838709677,1.54193548387097,2.48709677419355,3.14193548387097,2.70322580645161,1.80322580645161,1.17096774193548,1.0741935483871,1.13225806451613,1.03548387096774,1.06774193548387,1.03870967741935,1.02903225806452,1.09032258064516,1.08064516129032,1.13870967741935,1.09354838709677,1.12903225806452,1.20967741935484,1.1741935483871,1.22903225806452,1.18709677419355,1.20967741935484,1.28387096774194,1.21935483870968,1.26451612903226,1.25806451612903,1.28064516129032,1.33548387096774,1.31935483870968,1.4258064516129,1.41290322580645,1.4,1.44838709677419,1.41290322580645,1.45483870967742,1.39032258064516,1.35483870967742,1.37096774193548,1.33548387096774,1.43225806451613,1.41290322580645,1.39354838709677,1.41612903225806,1.37096774193548,1.42903225806452,1.37096774193548,1.38064516129032,1.44516129032258,1.37096774193548,1.4,1.38709677419355,1.44516129032258,1.5,1.40645161290323,1.46774193548387,1.46129032258065,1.44516129032258,1.4741935483871,1.41612903225806,1.45806451612903,1.39354838709677,1.36774193548387,1.38709677419355,1.31612903225806,1.38064516129032,1.33548387096774,1.3258064516129,1.41290322580645,1.35483870967742,1.25806451612903,1.15483870967742,1.64516129032258,2.65483870967742,3.19354838709677,2.82903225806452,1.82903225806452,1.23870967741935,1.22258064516129,1.18709677419355,1.19677419354839,1.14193548387097,1.13870967741935,1.20322580645161,1.17096774193548,1.22903225806452,1.20967741935484,1.25483870967742,1.31612903225806,1.2258064516129,1.2741935483871,1.28064516129032,1.30322580645161,1.34193548387097,1.27096774193548,1.31290322580645,1.26774193548387,1.2741935483871,1.32903225806452,1.28387096774194,1.3741935483871,1.4,1.44516129032258,1.48064516129032,1.38387096774194,1.41935483870968,1.37096774193548,1.36774193548387,1.4258064516129,1.36774193548387,1.4258064516129,1.38709677419355,1.39677419354839,1.46451612903226,1.4,1.4258064516129,1.38064516129032,1.39032258064516,1.44516129032258,1.38387096774194,1.44516129032258,1.40645161290323,1.39677419354839,1.43225806451613,1.38709677419355,1.48709677419355,1.48709677419355,1.48064516129032,1.5,1.40322580645161,1.43548387096774,1.36774193548387,1.33870967741935,1.3741935483871,1.31935483870968,1.35806451612903,1.29032258064516,1.3,1.37741935483871,1.26774193548387,1.18387096774194,1.14516129032258,1.62258064516129,2.54516129032258,3.03548387096774,2.71935483870968,1.77096774193548,1.18064516129032,1.1258064516129,1.0741935483871,1.11290322580645,1.08387096774194,1.08387096774194,1.10967741935484,1.04838709677419,1.13548387096774,1.14838709677419,1.15806451612903,1.18709677419355,1.13870967741935,1.2258064516129,1.2,1.20645161290323,1.26774193548387,1.2258064516129,1.28064516129032,1.26451612903226,1.29677419354839,1.32903225806452,1.26451612903226,1.36129032258065,1.38387096774194,1.4,1.43870967741935,1.3741935483871,1.41612903225806,1.39032258064516,1.40967741935484,1.43548387096774,1.35483870967742,1.42903225806452,1.39354838709677,1.38709677419355,1.44193548387097,1.38387096774194,1.44193548387097,1.41612903225806,1.41290322580645,1.45161290322581,1.37096774193548,1.41290322580645,1.39677419354839,1.4258064516129,1.48387096774194,1.41612903225806,1.46774193548387,1.46451612903226,1.49354838709677,1.5258064516129,1.42258064516129,1.44516129032258,1.39677419354839,1.38064516129032,1.4,1.30322580645161,1.34193548387097,1.35161290322581,1.34838709677419,1.36774193548387,1.29032258064516,1.20322580645161,1.13225806451613,1.56451612903226,2.48709677419355,3.08709677419355,2.83870967741935,1.90967741935484,1.27741935483871,1.1741935483871,1.12258064516129,1.10645161290323,1.06451612903226,1.09677419354839,1.15483870967742,1.13870967741935,1.19677419354839,1.19032258064516,1.20322580645161,1.22903225806452,1.20322580645161,1.25483870967742,1.24516129032258,1.2741935483871,1.30967741935484,1.26451612903226,1.31612903225806,1.31290322580645,1.30967741935484,1.35161290322581,1.37096774193548,1.46129032258065,1.45161290322581,1.44193548387097,1.46451612903226,1.44838709677419,1.48064516129032,1.40967741935484,1.39032258064516,1.41935483870968,1.36774193548387,1.41935483870968,1.41290322580645,1.38387096774194,1.38709677419355,1.36774193548387,1.43225806451613,1.39677419354839,1.36774193548387,1.39032258064516,1.36774193548387,1.40645161290323,1.3741935483871,1.36451612903226,1.4,1.38709677419355,1.4741935483871,1.48709677419355,1.46774193548387,1.45483870967742,1.40967741935484,1.44516129032258,1.39354838709677,1.35161290322581,1.35483870967742,1.31935483870968,1.36129032258065,1.33870967741935,1.31935483870968,1.31290322580645,1.28064516129032,1.2741935483871,1.13870967741935,1.29677419354839,2.04193548387097,2.89354838709677,3.11290322580645,2.3258064516129,1.42903225806452,1.11290322580645,1.08709677419355,1.13225806451613,1.07741935483871,1.06774193548387,1.09354838709677,1.05483870967742,1.1258064516129,1.14193548387097,1.15806451612903,1.1741935483871,1.14516129032258,1.22903225806452,1.22258064516129,1.2,1.2258064516129,1.20967741935484,1.27741935483871,1.25161290322581,1.23548387096774,1.28064516129032,1.27096774193548,1.32903225806452,1.33870967741935,1.3741935483871,1.44193548387097,1.40967741935484,1.43225806451613,1.40967741935484,1.41935483870968,1.42903225806452,1.37741935483871,1.42258064516129,1.4,1.40322580645161,1.44193548387097,1.40967741935484,1.43225806451613,1.40322580645161,1.42903225806452,1.46774193548387,1.41612903225806,1.46129032258065,1.44193548387097,1.43225806451613,1.46774193548387,1.44838709677419,1.50322580645161,1.46774193548387,1.46451612903226,1.52903225806452,1.5,1.51290322580645,1.44838709677419,1.42903225806452,1.43548387096774,1.35483870967742,1.36774193548387,1.34516129032258,1.33870967741935,1.34516129032258,1.31290322580645,1.38709677419355,1.35483870967742,1.22903225806452,1.20322580645161,1.58064516129032,2.51290322580645,3.13870967741935,2.81612903225806,1.86774193548387,1.15161290322581,1.09354838709677,1.16451612903226,1.1741935483871,1.14838709677419,1.08709677419355,1.16451612903226,1.16451612903226,1.16129032258065,1.2,1.17741935483871,1.24516129032258,1.26774193548387,1.28064516129032,1.30322580645161,1.26774193548387,1.31290322580645,1.2741935483871,1.26451612903226,1.31290322580645,1.27741935483871,1.31612903225806,1.31612903225806,1.36129032258065,1.42903225806452,1.40645161290323,1.44516129032258,1.41935483870968,1.41290322580645,1.41612903225806,1.36451612903226,1.41290322580645,1.37096774193548,1.35161290322581,1.39032258064516,1.36451612903226,1.41612903225806,1.38709677419355,1.38387096774194,1.42903225806452,1.38709677419355,1.41290322580645,1.3741935483871,1.37741935483871,1.4258064516129,1.40645161290323,1.45806451612903,1.41612903225806,1.44193548387097,1.5,1.42903225806452,1.48387096774194,1.45483870967742,1.43870967741935,1.45161290322581,1.33870967741935,1.38387096774194,1.37741935483871,1.37741935483871,1.41935483870968,1.34193548387097,1.40645161290323,1.41612903225806,1.34838709677419,1.22903225806452,1.22258064516129,1.86774193548387,2.71935483870968,3.07741935483871,2.55806451612903,1.58064516129032,1.16129032258065,1.12258064516129,1.14516129032258,1.13225806451613,1.02903225806452,1.11290322580645,1.11935483870968,1.10967741935484,1.14516129032258,1.09032258064516,1.16129032258065,1.18387096774194,1.21290322580645,1.25806451612903,1.1741935483871,1.22258064516129,1.23870967741935,1.25161290322581,1.25483870967742,1.18064516129032,1.2741935483871,1.29032258064516,1.30322580645161,1.37096774193548,1.34516129032258,1.4258064516129,1.40967741935484,1.38387096774194,1.41935483870968,1.36451612903226,1.41612903225806,1.3741935483871,1.35161290322581,1.40967741935484,1.36774193548387,1.40967741935484,1.3741935483871,1.37741935483871,1.43225806451613,1.36129032258065,1.39677419354839,1.36774193548387,1.36774193548387,1.4258064516129,1.37096774193548,1.41612903225806,1.4,1.40322580645161,1.46451612903226,1.44193548387097,1.50645161290323,1.44838709677419,1.39677419354839,1.43548387096774,1.36451612903226,1.37096774193548,1.32258064516129,1.30967741935484,1.34193548387097,1.28064516129032,1.31935483870968,1.31290322580645,1.26774193548387,1.17096774193548,1.18064516129032,1.82903225806452,2.74193548387097,3.1258064516129,2.57096774193548,1.61612903225806,1.18709677419355,1.11290322580645,1.11290322580645,1.11935483870968,1.06774193548387,1.1258064516129,1.1258064516129,1.12903225806452,1.16129032258065,1.11935483870968,1.1741935483871,1.19354838709677,1.20967741935484,1.23548387096774,1.19354838709677,1.25161290322581,1.26451612903226,1.2741935483871,1.30967741935484,1.26451612903226,1.30645161290323,1.31290322580645,1.35161290322581,1.42258064516129,1.40967741935484,1.45483870967742,1.44193548387097,1.44193548387097,1.46129032258065,1.40322580645161,1.40967741935484,1.36129032258065,1.36451612903226,1.41612903225806,1.36774193548387,1.38064516129032,1.35483870967742,1.35483870967742,1.38709677419355,1.35483870967742,1.39354838709677,1.38387096774194,1.42903225806452,1.49354838709677,1.43548387096774,1.46774193548387,1.46451612903226,1.46774193548387,1.50967741935484,1.48064516129032,1.55161290322581,1.55483870967742,1.52258064516129,1.52258064516129,1.45161290322581,1.43870967741935,1.37096774193548,1.37741935483871,1.4258064516129,1.36774193548387,1.40967741935484,1.42258064516129,1.42258064516129,1.34193548387097,1.18064516129032,1.52258064516129,2.34516129032258,3.09032258064516,3.01935483870968,2.12903225806452,1.42258064516129,1.18709677419355,1.21290322580645,1.24193548387097,1.14838709677419,1.18387096774194,1.18064516129032,1.19032258064516,1.22903225806452,1.18064516129032,1.2258064516129,1.21290322580645,1.2258064516129,1.28064516129032,1.2258064516129,1.25483870967742,1.23870967741935,1.23870967741935,1.29032258064516,1.25806451612903,1.30967741935484,1.29354838709677,1.29032258064516,1.34838709677419,1.34516129032258,1.39032258064516,1.34838709677419,1.36774193548387,1.43225806451613,1.36451612903226,1.38387096774194,1.35161290322581,1.35161290322581,1.4,1.35483870967742,1.39677419354839,1.3741935483871,1.35806451612903,1.4,1.35483870967742,1.39354838709677,1.38709677419355,1.38709677419355,1.41612903225806,1.36451612903226,1.41612903225806,1.41612903225806,1.43225806451613,1.47096774193548,1.42258064516129,1.47741935483871,1.45483870967742,1.40967741935484,1.39677419354839,1.32258064516129,1.36129032258065,1.31935483870968,1.27096774193548,1.3,1.27096774193548,1.32903225806452,1.30967741935484,1.26451612903226,1.20322580645161,1.14516129032258,1.61935483870968,2.43870967741935,3.01612903225806,2.75806451612903,1.84193548387097,1.27741935483871,1.11290322580645,1.10645161290323,1.11612903225806,1.02903225806452,1.06129032258065,1.06451612903226,1.08709677419355,1.15161290322581,1.11290322580645,1.13870967741935,1.11290322580645,1.13870967741935,1.22903225806452,1.20967741935484,1.24516129032258,1.21935483870968,1.22258064516129,1.2741935483871,1.22903225806452,1.2741935483871,1.27096774193548,1.28709677419355,1.35161290322581,1.33548387096774,1.38387096774194,1.39032258064516,1.42903225806452,1.45483870967742,1.36451612903226,1.41290322580645,1.4258064516129,1.40645161290323,1.40967741935484,1.36129032258065,1.42903225806452,1.43225806451613,1.41612903225806,1.43870967741935,1.39032258064516,1.43548387096774,1.44838709677419,1.45806451612903,1.48709677419355,1.42903225806452,1.48387096774194,1.50645161290323,1.5258064516129,1.56129032258065,1.49032258064516,1.51612903225806,1.50967741935484,1.47096774193548,1.45483870967742,1.40645161290323,1.44838709677419,1.40645161290323,1.36129032258065,1.37096774193548,1.31612903225806,1.35483870967742,1.31612903225806,1.22258064516129,1.24193548387097,1.63870967741935,2.58709677419355,3.13225806451613,2.74838709677419,1.91290322580645,1.26774193548387,1.16451612903226,1.11612903225806,1.06129032258065,1.11290322580645,1.07741935483871,1.15161290322581,1.16774193548387,1.12903225806452,1.11612903225806,1.0741935483871,1.17741935483871,1.20322580645161,1.22903225806452,1.28387096774194,1.20645161290323,1.28387096774194,1.31935483870968,1.29677419354839,1.28709677419355,1.20645161290323,1.28709677419355,1.32258064516129,1.34838709677419,1.43548387096774,1.39354838709677,1.44193548387097,1.39677419354839,1.35483870967742,1.40322580645161,1.33870967741935,1.3741935483871,1.35806451612903,1.32258064516129,1.34516129032258,1.30967741935484,1.4,1.37741935483871,1.34838709677419,1.38709677419355,1.3,1.32903225806452,1.33870967741935,1.36129032258065,1.41290322580645,1.35483870967742,1.43870967741935,1.47096774193548,1.49354838709677,1.52258064516129,1.4258064516129,1.48064516129032,1.4741935483871,1.41612903225806,1.41935483870968,1.33548387096774,1.36451612903226,1.34193548387097,1.33870967741935,1.40645161290323,1.35806451612903,1.35806451612903,1.20322580645161,1.17096774193548,1.70322580645161,2.55806451612903,3.16451612903226,2.7258064516129,1.78387096774194,1.27096774193548,1.10645161290323,1.16451612903226,1.14193548387097,1.10967741935484,1.13548387096774,1.09354838709677,1.16774193548387,1.15806451612903,1.14838709677419,1.23225806451613,1.21612903225806,1.26451612903226,1.2258064516129,1.22903225806452,1.33870967741935,1.28709677419355,1.29032258064516,1.2741935483871,1.28709677419355,1.34516129032258,1.28709677419355,1.34193548387097,1.36129032258065,1.40645161290323,1.50322580645161,1.43548387096774,1.46774193548387,1.43548387096774,1.39354838709677,1.45161290322581,1.40967741935484,1.44193548387097,1.41612903225806,1.4258064516129,1.5,1.44193548387097,1.4741935483871,1.44193548387097,1.41935483870968,1.46129032258065,1.38064516129032,1.4258064516129,1.45161290322581,1.45161290322581,1.47741935483871,1.4258064516129,1.52258064516129,1.52903225806452,1.48064516129032,1.49677419354839,1.4258064516129,1.46451612903226,1.41290322580645,1.35483870967742,1.39354838709677,1.33225806451613,1.37096774193548,1.32903225806452,1.29032258064516,1.37096774193548,1.30322580645161,1.20322580645161,1.16774193548387,1.69677419354839,2.71290322580645,3.13548387096774,2.66129032258065,1.70322580645161,1.17096774193548,1.15161290322581,1.09354838709677,1.09032258064516,1.06451612903226,1.1,1.17096774193548,1.08387096774194,1.11935483870968,1.1258064516129,1.15806451612903,1.23548387096774,1.15161290322581,1.2,1.21612903225806,1.2258064516129,1.27096774193548,1.19032258064516,1.25161290322581,1.27096774193548,1.26129032258065,1.3,1.24516129032258,1.33870967741935,1.37096774193548,1.35483870967742,1.38387096774194,1.33225806451613,1.38709677419355,1.35483870967742,1.34838709677419,1.41290322580645,1.32903225806452,1.36451612903226,1.36129032258065,1.35161290322581,1.39677419354839,1.33225806451613,1.41612903225806,1.42903225806452,1.3741935483871,1.40645161290323,1.37741935483871,1.43870967741935,1.41935483870968,1.40967741935484,1.49032258064516,1.45483870967742,1.50322580645161,1.47741935483871,1.44516129032258,1.48387096774194,1.37741935483871,1.35806451612903,1.3,1.27741935483871,1.34516129032258,1.29032258064516,1.33870967741935,1.34516129032258,1.3258064516129,1.2741935483871,1.07096774193548,1.30645161290323,2.0741935483871,2.91935483870968,3.06774193548387,2.27741935483871,1.53225806451613,1.2,1.13870967741935,1.14516129032258,1.07096774193548,1.15161290322581,1.14516129032258,1.11612903225806,1.18387096774194,1.15483870967742,1.23225806451613,1.24193548387097,1.21935483870968,1.26129032258065,1.20645161290323,1.27741935483871,1.28709677419355,1.26451612903226,1.30322580645161,1.25161290322581,1.3258064516129,1.31290322580645,1.27096774193548,1.34516129032258,1.34193548387097,1.4258064516129,1.44838709677419,1.44193548387097,1.46451612903226,1.37741935483871,1.41290322580645,1.40322580645161,1.38387096774194,1.4258064516129,1.36451612903226,1.41612903225806,1.42258064516129,1.4,1.42903225806452,1.36774193548387,1.42258064516129,1.41935483870968,1.41290322580645,1.48064516129032,1.4,1.42903225806452,1.43225806451613,1.42258064516129,1.48387096774194,1.46774193548387,1.5258064516129,1.47096774193548,1.4258064516129,1.48387096774194,1.41290322580645,1.42258064516129,1.36129032258065,1.30645161290323,1.36451612903226,1.30322580645161,1.34193548387097,1.35483870967742,1.33225806451613,1.24193548387097,1.11290322580645,1.62258064516129,2.55483870967742,3.13225806451613,2.81612903225806,1.86451612903226,1.32903225806452,1.17741935483871,1.12903225806452,1.14516129032258,1.08709677419355,1.15806451612903,1.16774193548387,1.14193548387097,1.17096774193548,1.11290322580645,1.19677419354839,1.21612903225806,1.18709677419355,1.24838709677419,1.21935483870968,1.25806451612903,1.24193548387097,1.24193548387097,1.28387096774194,1.18064516129032,1.22258064516129,1.25483870967742,1.27096774193548,1.34838709677419,1.31290322580645,1.36774193548387,1.38064516129032,1.37096774193548,1.39677419354839,1.33225806451613,1.39032258064516,1.37096774193548,1.33225806451613,1.38709677419355,1.33870967741935,1.4,1.41612903225806,1.4,1.41290322580645,1.34838709677419,1.4258064516129,1.41935483870968,1.39032258064516,1.45161290322581,1.4,1.44516129032258,1.44516129032258,1.45806451612903,1.53548387096774,1.48064516129032,1.51935483870968,1.47741935483871,1.42258064516129,1.46129032258065,1.38387096774194,1.39677419354839,1.35806451612903,1.33870967741935,1.40967741935484,1.32903225806452,1.35483870967742,1.36129032258065,1.30967741935484,1.23225806451613,1.19032258064516,1.80645161290323,2.7258064516129,3.1258064516129,2.6258064516129,1.65161290322581,1.22258064516129,1.15483870967742,1.13225806451613,1.15806451612903,1.08064516129032,1.14516129032258,1.16774193548387,1.13870967741935,1.19032258064516,1.15806451612903,1.23548387096774,1.21935483870968,1.18387096774194,1.26774193548387,1.23225806451613,1.3,1.30645161290323,1.2741935483871,1.31935483870968,1.25806451612903,1.3258064516129,1.31290322580645,1.2741935483871,1.35806451612903,1.35161290322581,1.43870967741935,1.41290322580645,1.36774193548387,1.42903225806452,1.37096774193548,1.41935483870968,1.41290322580645,1.39032258064516,1.43870967741935,1.35483870967742,1.3741935483871,1.37096774193548,1.38709677419355,1.46451612903226,1.38387096774194,1.42903225806452,1.41612903225806,1.37741935483871,1.45161290322581,1.41935483870968,1.45161290322581,1.4258064516129,1.45483870967742,1.58387096774194,1.5258064516129,1.52903225806452,1.49354838709677,1.45161290322581,1.48387096774194,1.39677419354839,1.41290322580645,1.38709677419355,1.33870967741935,1.38709677419355,1.34516129032258,1.38064516129032,1.3,1.16129032258065,1.21290322580645,1.58709677419355,2.50645161290323,3.0741935483871,2.68709677419355,1.84838709677419,1.22903225806452,1.15483870967742,1.12903225806452,1.08064516129032,1.11290322580645,1.04838709677419,1.1258064516129,1.14516129032258,1.11290322580645,1.14838709677419,1.08064516129032,1.15161290322581,1.18387096774194,1.16451612903226,1.21612903225806,1.17741935483871,1.24516129032258,1.23225806451613,1.20645161290323,1.28064516129032,1.20645161290323,1.23870967741935,1.26129032258065,1.28387096774194,1.38064516129032,1.34193548387097,1.40967741935484,1.41612903225806,1.34516129032258,1.35806451612903,1.3258064516129,1.39677419354839,1.3741935483871,1.32903225806452,1.38387096774194,1.34193548387097,1.41612903225806,1.40645161290323,1.36129032258065,1.43225806451613,1.39032258064516,1.42258064516129,1.41612903225806,1.40645161290323,1.47096774193548,1.42258064516129,1.47096774193548,1.48064516129032,1.47096774193548,1.54516129032258,1.50967741935484,1.5258064516129,1.45806451612903,1.41290322580645,1.45483870967742,1.36451612903226,1.39677419354839,1.4,1.35161290322581,1.37096774193548,1.31290322580645,1.35806451612903,1.26129032258065,1.11612903225806,1.39354838709677,2.09354838709677,2.96129032258065,3.04516129032258,2.23870967741935,1.48064516129032,1.14193548387097,1.1741935483871,1.16129032258065,1.09354838709677,1.13225806451613,1.10322580645161,1.16129032258065,1.16129032258065,1.15161290322581,1.2,1.11290322580645,1.15806451612903,1.19354838709677,1.21612903225806,1.3,1.26774193548387,1.35161290322581,1.35806451612903,1.30322580645161,1.35161290322581,1.3258064516129,1.37741935483871,1.41290322580645,1.45161290322581,1.54516129032258,1.50645161290323,1.54193548387097,1.50322580645161,1.42903225806452,1.44838709677419,1.4,1.43225806451613,1.41612903225806,1.41290322580645,1.49032258064516,1.42903225806452,1.4258064516129,1.36451612903226,1.33225806451613,1.4,1.34838709677419,1.38709677419355
1.3741935483871,1.35483870967742,1.41612903225806,1.35806451612903,1.33870967741935,1.34193548387097,1.32903225806452,1.39677419354839,1.3741935483871,1.41935483870968,1.43548387096774,1.38709677419355,1.43870967741935,1.44838709677419,1.5,1.49354838709677,1.4258064516129,1.46451612903226,1.41935483870968,1.40322580645161,1.38709677419355,1.33870967741935,1.39677419354839,1.36774193548387,1.36451612903226,1.36774193548387,1.38064516129032,1.4,1.21935483870968,1.26451612903226,1.78064516129032,2.62258064516129,3.17741935483871,2.76129032258065,1.84516129032258,1.18709677419355,1.14516129032258,1.18064516129032,0.961290322580645,1.01935483870968,1.11612903225806,1.06451612903226,1.10645161290323,1.10322580645161,1.16451612903226,1.18064516129032,1.14516129032258,1.21935483870968,1.18709677419355,1.19354838709677,1.20322580645161,1.16451612903226,1.25483870967742,1.24838709677419,1.25483870967742,1.26451612903226,1.24193548387097,1.3258064516129,1.30322580645161,1.35161290322581,1.40967741935484,1.36451612903226,1.41290322580645,1.3741935483871,1.35483870967742,1.35483870967742,1.34838709677419,1.43225806451613,1.38709677419355,1.39032258064516,1.39677419354839,1.35806451612903,1.43225806451613,1.38709677419355,1.37741935483871,1.39677419354839,1.3741935483871,1.43225806451613,1.3741935483871,1.39032258064516,1.42903225806452,1.40322580645161,1.47741935483871,1.44516129032258,1.4741935483871,1.53225806451613,1.48709677419355,1.48064516129032,1.39677419354839,1.41612903225806,1.44193548387097,1.3741935483871,1.40322580645161,1.35483870967742,1.35483870967742,1.36774193548387,1.33870967741935,1.34193548387097,1.15483870967742,1.2258064516129,1.83548387096774,2.66774193548387,3.13225806451613,2.60967741935484,1.72903225806452,1.23225806451613,1.10645161290323,1.18064516129032,1.11612903225806,1.10322580645161,1.1258064516129,1.1,1.17096774193548,1.12258064516129,1.15483870967742,1.24193548387097,1.23225806451613,1.25806451612903,1.19032258064516,1.21612903225806,1.26451612903226,1.25161290322581,1.32903225806452,1.29032258064516,1.3,1.36129032258065,1.33548387096774,1.37741935483871,1.36774193548387,1.41935483870968,1.45806451612903,1.40967741935484,1.46129032258065,1.41290322580645,1.40967741935484,1.41935483870968,1.3741935483871,1.43225806451613,1.39032258064516,1.40322580645161,1.42258064516129,1.3741935483871,1.4258064516129,1.39677419354839,1.4258064516129,1.43870967741935,1.36774193548387,1.40967741935484,1.38064516129032,1.41290322580645,1.44516129032258,1.39677419354839,1.44516129032258,1.43225806451613,1.5,1.53225806451613,1.44516129032258,1.45806451612903,1.39354838709677,1.38387096774194,1.40322580645161,1.35483870967742,1.38064516129032,1.30967741935484,1.30322580645161,1.33548387096774,1.31935483870968,1.34516129032258,1.15161290322581,1.13225806451613,1.64516129032258,2.5,3.12903225806452,2.71612903225806,1.80322580645161,1.24516129032258,1.1,1.16129032258065,1.07741935483871,1.0741935483871,1.12903225806452,1.10322580645161,1.14516129032258,1.1,1.14838709677419,1.2,1.17096774193548,1.23548387096774,1.18709677419355,1.20967741935484,1.27096774193548,1.23548387096774,1.27096774193548,1.21612903225806,1.24516129032258,1.29354838709677,1.24838709677419,1.3258064516129,1.33225806451613,1.35806451612903,1.39677419354839,1.38709677419355,1.46129032258065,1.40645161290323,1.3741935483871,1.37741935483871,1.34838709677419,1.40967741935484,1.35806451612903,1.38709677419355,1.43225806451613,1.36774193548387,1.41935483870968,1.39677419354839,1.39677419354839,1.39677419354839,1.35161290322581,1.41612903225806,1.3741935483871,1.38709677419355,1.44193548387097,1.4258064516129,1.48064516129032,1.45161290322581,1.49032258064516,1.50645161290323,1.42903225806452,1.48387096774194,1.46451612903226,1.44838709677419,1.41290322580645,1.34193548387097,1.40322580645161,1.35806451612903,1.34838709677419,1.35161290322581,1.30322580645161,1.37741935483871,1.26129032258065,1.13225806451613,1.36451612903226,2.11290322580645,3.03870967741935,3.05806451612903,2.23548387096774,1.41935483870968,1.10322580645161,1.1741935483871,1.12903225806452,1.11612903225806,1.13225806451613,1.09677419354839,1.18064516129032,1.16129032258065,1.17741935483871,1.21612903225806,1.16451612903226,1.20645161290323,1.20645161290323,1.26129032258065,1.28064516129032,1.22258064516129,1.29032258064516,1.25161290322581,1.25161290322581,1.30322580645161,1.28709677419355,1.33225806451613,1.29677419354839,1.35483870967742,1.4258064516129,1.40322580645161,1.45483870967742,1.40322580645161,1.4,1.43225806451613,1.38709677419355,1.41290322580645,1.36774193548387,1.4,1.41935483870968,1.34838709677419,1.41290322580645,1.40645161290323,1.4258064516129,1.44193548387097,1.39677419354839,1.45161290322581,1.39032258064516,1.39354838709677,1.45161290322581,1.41612903225806,1.45483870967742,1.41290322580645,1.45161290322581,1.50967741935484,1.47096774193548,1.52903225806452,1.47741935483871,1.47096774193548,1.47096774193548,1.3741935483871,1.39032258064516,1.35161290322581,1.36451612903226,1.40322580645161,1.36129032258065,1.41935483870968,1.37096774193548,1.28064516129032,1.17741935483871,1.39032258064516,2.28387096774194,3.06774193548387,3.01935483870968,2.16451612903226,1.33548387096774,1.18387096774194,1.18387096774194,1.16129032258065,1.13225806451613,1.08709677419355,1.16451612903226,1.13548387096774,1.16129032258065,1.1741935483871,1.11612903225806,1.22258064516129,1.24516129032258,1.25161290322581,1.23548387096774,1.1741935483871,1.26129032258065,1.25483870967742,1.26774193548387,1.29354838709677,1.23548387096774,1.27741935483871,1.26451612903226,1.33225806451613,1.3741935483871,1.30967741935484,1.39677419354839,1.41612903225806,1.40967741935484,1.37741935483871,1.32903225806452,1.41935483870968,1.37096774193548,1.35161290322581,1.37741935483871,1.33870967741935,1.4,1.37741935483871,1.40322580645161,1.42258064516129,1.34838709677419,1.41290322580645,1.41935483870968,1.43548387096774,1.42903225806452,1.3741935483871,1.46451612903226,1.44516129032258,1.43870967741935,1.45483870967742,1.4258064516129,1.50645161290323,1.47096774193548,1.46129032258065,1.47096774193548,1.39354838709677,1.40645161290323,1.34193548387097,1.33225806451613,1.35806451612903,1.3,1.33225806451613,1.31290322580645,1.29032258064516,1.16774193548387,1.19354838709677,1.91290322580645,2.80322580645161,3.10967741935484,2.46129032258065,1.48064516129032,1.14193548387097,1.1258064516129,1.11935483870968,1.07096774193548,1.02903225806452,1.12903225806452,1.10967741935484,1.09677419354839,1.09677419354839,1.06451612903226,1.16774193548387,1.15483870967742,1.15806451612903,1.17741935483871,1.14838709677419,1.2258064516129,1.2,1.18064516129032,1.16451612903226,1.10645161290323,1.1741935483871,1.18709677419355,1.24516129032258,1.31935483870968,1.32903225806452,1.43225806451613,1.45483870967742,1.45806451612903,1.43548387096774,1.39677419354839,1.4741935483871,1.44193548387097,1.41935483870968,1.41935483870968,1.38387096774194,1.44193548387097,1.42258064516129,1.45161290322581,1.49032258064516,1.44838709677419,1.49032258064516,1.46129032258065,1.47096774193548,1.47096774193548,1.42258064516129,1.46451612903226,1.41935483870968,1.43225806451613,1.49354838709677,1.48709677419355,1.52903225806452,1.49354838709677,1.49354838709677,1.46451612903226,1.37096774193548,1.40322580645161,1.38064516129032,1.38387096774194,1.3741935483871,1.31935483870968,1.4,1.40645161290323,1.33225806451613,1.16129032258065,1.28064516129032,2.1,2.95161290322581,3.12903225806452,2.41612903225806,1.50645161290323,1.18709677419355,1.13870967741935,1.16451612903226,1.14516129032258,1.05806451612903,1.08709677419355,1.05806451612903,1.0741935483871,1.11290322580645,1.1258064516129,1.23548387096774,1.20967741935484,1.21290322580645,1.26451612903226,1.24516129032258,1.29677419354839,1.29354838709677,1.34838709677419,1.37741935483871,1.31612903225806,1.36774193548387,1.36451612903226,1.43225806451613,1.51290322580645,1.48387096774194,1.52903225806452,1.46129032258065,1.39354838709677,1.3741935483871,1.33870967741935,1.40645161290323,1.36129032258065,1.36774193548387,1.41290322580645,1.36774193548387,1.41612903225806,1.38709677419355,1.39677419354839,1.43225806451613,1.39354838709677,1.43548387096774,1.38064516129032,1.38709677419355,1.42258064516129,1.36129032258065,1.41935483870968,1.43548387096774,1.48064516129032,1.52258064516129,1.46129032258065,1.49032258064516,1.45483870967742,1.45483870967742,1.46774193548387,1.39677419354839,1.4258064516129,1.36774193548387,1.36129032258065,1.39032258064516,1.33548387096774,1.37741935483871,1.34516129032258,1.29354838709677,1.18064516129032,1.22903225806452,1.97096774193548,2.85806451612903,3.13225806451613,2.48709677419355,1.53225806451613,1.15806451612903,1.08709677419355,1.11290322580645,1.13548387096774,1.06774193548387,1.10322580645161,1.0741935483871,1.12258064516129,1.18387096774194,1.1258064516129,1.17741935483871,1.18064516129032,1.22258064516129,1.23870967741935,1.15483870967742,1.22258064516129,1.24838709677419,1.28387096774194,1.28064516129032,1.2,1.26129032258065,1.27096774193548,1.31612903225806,1.35806451612903,1.32258064516129,1.40645161290323,1.37741935483871,1.36451612903226,1.38387096774194,1.33225806451613,1.38387096774194,1.33870967741935,1.35483870967742,1.40645161290323,1.33870967741935,1.37096774193548,1.34193548387097,1.36774193548387,1.39677419354839,1.35161290322581,1.43870967741935,1.39354838709677,1.35806451612903,1.38709677419355,1.36451612903226,1.4258064516129,1.37741935483871,1.4,1.48709677419355,1.46774193548387,1.50322580645161,1.43548387096774,1.40967741935484,1.4258064516129,1.35483870967742,1.38064516129032,1.32903225806452,1.32903225806452,1.35161290322581,1.30322580645161,1.3741935483871,1.33870967741935,1.23548387096774,1.12903225806452,1.28709677419355,2.11290322580645,2.95161290322581,3.08387096774194,2.34193548387097,1.42258064516129,1.15161290322581,1.13548387096774,1.14516129032258,1.13548387096774,1.0741935483871,1.15806451612903,1.14838709677419,1.15806451612903,1.18387096774194,1.13225806451613,1.22258064516129,1.22258064516129,1.2258064516129,1.24838709677419,1.21935483870968,1.29032258064516,1.23548387096774,1.2258064516129,1.29354838709677,1.25806451612903,1.30322580645161,1.27096774193548,1.3,1.37741935483871,1.36129032258065,1.4258064516129,1.39032258064516,1.39032258064516,1.41290322580645,1.34516129032258,1.40322580645161,1.36774193548387,1.35483870967742,1.38064516129032,1.34516129032258,1.40645161290323,1.36129032258065,1.37096774193548,1.4258064516129,1.39032258064516,1.43548387096774,1.39032258064516,1.41612903225806,1.4741935483871,1.40322580645161,1.44516129032258,1.45483870967742,1.50322580645161,1.54193548387097,1.47096774193548,1.49677419354839,1.44838709677419,1.44193548387097,1.44838709677419,1.37741935483871,1.41290322580645,1.34838709677419,1.34838709677419,1.4,1.34838709677419,1.39677419354839,1.34516129032258,1.23870967741935,1.21290322580645,1.52903225806452,2.45806451612903,3.15806451612903,2.97096774193548,2.1,1.35161290322581,1.24193548387097,1.19354838709677,1.14516129032258,1.15483870967742,1.10645161290323,1.1741935483871,1.16451612903226,1.19032258064516,1.23870967741935,1.18387096774194,1.24516129032258,1.23870967741935,1.26129032258065,1.29354838709677,1.23225806451613,1.29032258064516,1.26129032258065,1.23870967741935,1.2741935483871,1.25806451612903,1.31935483870968,1.2741935483871,1.31935483870968,1.43548387096774,1.41290322580645,1.43870967741935,1.38709677419355,1.40645161290323,1.46451612903226,1.39032258064516,1.42258064516129,1.38064516129032,1.38709677419355,1.42258064516129,1.36774193548387,1.4258064516129,1.40322580645161,1.40645161290323,1.42903225806452,1.36129032258065,1.41935483870968,1.40322580645161,1.41612903225806,1.44193548387097,1.37096774193548,1.4258064516129,1.40322580645161,1.43870967741935,1.51935483870968,1.46774193548387,1.49677419354839,1.45483870967742,1.45483870967742,1.4741935483871,1.37741935483871,1.3741935483871,1.31290322580645,1.3258064516129,1.38387096774194,1.32258064516129,1.36774193548387,1.33548387096774,1.25806451612903,1.14193548387097,1.24838709677419,2.06451612903226,2.91935483870968,3.06129032258065,2.31935483870968,1.39032258064516,1.14193548387097,1.1258064516129,1.09354838709677,1.08387096774194,1.02903225806452,1.11290322580645,1.10322580645161,1.1258064516129,1.17096774193548,1.11612903225806,1.19354838709677,1.19032258064516,1.19354838709677,1.20645161290323,1.14516129032258,1.25161290322581,1.25483870967742,1.23225806451613,1.25806451612903,1.20645161290323,1.25483870967742,1.25483870967742,1.32258064516129,1.39677419354839,1.34193548387097,1.38709677419355,1.37096774193548,1.38064516129032,1.4,1.31612903225806,1.36774193548387,1.35483870967742,1.36451612903226,1.38709677419355,1.32258064516129,1.40645161290323,1.39354838709677,1.39354838709677,1.41935483870968,1.34838709677419,1.40967741935484,1.38709677419355,1.39354838709677,1.44516129032258,1.40322580645161,1.48064516129032,1.44516129032258,1.42258064516129,1.46451612903226,1.44193548387097,1.5258064516129,1.50967741935484,1.5,1.50645161290323,1.40322580645161,1.4258064516129,1.3741935483871,1.33870967741935,1.34838709677419,1.30645161290323,1.37741935483871,1.35806451612903,1.35483870967742,1.28064516129032,1.10645161290323,1.44193548387097,2.23870967741935,3.00967741935484,2.93870967741935,2.00645161290323,1.32903225806452,1.14193548387097,1.19032258064516,1.16774193548387,1.04516129032258,1.11612903225806,1.12258064516129,1.13225806451613,1.14516129032258,1.08387096774194,1.16774193548387,1.16129032258065,1.17741935483871,1.23870967741935,1.19677419354839,1.25483870967742,1.23870967741935,1.24516129032258,1.27741935483871,1.21935483870968,1.29032258064516,1.30322580645161,1.31290322580645,1.3258064516129,1.30322580645161,1.41935483870968,1.41612903225806,1.40322580645161,1.41935483870968,1.37096774193548,1.44193548387097,1.39032258064516,1.37096774193548,1.4258064516129,1.39032258064516,1.44516129032258,1.41290322580645,1.41612903225806,1.45483870967742,1.39677419354839,1.44838709677419,1.42903225806452,1.44193548387097,1.46451612903226,1.38709677419355,1.46451612903226,1.48064516129032,1.49354838709677,1.52258064516129,1.48387096774194,1.55483870967742,1.5,1.48387096774194,1.5258064516129,1.45161290322581,1.46451612903226,1.40645161290323,1.40645161290323,1.44516129032258,1.37096774193548,1.39032258064516,1.38064516129032,1.39354838709677,1.29677419354839,1.11935483870968,1.51612903225806,2.36129032258065,3.08064516129032,2.96451612903226,2.09032258064516,1.46774193548387,1.21612903225806,1.18387096774194,1.18709677419355,1.1,1.16129032258065,1.15483870967742,1.16774193548387,1.20967741935484,1.16774193548387,1.22903225806452,1.21290322580645,1.2258064516129,1.26129032258065,1.21290322580645,1.29032258064516,1.26451612903226,1.23548387096774,1.2741935483871,1.22903225806452,1.27096774193548,1.26129032258065,1.3,1.35483870967742,1.3258064516129,1.40645161290323,1.38064516129032,1.37741935483871,1.41612903225806,1.35161290322581,1.38387096774194,1.35806451612903,1.3741935483871,1.39677419354839,1.30967741935484,1.3741935483871,1.38387096774194,1.38387096774194,1.40322580645161,1.36129032258065,1.43225806451613,1.39677419354839,1.38387096774194,1.40322580645161,1.34838709677419,1.42903225806452,1.40645161290323,1.40322580645161,1.47741935483871,1.44516129032258,1.49354838709677,1.46451612903226,1.45161290322581,1.43870967741935,1.34193548387097,1.37741935483871,1.33870967741935,1.31612903225806,1.33548387096774,1.28709677419355,1.36129032258065,1.34516129032258,1.26774193548387,1.14193548387097,1.14838709677419,1.82903225806452,2.7258064516129,3.11290322580645,2.58387096774194,1.61935483870968,1.19677419354839,1.10645161290323,1.10322580645161,1.1258064516129,1.07741935483871,1.13548387096774,1.09032258064516,1.09032258064516,1.14838709677419,1.10322580645161,1.1741935483871,1.18064516129032,1.18387096774194,1.21290322580645,1.17741935483871,1.24838709677419,1.2258064516129,1.21290322580645,1.23225806451613,1.16774193548387,1.2258064516129,1.24838709677419,1.27096774193548,1.32903225806452,1.33870967741935,1.41290322580645,1.39677419354839,1.39354838709677,1.40645161290323,1.36774193548387,1.41935483870968,1.37096774193548,1.32258064516129,1.3258064516129,1.30967741935484,1.3741935483871,1.35483870967742,1.35806451612903,1.39354838709677,1.37096774193548,1.4258064516129,1.4,1.39677419354839,1.41290322580645,1.36129032258065,1.40967741935484,1.43225806451613,1.48064516129032,1.50967741935484,1.46774193548387,1.50967741935484,1.46451612903226,1.43548387096774,1.43548387096774,1.36451612903226,1.37741935483871,1.32903225806452,1.32903225806452,1.36774193548387,1.33225806451613,1.38064516129032,1.31935483870968,1.2,1.16129032258065,1.47096774193548,2.35483870967742,3.07096774193548,2.93225806451613,2.05161290322581,1.26129032258065,1.11290322580645,1.14193548387097,1.16774193548387,1.17096774193548,1.10967741935484,1.14193548387097,1.13870967741935,1.18387096774194,1.23548387096774,1.2,1.23870967741935,1.22258064516129,1.23548387096774,1.29032258064516,1.26774193548387,1.30322580645161,1.28387096774194,1.29032258064516,1.29677419354839,1.25806451612903,1.32903225806452,1.3258064516129,1.37096774193548,1.45806451612903,1.45161290322581,1.49354838709677,1.45483870967742,1.45483870967742,1.45483870967742,1.4,1.4741935483871,1.43548387096774,1.43225806451613,1.48064516129032,1.42903225806452,1.46774193548387,1.41290322580645,1.43225806451613,1.48709677419355,1.4258064516129,1.48709677419355,1.46129032258065,1.46774193548387,1.52258064516129,1.46451612903226,1.51935483870968,1.51290322580645,1.52903225806452,1.54193548387097,1.45161290322581,1.50322580645161,1.45483870967742,1.41290322580645,1.41935483870968,1.34516129032258,1.39354838709677,1.36129032258065,1.34516129032258,1.37741935483871,1.33548387096774,1.34193548387097,1.18387096774194,1.2741935483871,1.98064516129032,2.84516129032258,3.11612903225806,2.39032258064516,1.52903225806452,1.1741935483871,1.09032258064516,1.13870967741935,1.11290322580645,1.10322580645161,1.1258064516129,1.12258064516129,1.19677419354839,1.18064516129032,1.17741935483871,1.19354838709677,1.17096774193548,1.20645161290323,1.17096774193548,1.22258064516129,1.28709677419355,1.22258064516129,1.23870967741935,1.22258064516129,1.22903225806452,1.25483870967742,1.22258064516129,1.27741935483871,1.29677419354839,1.36451612903226,1.40967741935484,1.36129032258065,1.39677419354839,1.36129032258065,1.36451612903226,1.41290322580645,1.3741935483871,1.39354838709677,1.34193548387097,1.34193548387097,1.37741935483871,1.35483870967742,1.40322580645161,1.37096774193548,1.36129032258065,1.4,1.39354838709677,1.43548387096774,1.38064516129032,1.37096774193548,1.4258064516129,1.43225806451613,1.5,1.4741935483871,1.46451612903226,1.47741935483871,1.41612903225806,1.40967741935484,1.35483870967742,1.36129032258065,1.38709677419355,1.3258064516129,1.34516129032258,1.33225806451613,1.36451612903226,1.35806451612903,1.17096774193548,1.21935483870968,1.75483870967742,2.67741935483871,3.14193548387097,2.58387096774194,1.72903225806452,1.23548387096774,1.15806451612903,1.13870967741935,1.05806451612903,1.10645161290323,1.10322580645161,1.10967741935484,1.15161290322581,1.13870967741935,1.18387096774194,1.15483870967742,1.17096774193548,1.20322580645161,1.16774193548387,1.20322580645161,1.19354838709677,1.22258064516129,1.26774193548387,1.22903225806452,1.23870967741935,1.2,1.22258064516129,1.28709677419355,1.28387096774194,1.35483870967742,1.36451612903226,1.38709677419355,1.41290322580645,1.37096774193548,1.40645161290323,1.38387096774194,1.38387096774194,1.37096774193548,1.31935483870968,1.38387096774194,1.3741935483871,1.39032258064516,1.43225806451613,1.38064516129032,1.39677419354839,1.38709677419355,1.39677419354839,1.39677419354839,1.36129032258065,1.41935483870968,1.4258064516129,1.46774193548387,1.51935483870968,1.4741935483871,1.5,1.48387096774194,1.48709677419355,1.48709677419355,1.43225806451613,1.46451612903226,1.43870967741935,1.41290322580645,1.39354838709677,1.35483870967742,1.42258064516129,1.37741935483871,1.23548387096774,1.16774193548387,1.47741935483871,2.38709677419355,3.1,2.92903225806452,2.05806451612903,1.31612903225806,1.18064516129032,1.16774193548387,1.15161290322581,1.15483870967742,1.12258064516129,1.18064516129032,1.16774193548387,1.16774193548387,1.18387096774194,1.16774193548387,1.24516129032258,1.22903225806452,1.22258064516129,1.26451612903226,1.25483870967742,1.29677419354839,1.26774193548387,1.29354838709677,1.32258064516129,1.28064516129032,1.35161290322581,1.38709677419355,1.41935483870968,1.45161290322581,1.45161290322581,1.51935483870968,1.47741935483871,1.46774193548387
1.25806451612903,1.3,1.26774193548387,1.27096774193548,1.3,1.28064516129032,1.29354838709677,1.28387096774194,1.32903225806452,1.4,1.39354838709677,1.37741935483871,1.34838709677419,1.37096774193548,1.37741935483871,1.34193548387097,1.38709677419355,1.41290322580645,1.41290322580645,1.39677419354839,1.3741935483871,1.38064516129032,1.33870967741935,1.36129032258065,1.41290322580645,1.39354838709677,1.38709677419355,1.35161290322581,1.36129032258065,1.39354838709677,1.37741935483871,1.39354838709677,1.39032258064516,1.40967741935484,1.44193548387097,1.44516129032258,1.46451612903226,1.43870967741935,1.44193548387097,1.45806451612903,1.43548387096774,1.43870967741935,1.4,1.38709677419355,1.39032258064516,1.36451612903226,1.36774193548387,1.31612903225806,1.32258064516129,1.38064516129032,1.30967741935484,1.1741935483871,1.26129032258065,1.92903225806452,2.8258064516129,3.0741935483871,2.43870967741935,1.54193548387097,1.15161290322581,1.16774193548387,1.15806451612903,1.13870967741935,1.14193548387097,1.16774193548387,1.16774193548387,1.15161290322581,1.21290322580645,1.23548387096774,1.25161290322581,1.26451612903226,1.23548387096774,1.25483870967742,1.28387096774194,1.31290322580645,1.29677419354839,1.25806451612903,1.3,1.3258064516129,1.34516129032258,1.34193548387097,1.29032258064516,1.32258064516129,1.38064516129032,1.4258064516129,1.43225806451613,1.39677419354839,1.39354838709677,1.37741935483871,1.38387096774194,1.37741935483871,1.35483870967742,1.37741935483871,1.33225806451613,1.33870967741935,1.39677419354839,1.39354838709677,1.39677419354839,1.37096774193548,1.36774193548387,1.39032258064516,1.38387096774194,1.40967741935484,1.38387096774194,1.36774193548387,1.40322580645161,1.43225806451613,1.45806451612903,1.43548387096774,1.45161290322581,1.47096774193548,1.45161290322581,1.48709677419355,1.49032258064516,1.4741935483871,1.41290322580645,1.3258064516129,1.35161290322581,1.3741935483871,1.38387096774194,1.37741935483871,1.33225806451613,1.34193548387097,1.34516129032258,1.28387096774194,1.20967741935484,1.47741935483871,2.31290322580645,3.00645161290323,2.83870967741935,1.96774193548387,1.23548387096774,1.11290322580645,1.1741935483871,1.15161290322581,1.11935483870968,1.1258064516129,1.16774193548387,1.17096774193548,1.19354838709677,1.21612903225806,1.2258064516129,1.26451612903226,1.23225806451613,1.24516129032258,1.29354838709677,1.27741935483871,1.3,1.31290322580645,1.33870967741935,1.33548387096774,1.28064516129032,1.29677419354839,1.31290322580645,1.34193548387097,1.37741935483871,1.37741935483871,1.41290322580645,1.40645161290323,1.39354838709677,1.38709677419355,1.35806451612903,1.3741935483871,1.33548387096774,1.33225806451613,1.38064516129032,1.36774193548387,1.3741935483871,1.37741935483871,1.3741935483871,1.36774193548387,1.3741935483871,1.41612903225806,1.41612903225806,1.4258064516129,1.40967741935484,1.37096774193548,1.39354838709677,1.38064516129032,1.39677419354839,1.42903225806452,1.41935483870968,1.46774193548387,1.48064516129032,1.47096774193548,1.45806451612903,1.41612903225806,1.42258064516129,1.37741935483871,1.32903225806452,1.33548387096774,1.33548387096774,1.34516129032258,1.30967741935484,1.32258064516129,1.33225806451613,1.21290322580645,1.15806451612903,1.44193548387097,2.20967741935484,2.92903225806452,2.83870967741935,2.06129032258065,1.32258064516129,1.1,1.13870967741935,1.1258064516129,1.1258064516129,1.09677419354839,1.09677419354839,1.13225806451613,1.15806451612903,1.22258064516129,1.21612903225806,1.21290322580645,1.24516129032258,1.25483870967742,1.29354838709677,1.29354838709677,1.30645161290323,1.32903225806452,1.31290322580645,1.30967741935484,1.30322580645161,1.34193548387097,1.35483870967742,1.32258064516129,1.36774193548387,1.41290322580645,1.45161290322581,1.46129032258065,1.43870967741935,1.45161290322581,1.40967741935484,1.39677419354839,1.43548387096774,1.43225806451613,1.43870967741935,1.4258064516129,1.43225806451613,1.44193548387097,1.40322580645161,1.4,1.38709677419355,1.41612903225806,1.43548387096774,1.40322580645161,1.41612903225806,1.41935483870968,1.43548387096774,1.42903225806452,1.39032258064516,1.42903225806452,1.44516129032258,1.45161290322581,1.46129032258065,1.44516129032258,1.46451612903226,1.46774193548387,1.46774193548387,1.42903225806452,1.36451612903226,1.3741935483871,1.34838709677419,1.33548387096774,1.35161290322581,1.33548387096774,1.35806451612903,1.28387096774194,1.16774193548387,1.33225806451613,2.01290322580645,2.87741935483871,3.00967741935484,2.26774193548387,1.46774193548387,1.15806451612903,1.16774193548387,1.11612903225806,1.0741935483871,1.09032258064516,1.10967741935484,1.14838709677419,1.10645161290323,1.10645161290323,1.17741935483871,1.20645161290323,1.22258064516129,1.18387096774194,1.2,1.26774193548387,1.26774193548387,1.26774193548387,1.25483870967742,1.26451612903226,1.26451612903226,1.23548387096774,1.26451612903226,1.29032258064516,1.33548387096774,1.35161290322581,1.34838709677419,1.39032258064516,1.36774193548387,1.34516129032258,1.34838709677419,1.34193548387097,1.36774193548387,1.34516129032258,1.33870967741935,1.39032258064516,1.40322580645161,1.40967741935484,1.39032258064516,1.40645161290323,1.42258064516129,1.39354838709677,1.40645161290323,1.38709677419355,1.39677419354839,1.41612903225806,1.39032258064516,1.41290322580645,1.41290322580645,1.42258064516129,1.44838709677419,1.42903225806452,1.4741935483871,1.5,1.48064516129032,1.45483870967742,1.44516129032258,1.48387096774194,1.44193548387097,1.38709677419355,1.3741935483871,1.36129032258065,1.4,1.3741935483871,1.35483870967742,1.39354838709677,1.36129032258065,1.24516129032258,1.20967741935484,1.66774193548387,2.53225806451613,3.08064516129032,2.79354838709677,1.90967741935484,1.29354838709677,1.18387096774194,1.19032258064516,1.18709677419355,1.15806451612903,1.15806451612903,1.15806451612903,1.14516129032258,1.20967741935484,1.21290322580645,1.19677419354839,1.21935483870968,1.2258064516129,1.27096774193548,1.28064516129032,1.26774193548387,1.25483870967742,1.24516129032258,1.28064516129032,1.27096774193548,1.29677419354839,1.3258064516129,1.3,1.32903225806452,1.35806451612903,1.39354838709677,1.40645161290323,1.3741935483871,1.39677419354839,1.3741935483871,1.34838709677419,1.36451612903226,1.38064516129032,1.40645161290323,1.3741935483871,1.37096774193548,1.41612903225806,1.42258064516129,1.43225806451613,1.40322580645161,1.39677419354839,1.41290322580645,1.40322580645161,1.41935483870968,1.38064516129032,1.35806451612903,1.38709677419355,1.4,1.4258064516129,1.40967741935484,1.43225806451613,1.48064516129032,1.46129032258065,1.45806451612903,1.44516129032258,1.44516129032258,1.44838709677419,1.39677419354839,1.3741935483871,1.35806451612903,1.35806451612903,1.34838709677419,1.31612903225806,1.34838709677419,1.35161290322581,1.30967741935484,1.2,1.18387096774194,1.68709677419355,2.56451612903226,3.08064516129032,2.64193548387097,1.68064516129032,1.16451612903226,1.1,1.13870967741935,1.14516129032258,1.11935483870968,1.14193548387097,1.1258064516129,1.13225806451613,1.18709677419355,1.19032258064516,1.19677419354839,1.19354838709677,1.24193548387097,1.28064516129032,1.24838709677419,1.26774193548387,1.25483870967742,1.26129032258065,1.28064516129032,1.26774193548387,1.29032258064516,1.28709677419355,1.30967741935484,1.36129032258065,1.37096774193548,1.40645161290323,1.40967741935484,1.41612903225806,1.4,1.34838709677419,1.37096774193548,1.36774193548387,1.37096774193548,1.4,1.3741935483871,1.39032258064516,1.39354838709677,1.39354838709677,1.4,1.38709677419355,1.41935483870968,1.41935483870968,1.40967741935484,1.4258064516129,1.41612903225806,1.41290322580645,1.38387096774194,1.4,1.45161290322581,1.46774193548387,1.49354838709677,1.46451612903226,1.46774193548387,1.5,1.46129032258065,1.43225806451613,1.38064516129032,1.36451612903226,1.37096774193548,1.35483870967742,1.38709677419355,1.36129032258065,1.34838709677419,1.38709677419355,1.34838709677419,1.22903225806452,1.20322580645161,1.69677419354839,2.59677419354839,3.06774193548387,2.61935483870968,1.68064516129032,1.18709677419355,1.18387096774194,1.14516129032258,1.09677419354839,1.11290322580645,1.15806451612903,1.16774193548387,1.13548387096774,1.15806451612903,1.16774193548387,1.20322580645161,1.26774193548387,1.26774193548387,1.26129032258065,1.24516129032258,1.2741935483871,1.30967741935484,1.28387096774194,1.30322580645161,1.32258064516129,1.33548387096774,1.31290322580645,1.29032258064516,1.35483870967742,1.37096774193548,1.38064516129032,1.40322580645161,1.36451612903226,1.36774193548387,1.37741935483871,1.40967741935484,1.43548387096774,1.39677419354839,1.38387096774194,1.35483870967742,1.3741935483871,1.41612903225806,1.39032258064516,1.40645161290323,1.41935483870968,1.41290322580645,1.40645161290323,1.40322580645161,1.43225806451613,1.4,1.38387096774194,1.40967741935484,1.40645161290323,1.41612903225806,1.41935483870968,1.47741935483871,1.50645161290323,1.45483870967742,1.45806451612903,1.45161290322581,1.40322580645161,1.35161290322581,1.34193548387097,1.37741935483871,1.35806451612903,1.33548387096774,1.33225806451613,1.33225806451613,1.34516129032258,1.23225806451613,1.18709677419355,1.54838709677419,2.33548387096774,3.02258064516129,2.81290322580645,1.92258064516129,1.26774193548387,1.11612903225806,1.17096774193548,1.13225806451613,1.09354838709677,1.11290322580645,1.11612903225806,1.14838709677419,1.15806451612903,1.1741935483871,1.16774193548387,1.14516129032258,1.24193548387097,1.28064516129032,1.25483870967742,1.24838709677419,1.26451612903226,1.30967741935484,1.29677419354839,1.29677419354839,1.30967741935484,1.28064516129032,1.30322580645161,1.33548387096774,1.39032258064516,1.41290322580645,1.36774193548387,1.39354838709677,1.42903225806452,1.43225806451613,1.4,1.35806451612903,1.39677419354839,1.41290322580645,1.41290322580645,1.39677419354839,1.35806451612903,1.38709677419355,1.39032258064516,1.39032258064516,1.41612903225806,1.41935483870968,1.4258064516129,1.39032258064516,1.41290322580645,1.43548387096774,1.39032258064516,1.41290322580645,1.42258064516129,1.42903225806452,1.45161290322581,1.45483870967742,1.48709677419355,1.48064516129032,1.47741935483871,1.48064516129032,1.43225806451613,1.40645161290323,1.37096774193548,1.38387096774194,1.38064516129032,1.32903225806452,1.33870967741935,1.33548387096774,1.34193548387097,1.30967741935484,1.18064516129032,1.36451612903226,2.06451612903226,2.90645161290323,3.04838709677419,2.28064516129032,1.47096774193548,1.14193548387097,1.14838709677419,1.18064516129032,1.13548387096774,1.13225806451613,1.1258064516129,1.14516129032258,1.18709677419355,1.19677419354839,1.23225806451613,1.20322580645161,1.19032258064516,1.25483870967742,1.3,1.32903225806452,1.27096774193548,1.24516129032258,1.29032258064516,1.30322580645161,1.3258064516129,1.30967741935484,1.31290322580645,1.34193548387097,1.34516129032258,1.39677419354839,1.41612903225806,1.41290322580645,1.39032258064516,1.35161290322581,1.38064516129032,1.36451612903226,1.34838709677419,1.35483870967742,1.33870967741935,1.36774193548387,1.34838709677419,1.36129032258065,1.40967741935484,1.4,1.41290322580645,1.39354838709677,1.38387096774194,1.38709677419355,1.35806451612903,1.37741935483871,1.3741935483871,1.39354838709677,1.42903225806452,1.40645161290323,1.43548387096774,1.46451612903226,1.47741935483871,1.46129032258065,1.40967741935484,1.43870967741935,1.42258064516129,1.36129032258065,1.33548387096774,1.3258064516129,1.34838709677419,1.31290322580645,1.30322580645161,1.35161290322581,1.34838709677419,1.29677419354839,1.16451612903226,1.33548387096774,2.10645161290323,2.93225806451613,3.00322580645161,2.18709677419355,1.39032258064516,1.15483870967742,1.14193548387097,1.13870967741935,1.11612903225806,1.14516129032258,1.15483870967742,1.12903225806452,1.18064516129032,1.19032258064516,1.19032258064516,1.23870967741935,1.25806451612903,1.27741935483871,1.24838709677419,1.24516129032258,1.28709677419355,1.29677419354839,1.33225806451613,1.31612903225806,1.31290322580645,1.34193548387097,1.3258064516129,1.35806451612903,1.38064516129032,1.40322580645161,1.41935483870968,1.39032258064516,1.4,1.39032258064516,1.39677419354839,1.40322580645161,1.34516129032258,1.34838709677419,1.33870967741935,1.3258064516129,1.33548387096774,1.34838709677419,1.42258064516129,1.40322580645161,1.37096774193548,1.40645161290323,1.40967741935484,1.39032258064516,1.35161290322581,1.39032258064516,1.44193548387097,1.40322580645161,1.41935483870968,1.43225806451613,1.45806451612903,1.49354838709677,1.4741935483871,1.48064516129032,1.44516129032258,1.40967741935484,1.39677419354839,1.34193548387097,1.35483870967742,1.38064516129032,1.37741935483871,1.35161290322581,1.32258064516129,1.38387096774194,1.35806451612903,1.21612903225806,1.2,1.65161290322581,2.54516129032258,3.06129032258065,2.6741935483871,1.79354838709677,1.20322580645161,1.14516129032258,1.1741935483871,1.14516129032258,1.14516129032258,1.15161290322581,1.18709677419355,1.18387096774194,1.19032258064516,1.21612903225806,1.20967741935484,1.23548387096774,1.23548387096774,1.26451612903226,1.30645161290323,1.28709677419355,1.29677419354839,1.28709677419355,1.28709677419355,1.30645161290323,1.26774193548387,1.27741935483871,1.30645161290323,1.36451612903226,1.40967741935484,1.37741935483871,1.40322580645161,1.42258064516129,1.40645161290323,1.38387096774194,1.35483870967742,1.3741935483871,1.37741935483871,1.39354838709677,1.4,1.36129032258065,1.4,1.40322580645161,1.38709677419355,1.40645161290323,1.39677419354839,1.40967741935484,1.38709677419355,1.37741935483871,1.40645161290323,1.40645161290323,1.40645161290323,1.39032258064516,1.42258064516129,1.47741935483871,1.46451612903226,1.49677419354839,1.49677419354839,1.46129032258065,1.42903225806452,1.39032258064516,1.39354838709677,1.34516129032258,1.30645161290323,1.34838709677419,1.3741935483871,1.40322580645161,1.38709677419355,1.31290322580645,1.18387096774194,1.21612903225806,1.80967741935484,2.67741935483871,3.0741935483871,2.56774193548387,1.66451612903226,1.22903225806452,1.17096774193548,1.12258064516129,1.06774193548387,1.05483870967742,1.13870967741935,1.16774193548387,1.15483870967742,1.16451612903226,1.1741935483871,1.22903225806452,1.24516129032258,1.23225806451613,1.22903225806452,1.22258064516129,1.26451612903226,1.26774193548387,1.28064516129032,1.30645161290323,1.26451612903226,1.28709677419355,1.32258064516129,1.34193548387097,1.34838709677419,1.33548387096774,1.4,1.41935483870968,1.38709677419355,1.36774193548387,1.36129032258065,1.39354838709677,1.35806451612903,1.34193548387097,1.3741935483871,1.35161290322581,1.36774193548387,1.37741935483871,1.37096774193548,1.38387096774194,1.39677419354839,1.43548387096774,1.41612903225806,1.40322580645161,1.40645161290323,1.36451612903226,1.39677419354839,1.4258064516129,1.43225806451613,1.47096774193548,1.48709677419355,1.49677419354839,1.46451612903226,1.47741935483871,1.51612903225806,1.4741935483871,1.45806451612903,1.42258064516129,1.39354838709677,1.40967741935484,1.38387096774194,1.36129032258065,1.3258064516129,1.33870967741935,1.36451612903226,1.27741935483871,1.18387096774194,1.34193548387097,2.06451612903226,2.94838709677419,3.04193548387097,2.28064516129032,1.43548387096774,1.13870967741935,1.16774193548387,1.12903225806452,1.1,1.09032258064516,1.13225806451613,1.20322580645161,1.21290322580645,1.23548387096774,1.23548387096774,1.25483870967742,1.27096774193548,1.23225806451613,1.26774193548387,1.30967741935484,1.32258064516129,1.3,1.24516129032258,1.26451612903226,1.25161290322581,1.24516129032258,1.29032258064516,1.3,1.32903225806452,1.33548387096774,1.34838709677419,1.37741935483871,1.35161290322581,1.33870967741935,1.30645161290323,1.30645161290323,1.33225806451613,1.31290322580645,1.33548387096774,1.36451612903226,1.38709677419355,1.38064516129032,1.33548387096774,1.3741935483871,1.38387096774194,1.36451612903226,1.37741935483871,1.37096774193548,1.38387096774194,1.38387096774194,1.41935483870968,1.43870967741935,1.38064516129032,1.38387096774194,1.39032258064516,1.44193548387097,1.49032258064516,1.45161290322581,1.45161290322581,1.44516129032258,1.45161290322581,1.46129032258065,1.38709677419355,1.35483870967742,1.35483870967742,1.36451612903226,1.35806451612903,1.30967741935484,1.35483870967742,1.38387096774194,1.29354838709677,1.1741935483871,1.3741935483871,2.1741935483871,2.98064516129032,3.01290322580645,2.23548387096774,1.39354838709677,1.1258064516129,1.16451612903226,1.18709677419355,1.15161290322581,1.11290322580645,1.16129032258065,1.15806451612903,1.18064516129032,1.23548387096774,1.19032258064516,1.20645161290323,1.23870967741935,1.23225806451613,1.22903225806452,1.24838709677419,1.3258064516129,1.31612903225806,1.27741935483871,1.30322580645161,1.3,1.29032258064516,1.26774193548387,1.31290322580645,1.39677419354839,1.4,1.41935483870968,1.4,1.3741935483871,1.37741935483871,1.34516129032258,1.3741935483871,1.40322580645161,1.39677419354839,1.39032258064516,1.38387096774194,1.41935483870968,1.41612903225806,1.41290322580645,1.40645161290323,1.3741935483871,1.40645161290323,1.40967741935484,1.40645161290323,1.41612903225806,1.38064516129032,1.4,1.43870967741935,1.47096774193548,1.47096774193548,1.41612903225806,1.44838709677419,1.49354838709677,1.49354838709677,1.4741935483871,1.44516129032258,1.4741935483871,1.42258064516129,1.3741935483871,1.39677419354839,1.4,1.40645161290323,1.34516129032258,1.3258064516129,1.38709677419355,1.34193548387097,1.2258064516129,1.24516129032258,1.78709677419355,2.70967741935484,3.08387096774194,2.5258064516129,1.61290322580645,1.13548387096774,1.11612903225806,1.15161290322581,1.15161290322581,1.10322580645161,1.11612903225806,1.16451612903226,1.15161290322581,1.18064516129032,1.19032258064516,1.20645161290323,1.25806451612903,1.24193548387097,1.25161290322581,1.25483870967742,1.26129032258065,1.26774193548387,1.24838709677419,1.30322580645161,1.30967741935484,1.29354838709677,1.29677419354839,1.28387096774194,1.33225806451613,1.35806451612903,1.38064516129032,1.42258064516129,1.39677419354839,1.40322580645161,1.39677419354839,1.38387096774194,1.40322580645161,1.38064516129032,1.38387096774194,1.38387096774194,1.39032258064516,1.40967741935484,1.39032258064516,1.40322580645161,1.40322580645161,1.40967741935484,1.41612903225806,1.38709677419355,1.4258064516129,1.43548387096774,1.42903225806452,1.44516129032258,1.42903225806452,1.45483870967742,1.44193548387097,1.44516129032258,1.48709677419355,1.45806451612903,1.45483870967742,1.43870967741935,1.40322580645161,1.38709677419355,1.35161290322581,1.35483870967742,1.3258064516129,1.3,1.32258064516129,1.33870967741935,1.33548387096774,1.21290322580645,1.14516129032258,1.39032258064516,2.04193548387097,2.86129032258065,2.99032258064516,2.26451612903226,1.4741935483871,1.1258064516129,1.12258064516129,1.12903225806452,1.10967741935484,1.10967741935484,1.08709677419355,1.12258064516129,1.14516129032258,1.15806451612903,1.1741935483871,1.19032258064516,1.24516129032258,1.22903225806452,1.24516129032258,1.30645161290323,1.2741935483871,1.25806451612903,1.25161290322581,1.29354838709677,1.3258064516129,1.25806451612903,1.24838709677419,1.28387096774194,1.33548387096774,1.37741935483871,1.36774193548387,1.40645161290323,1.41290322580645,1.38709677419355,1.39354838709677,1.39677419354839,1.43225806451613,1.39032258064516,1.33225806451613,1.36129032258065,1.38709677419355,1.43225806451613,1.42258064516129,1.39677419354839,1.40322580645161,1.38064516129032,1.40645161290323,1.4,1.38387096774194,1.40645161290323,1.39677419354839,1.41935483870968,1.41612903225806,1.42903225806452,1.47096774193548,1.46451612903226,1.48387096774194,1.45806451612903,1.45161290322581,1.48387096774194,1.44193548387097,1.41290322580645,1.38709677419355,1.39032258064516,1.40967741935484,1.35161290322581,1.33548387096774,1.32903225806452,1.34838709677419,1.34193548387097,1.19677419354839,1.17741935483871,1.59677419354839,2.44516129032258,3.06451612903226,2.7741935483871,1.94516129032258,1.31612903225806,1.13870967741935,1.14193548387097,1.09677419354839,1.11612903225806,1.14838709677419,1.16774193548387,1.18709677419355,1.16129032258065,1.18709677419355,1.21290322580645,1.25806451612903,1.29354838709677,1.26451612903226,1.27741935483871,1.25806451612903,1.25483870967742,1.29032258064516,1.27096774193548,1.28709677419355,1.28709677419355,1.28709677419355,1.33548387096774,1.35806451612903,1.40645161290323,1.42258064516129,1.42258064516129,1.43225806451613,1.4,1.41290322580645,1.40645161290323,1.41612903225806,1.46451612903226,1.47096774193548,1.5,1.49032258064516,1.4741935483871,1.49032258064516
1.37096774193548,1.39354838709677,1.36451612903226,1.34193548387097,1.38064516129032,1.36451612903226,1.38064516129032,1.38709677419355,1.4,1.41290322580645,1.37741935483871,1.4,1.40322580645161,1.39677419354839,1.44516129032258,1.47096774193548,1.49354838709677,1.44516129032258,1.41612903225806,1.44838709677419,1.40322580645161,1.37741935483871,1.34838709677419,1.34516129032258,1.3741935483871,1.33548387096774,1.31612903225806,1.3258064516129,1.35483870967742,1.32258064516129,1.18709677419355,1.31935483870968,1.95806451612903,2.8258064516129,3.11612903225806,2.43548387096774,1.56774193548387,1.17741935483871,1.16129032258065,1.17096774193548,1.10967741935484,1.14838709677419,1.18387096774194,1.15483870967742,1.16774193548387,1.19677419354839,1.24193548387097,1.23548387096774,1.24193548387097,1.26451612903226,1.23548387096774,1.26451612903226,1.28387096774194,1.28064516129032,1.29032258064516,1.27096774193548,1.30645161290323,1.30645161290323,1.29032258064516,1.32258064516129,1.34193548387097,1.39677419354839,1.41290322580645,1.40322580645161,1.41290322580645,1.4,1.43225806451613,1.40322580645161,1.36129032258065,1.3741935483871,1.36774193548387,1.39677419354839,1.39354838709677,1.38709677419355,1.39677419354839,1.36129032258065,1.38064516129032,1.38387096774194,1.36451612903226,1.36774193548387,1.36129032258065,1.39677419354839,1.3741935483871,1.34838709677419,1.38709677419355,1.38709677419355,1.38387096774194,1.36129032258065,1.40967741935484,1.49032258064516,1.46451612903226,1.4258064516129,1.38064516129032,1.37741935483871,1.40967741935484,1.37096774193548,1.33548387096774,1.29354838709677,1.27741935483871,1.28709677419355,1.27096774193548,1.31290322580645,1.34193548387097,1.29354838709677,1.17741935483871,1.23225806451613,1.88064516129032,2.76451612903226,3.02903225806452,2.4,1.51290322580645,1.13548387096774,1.11290322580645,1.12258064516129,1.13548387096774,1.13548387096774,1.16774193548387,1.16451612903226,1.17741935483871,1.21290322580645,1.19032258064516,1.20967741935484,1.24193548387097,1.26774193548387,1.29354838709677,1.26774193548387,1.30322580645161,1.3258064516129,1.32258064516129,1.32903225806452,1.30645161290323,1.32258064516129,1.33870967741935,1.36451612903226,1.40967741935484,1.41935483870968,1.44838709677419,1.4258064516129,1.38709677419355,1.41935483870968,1.43870967741935,1.46451612903226,1.4258064516129,1.38064516129032,1.41290322580645,1.41935483870968,1.43548387096774,1.42258064516129,1.41612903225806,1.43225806451613,1.40322580645161,1.41290322580645,1.41290322580645,1.4258064516129,1.45806451612903,1.40322580645161,1.40645161290323,1.43548387096774,1.45806451612903,1.45483870967742,1.4,1.44193548387097,1.46774193548387,1.44516129032258,1.46451612903226,1.44838709677419,1.43548387096774,1.39677419354839,1.35483870967742,1.34838709677419,1.3258064516129,1.33870967741935,1.30322580645161,1.29354838709677,1.36774193548387,1.34193548387097,1.23548387096774,1.13548387096774,1.39032258064516,2.16451612903226,2.90645161290323,2.9258064516129,2.12258064516129,1.34516129032258,1.13548387096774,1.13225806451613,1.11612903225806,1.08709677419355,1.12258064516129,1.19354838709677,1.16129032258065,1.14516129032258,1.15483870967742,1.19032258064516,1.22903225806452,1.22258064516129,1.24838709677419,1.24516129032258,1.25483870967742,1.3,1.26774193548387,1.26774193548387,1.29032258064516,1.30645161290323,1.29677419354839,1.24838709677419,1.29032258064516,1.34516129032258,1.36129032258065,1.37741935483871,1.37741935483871,1.43225806451613,1.4258064516129,1.37741935483871,1.38387096774194,1.35806451612903,1.36451612903226,1.39354838709677,1.40645161290323,1.40967741935484,1.3741935483871,1.39032258064516,1.40967741935484,1.42903225806452,1.44516129032258,1.40645161290323,1.40967741935484,1.40645161290323,1.41935483870968,1.45806451612903,1.41935483870968,1.41290322580645,1.44193548387097,1.48064516129032,1.50645161290323,1.45806451612903,1.46774193548387,1.47741935483871,1.44838709677419,1.41290322580645,1.35483870967742,1.38387096774194,1.4,1.37096774193548,1.34516129032258,1.29354838709677,1.33870967741935,1.37096774193548,1.28064516129032,1.1741935483871,1.34193548387097,2.09354838709677,2.93225806451613,3.04193548387097,2.33225806451613,1.49032258064516,1.17096774193548,1.14838709677419,1.12903225806452,1.12903225806452,1.10645161290323,1.12258064516129,1.14193548387097,1.18064516129032,1.2258064516129,1.2,1.22258064516129,1.23870967741935,1.24516129032258,1.26451612903226,1.22258064516129,1.24838709677419,1.28709677419355,1.30322580645161,1.3,1.26774193548387,1.30967741935484,1.30322580645161,1.28709677419355,1.34516129032258,1.35483870967742,1.36774193548387,1.36451612903226,1.37096774193548,1.4,1.36774193548387,1.38064516129032,1.38709677419355,1.36774193548387,1.35806451612903,1.34193548387097,1.3741935483871,1.38387096774194,1.39677419354839,1.43225806451613,1.39032258064516,1.37741935483871,1.39677419354839,1.42258064516129,1.43225806451613,1.39032258064516,1.39354838709677,1.37741935483871,1.38387096774194,1.42903225806452,1.4258064516129,1.45161290322581,1.45806451612903,1.45483870967742,1.46129032258065,1.42903225806452,1.44516129032258,1.4258064516129,1.36451612903226,1.35483870967742,1.33870967741935,1.34838709677419,1.32258064516129,1.30967741935484,1.36451612903226,1.35161290322581,1.26451612903226,1.14193548387097,1.37096774193548,2.15161290322581,2.94193548387097,3.02258064516129,2.25483870967742,1.43548387096774,1.15483870967742,1.13225806451613,1.15483870967742,1.14516129032258,1.11935483870968,1.13548387096774,1.14838709677419,1.20967741935484,1.23225806451613,1.20967741935484,1.24193548387097,1.2741935483871,1.29677419354839,1.26451612903226,1.26451612903226,1.33225806451613,1.3258064516129,1.33870967741935,1.31935483870968,1.28064516129032,1.29677419354839,1.3,1.35806451612903,1.38709677419355,1.38387096774194,1.42258064516129,1.41612903225806,1.4,1.37096774193548,1.36774193548387,1.40645161290323,1.37096774193548,1.36129032258065,1.36774193548387,1.39677419354839,1.43870967741935,1.38709677419355,1.38387096774194,1.41612903225806,1.41612903225806,1.40967741935484,1.38064516129032,1.40645161290323,1.39354838709677,1.34516129032258,1.36129032258065,1.39032258064516,1.40967741935484,1.38709677419355,1.40967741935484,1.46451612903226,1.4258064516129,1.42258064516129,1.44193548387097,1.45483870967742,1.46129032258065,1.4,1.39032258064516,1.38387096774194,1.36774193548387,1.35806451612903,1.29354838709677,1.30645161290323,1.33870967741935,1.34838709677419,1.31935483870968,1.17096774193548,1.1741935483871,1.61935483870968,2.48387096774194,3.10645161290323,2.74516129032258,1.83225806451613,1.21612903225806,1.10645161290323,1.15161290322581,1.08709677419355,1.06129032258065,1.08064516129032,1.11935483870968,1.17741935483871,1.17096774193548,1.19677419354839,1.21290322580645,1.20322580645161,1.21612903225806,1.21290322580645,1.25806451612903,1.25806451612903,1.22903225806452,1.26774193548387,1.29354838709677,1.32258064516129,1.30322580645161,1.30322580645161,1.34193548387097,1.30645161290323,1.35161290322581,1.42258064516129,1.41935483870968,1.38387096774194,1.35161290322581,1.39677419354839,1.40967741935484,1.39032258064516,1.41612903225806,1.39677419354839,1.38709677419355,1.37741935483871,1.39354838709677,1.43548387096774,1.39677419354839,1.38387096774194,1.40967741935484,1.43548387096774,1.43870967741935,1.39677419354839,1.42258064516129,1.40967741935484,1.38387096774194,1.43870967741935,1.44516129032258,1.44516129032258,1.45806451612903,1.49354838709677,1.52258064516129,1.46774193548387,1.44516129032258,1.43548387096774,1.40967741935484,1.40322580645161,1.37096774193548,1.38387096774194,1.37741935483871,1.35806451612903,1.36451612903226,1.33870967741935,1.34838709677419,1.24193548387097,1.16129032258065,1.6,2.48387096774194,3.1,2.72258064516129,1.73870967741935,1.15161290322581,1.06774193548387,1.13225806451613,1.13548387096774,1.12258064516129,1.12903225806452,1.1,1.13870967741935,1.17096774193548,1.17096774193548,1.19032258064516,1.18064516129032,1.23225806451613,1.2741935483871,1.26129032258065,1.27096774193548,1.26451612903226,1.30967741935484,1.30645161290323,1.26774193548387,1.29677419354839,1.31612903225806,1.35483870967742,1.36451612903226,1.38387096774194,1.44516129032258,1.42903225806452,1.42258064516129,1.43870967741935,1.4258064516129,1.39677419354839,1.34193548387097,1.36129032258065,1.41290322580645,1.43548387096774,1.43870967741935,1.40322580645161,1.42258064516129,1.43870967741935,1.43225806451613,1.44838709677419,1.41612903225806,1.4258064516129,1.43225806451613,1.41935483870968,1.43870967741935,1.41935483870968,1.4258064516129,1.43548387096774,1.47096774193548,1.55161290322581,1.54193548387097,1.50322580645161,1.45161290322581,1.4258064516129,1.41935483870968,1.35161290322581,1.33548387096774,1.35161290322581,1.3741935483871,1.39677419354839,1.34516129032258,1.35483870967742,1.36451612903226,1.28064516129032,1.18709677419355,1.31290322580645,1.98064516129032,2.81935483870968,3.03870967741935,2.39677419354839,1.53870967741935,1.18064516129032,1.1741935483871,1.18387096774194,1.1741935483871,1.14193548387097,1.17741935483871,1.20645161290323,1.18064516129032,1.19677419354839,1.2,1.2258064516129,1.23870967741935,1.22903225806452,1.25483870967742,1.24516129032258,1.26451612903226,1.27741935483871,1.27096774193548,1.26129032258065,1.21290322580645,1.24516129032258,1.28387096774194,1.28064516129032,1.28709677419355,1.28064516129032,1.33870967741935,1.35806451612903,1.33870967741935,1.35483870967742,1.33225806451613,1.3258064516129,1.32258064516129,1.3,1.31290322580645,1.31612903225806,1.35483870967742,1.34516129032258,1.3258064516129,1.37096774193548,1.37741935483871,1.38709677419355,1.38064516129032,1.36129032258065,1.35806451612903,1.32903225806452,1.3741935483871,1.41290322580645,1.41290322580645,1.43225806451613,1.42903225806452,1.47741935483871,1.48709677419355,1.44193548387097,1.42903225806452,1.39677419354839,1.39677419354839,1.37096774193548,1.35161290322581,1.38064516129032,1.3741935483871,1.38387096774194,1.35161290322581,1.32258064516129,1.34193548387097,1.24516129032258,1.16129032258065,1.40967741935484,2.15483870967742,2.96129032258065,2.98387096774194,2.24516129032258,1.47741935483871,1.16774193548387,1.18064516129032,1.15483870967742,1.13548387096774,1.14838709677419,1.17096774193548,1.18387096774194,1.1258064516129,1.15161290322581,1.20967741935484,1.21612903225806,1.23225806451613,1.24838709677419,1.30967741935484,1.33548387096774,1.31290322580645,1.30645161290323,1.27741935483871,1.29354838709677,1.29354838709677,1.2741935483871,1.3258064516129,1.35161290322581,1.39032258064516,1.40322580645161,1.39032258064516,1.40645161290323,1.3741935483871,1.3741935483871,1.38709677419355,1.4,1.4258064516129,1.39032258064516,1.39032258064516,1.39354838709677,1.36129032258065,1.36451612903226,1.36774193548387,1.40322580645161,1.40322580645161,1.4,1.40967741935484,1.36451612903226,1.37741935483871,1.40645161290323,1.40967741935484,1.43870967741935,1.40322580645161,1.41290322580645,1.46129032258065,1.47096774193548,1.47096774193548,1.4258064516129,1.44193548387097,1.48709677419355,1.50322580645161,1.48064516129032,1.4,1.37741935483871,1.38387096774194,1.38387096774194,1.39032258064516,1.34193548387097,1.35483870967742,1.37096774193548,1.28709677419355,1.22258064516129,1.42903225806452,2.19032258064516,3.00645161290323,3.00967741935484,2.2,1.39032258064516,1.15806451612903,1.18387096774194,1.15161290322581,1.12903225806452,1.11290322580645,1.15161290322581,1.18387096774194,1.18064516129032,1.18387096774194,1.16774193548387,1.22258064516129,1.24193548387097,1.21935483870968,1.26774193548387,1.26774193548387,1.26774193548387,1.26774193548387,1.26451612903226,1.30967741935484,1.29677419354839,1.28387096774194,1.30967741935484,1.36129032258065,1.4,1.35806451612903,1.36774193548387,1.40967741935484,1.41290322580645,1.37741935483871,1.31935483870968,1.3741935483871,1.42258064516129,1.38709677419355,1.36774193548387,1.34193548387097,1.3741935483871,1.39354838709677,1.36451612903226,1.36451612903226,1.34838709677419,1.37096774193548,1.39032258064516,1.37741935483871,1.4,1.39677419354839,1.40967741935484,1.41290322580645,1.38387096774194,1.39032258064516,1.39677419354839,1.47096774193548,1.5,1.45161290322581,1.44193548387097,1.42258064516129,1.43548387096774,1.41935483870968,1.35483870967742,1.32903225806452,1.31935483870968,1.35161290322581,1.35806451612903,1.33870967741935,1.36774193548387,1.33225806451613,1.23225806451613,1.19677419354839,1.6,2.48387096774194,3.07096774193548,2.76129032258065,1.84838709677419,1.25161290322581,1.2,1.2,1.15806451612903,1.13225806451613,1.13548387096774,1.18387096774194,1.16451612903226,1.18064516129032,1.20645161290323,1.21612903225806,1.25161290322581,1.22903225806452,1.23225806451613,1.25806451612903,1.29032258064516,1.33548387096774,1.30967741935484,1.30645161290323,1.30645161290323,1.29354838709677,1.31935483870968,1.31290322580645,1.33548387096774,1.35806451612903,1.37096774193548,1.41935483870968,1.40322580645161,1.39677419354839,1.38064516129032,1.34838709677419,1.34838709677419,1.33225806451613,1.36129032258065,1.36129032258065,1.33548387096774,1.35161290322581,1.3258064516129,1.34193548387097,1.35483870967742,1.3258064516129,1.34838709677419,1.36451612903226,1.38064516129032,1.35806451612903,1.35806451612903,1.41612903225806,1.37741935483871,1.36774193548387,1.41935483870968,1.44516129032258,1.47096774193548,1.43548387096774,1.44193548387097,1.46774193548387,1.46451612903226,1.45806451612903,1.3741935483871,1.34193548387097,1.3741935483871,1.38709677419355,1.36129032258065,1.31290322580645,1.37096774193548,1.3741935483871,1.22903225806452,1.18709677419355,1.50645161290323,2.32903225806452,3.05483870967742,2.90322580645161,2.05483870967742,1.32903225806452,1.15161290322581,1.17741935483871,1.14838709677419,1.13548387096774,1.10967741935484,1.1258064516129,1.18064516129032,1.23225806451613,1.26129032258065,1.22258064516129,1.23870967741935,1.25806451612903,1.22903225806452,1.23870967741935,1.25483870967742,1.30967741935484,1.31290322580645,1.29032258064516,1.32903225806452,1.31290322580645,1.30645161290323,1.30967741935484,1.31935483870968,1.37096774193548,1.37741935483871,1.4,1.40645161290323,1.38387096774194,1.38709677419355,1.35806451612903,1.36774193548387,1.36451612903226,1.33548387096774,1.36129032258065,1.36774193548387,1.3741935483871,1.33870967741935,1.29354838709677,1.33548387096774,1.36451612903226,1.40322580645161,1.4258064516129,1.39354838709677,1.39677419354839,1.38709677419355,1.38709677419355,1.3741935483871,1.3741935483871,1.41935483870968,1.41290322580645,1.45161290322581,1.49677419354839,1.46129032258065,1.44838709677419,1.43548387096774,1.43225806451613,1.39354838709677,1.35483870967742,1.3741935483871,1.35806451612903,1.38709677419355,1.40967741935484,1.3741935483871,1.35806451612903,1.28387096774194,1.2,1.31612903225806,1.93225806451613,2.84838709677419,3.16129032258065,2.55161290322581,1.64516129032258,1.19677419354839,1.2,1.18387096774194,1.1741935483871,1.16774193548387,1.1258064516129,1.16774193548387,1.21290322580645,1.21935483870968,1.2,1.21935483870968,1.28387096774194,1.26774193548387,1.26451612903226,1.2741935483871,1.26451612903226,1.3,1.29032258064516,1.29354838709677,1.29677419354839,1.2741935483871,1.30645161290323,1.33548387096774,1.38064516129032,1.39354838709677,1.37096774193548,1.4,1.39032258064516,1.37741935483871,1.36451612903226,1.33225806451613,1.36129032258065,1.3741935483871,1.39677419354839,1.39032258064516,1.34516129032258,1.37741935483871,1.37096774193548,1.36129032258065,1.36129032258065,1.35806451612903,1.38387096774194,1.36129032258065,1.37741935483871,1.4,1.37741935483871,1.37096774193548,1.36451612903226,1.41290322580645,1.41612903225806,1.3741935483871,1.41935483870968,1.46774193548387,1.47741935483871,1.44516129032258,1.44516129032258,1.49677419354839,1.41935483870968,1.34838709677419,1.35483870967742,1.36129032258065,1.37741935483871,1.35161290322581,1.35483870967742,1.35483870967742,1.35806451612903,1.35161290322581,1.18709677419355,1.20967741935484,1.80322580645161,2.71290322580645,3.13870967741935,2.56129032258065,1.65483870967742,1.2,1.15161290322581,1.18064516129032,1.12903225806452,1.12258064516129,1.13225806451613,1.12903225806452,1.18064516129032,1.18709677419355,1.2,1.20322580645161,1.20645161290323,1.25483870967742,1.24193548387097,1.24838709677419,1.28064516129032,1.27741935483871,1.29677419354839,1.28387096774194,1.30645161290323,1.31935483870968,1.30322580645161,1.32903225806452,1.33225806451613,1.38387096774194,1.41935483870968,1.39354838709677,1.39354838709677,1.34838709677419,1.34193548387097,1.37741935483871,1.38387096774194,1.38709677419355,1.34516129032258,1.36451612903226,1.39677419354839,1.39032258064516,1.40322580645161,1.36451612903226,1.37096774193548,1.38387096774194,1.36451612903226,1.40967741935484,1.40645161290323,1.40322580645161,1.40967741935484,1.39677419354839,1.40967741935484,1.38387096774194,1.41612903225806,1.46129032258065,1.44838709677419,1.48064516129032,1.47741935483871,1.46451612903226,1.44193548387097,1.40967741935484,1.40645161290323,1.34838709677419,1.32903225806452,1.32903225806452,1.31290322580645,1.34193548387097,1.33870967741935,1.35483870967742,1.30322580645161,1.16774193548387,1.3,1.92258064516129,2.78709677419355,3.01935483870968,2.33225806451613,1.50645161290323,1.12258064516129,1.12903225806452,1.1741935483871,1.14516129032258,1.15483870967742,1.13870967741935,1.15483870967742,1.18064516129032,1.18387096774194,1.23548387096774,1.23548387096774,1.23548387096774,1.24838709677419,1.2741935483871,1.3258064516129,1.30967741935484,1.30967741935484,1.32903225806452,1.31290322580645,1.32903225806452,1.31290322580645,1.31935483870968,1.33225806451613,1.32903225806452,1.39677419354839,1.41612903225806,1.4,1.36451612903226,1.34193548387097,1.39032258064516,1.38709677419355,1.38709677419355,1.39032258064516,1.37096774193548,1.39032258064516,1.37096774193548,1.35483870967742,1.35806451612903,1.38064516129032,1.43225806451613,1.41612903225806,1.41290322580645,1.42258064516129,1.39677419354839,1.41612903225806,1.41612903225806,1.42903225806452,1.43548387096774,1.45483870967742,1.50645161290323,1.47741935483871,1.45483870967742,1.47096774193548,1.46129032258065,1.45161290322581,1.38709677419355,1.37096774193548,1.37741935483871,1.34193548387097,1.34193548387097,1.33225806451613,1.36451612903226,1.3741935483871,1.31935483870968,1.24516129032258,1.18387096774194,1.56129032258065,2.4,3.01290322580645,2.78064516129032,1.88709677419355,1.24516129032258,1.12903225806452,1.16451612903226,1.18387096774194,1.13225806451613,1.12903225806452,1.15806451612903,1.13225806451613,1.14838709677419,1.18387096774194,1.21612903225806,1.20322580645161,1.18064516129032,1.25483870967742,1.28709677419355,1.28387096774194,1.26774193548387,1.24838709677419,1.31290322580645,1.31935483870968,1.28064516129032,1.26129032258065,1.2741935483871,1.34838709677419,1.36774193548387,1.38387096774194,1.41290322580645,1.40645161290323,1.41612903225806,1.38387096774194,1.35806451612903,1.33548387096774,1.31612903225806,1.36451612903226,1.37741935483871,1.40645161290323,1.42903225806452,1.38064516129032,1.36774193548387,1.34516129032258,1.37096774193548,1.4258064516129,1.41290322580645,1.40645161290323,1.39677419354839,1.4258064516129,1.45161290322581,1.44193548387097,1.44838709677419,1.43225806451613,1.47096774193548,1.49677419354839,1.47096774193548,1.48709677419355,1.45483870967742,1.40967741935484,1.39032258064516,1.36451612903226,1.38064516129032,1.34193548387097,1.32258064516129,1.35483870967742,1.36129032258065,1.33870967741935,1.16774193548387,1.11935483870968,1.55806451612903,2.40645161290323,3.09354838709677,2.86451612903226,1.99354838709677,1.34193548387097,1.16774193548387,1.2,1.13870967741935,1.0741935483871,1.09677419354839,1.14193548387097,1.20322580645161,1.21612903225806,1.21935483870968,1.19032258064516,1.17096774193548,1.24193548387097,1.26451612903226,1.26451612903226,1.2741935483871,1.26451612903226,1.31935483870968,1.31935483870968,1.30322580645161,1.29677419354839,1.29354838709677,1.35806451612903,1.35806451612903,1.35161290322581,1.40322580645161,1.41612903225806,1.40967741935484,1.37741935483871,1.40322580645161,1.43870967741935,1.4,1.38387096774194,1.38387096774194,1.4,1.41290322580645,1.39677419354839,1.42258064516129,1.4,1.39354838709677,1.42258064516129,1.41935483870968,1.44193548387097,1.42903225806452,1.4258064516129,1.4258064516129,1.39354838709677,1.40645161290323,1.40645161290323,1.45483870967742,1.49032258064516,1.45483870967742,1.45161290322581
