1.2826171875,1.276171875,1.2826171875,1.2826171875,1.2826171875,1.27939453125,1.276171875,1.27294921875,1.276171875,1.276171875,1.26650390625,1.28583984375,1.28583984375,1.27294921875,1.27939453125,1.28583984375,1.2826171875,1.2826171875,1.276171875,1.29228515625,1.28583984375,1.2890625,1.2826171875,1.2890625,1.2826171875,1.2826171875,1.28583984375,1.28583984375,1.2826171875,1.28583984375,1.276171875,1.27939453125,1.276171875,1.276171875,1.29873046875,1.2955078125,1.2955078125,1.2955078125,1.29228515625,1.2955078125,1.29228515625,1.29873046875,1.301953125,1.29873046875,1.3083984375,1.30517578125,1.29228515625,1.2890625,1.2826171875,1.2697265625,1.29228515625,1.2826171875,1.29228515625,1.28583984375,1.28583984375,1.2890625,1.27294921875,1.2955078125,1.3470703125,1.42763671875,1.5984375,1.8626953125,1.78212890625,1.41474609375,1.2697265625,1.25361328125,1.2439453125,1.26005859375,1.2697265625,1.276171875,1.276171875,1.27294921875,1.2890625,1.28583984375,1.2826171875,1.2890625,1.28583984375,1.2890625,1.28583984375,1.2955078125,1.29873046875,1.301953125,1.2955078125,1.29873046875,1.2955078125,1.301953125,1.29873046875,1.2890625,1.31484375,1.30517578125,1.3083984375,1.30517578125,1.30517578125,1.301953125,1.30517578125,1.2890625,1.2955078125,1.29228515625,1.27939453125,1.2697265625,1.26005859375,1.250390625,1.24072265625,1.24716796875,1.250390625,1.250390625,1.26005859375,1.26650390625,1.27294921875,1.27294921875,1.27939453125,1.2826171875,1.2826171875,1.2890625,1.2890625,1.28583984375,1.2826171875,1.28583984375,1.2826171875,1.29228515625,1.28583984375,1.28583984375,1.28583984375,1.29228515625,1.28583984375,1.27939453125,1.29873046875,1.2890625,1.28583984375,1.2955078125,1.2826171875,1.29228515625,1.28583984375,1.2826171875,1.2890625,1.29228515625,1.2890625,1.29228515625,1.29228515625,1.29228515625,1.2890625,1.27939453125,1.301953125,1.28583984375,1.2890625,1.2826171875,1.28583984375,1.2826171875,1.28583984375,1.2826171875,1.2826171875,1.29228515625,1.29228515625,1.28583984375,1.2890625,1.2890625,1.2890625,1.27939453125,1.2955078125,1.2890625,1.28583984375,1.28583984375,1.2890625,1.2890625,1.28583984375,1.2826171875,1.301953125,1.2955078125,1.2890625,1.28583984375,1.2890625,1.29228515625,1.2890625,1.29873046875,1.29228515625,1.30517578125,1.2955078125,1.301953125,1.29228515625,1.30517578125,1.30517578125,1.301953125,1.3083984375,1.31806640625,1.2955078125,1.2890625,1.2890625,1.29228515625,1.28583984375,1.2826171875,1.2955078125,1.28583984375,1.2890625,1.28583984375,1.29228515625,1.276171875,1.33095703125,1.40830078125,1.5533203125,1.8498046875,1.9078125,1.5017578125,1.301953125,1.2375,1.250390625,1.2439453125,1.28583984375,1.28583984375,1.28583984375,1.2826171875,1.28583984375,1.2826171875,1.27939453125,1.2826171875,1.2890625,1.2890625,1.29228515625,1.2890625,1.2890625,1.2890625,1.2826171875,1.301953125,1.29228515625,1.29873046875,1.29873046875,1.30517578125,1.301953125,1.3083984375,1.29873046875,1.327734375,1.31162109375,1.31162109375,1.31162109375,1.3083984375,1.30517578125,1.29873046875,1.2826171875,1.29228515625,1.27294921875,1.26650390625,1.25361328125,1.25361328125,1.250390625,1.24716796875,1.26005859375,1.2697265625,1.2826171875,1.276171875,1.27939453125,1.2826171875,1.28583984375,1.276171875,1.2955078125,1.29228515625,1.2890625,1.2890625,1.2826171875,1.2890625,1.27939453125,1.30517578125,1.2955078125,1.2955078125,1.2890625,1.28583984375,1.31162109375,1.2890625,1.28583984375,1.29873046875,1.29228515625,1.29228515625,1.2890625,1.29228515625,1.29228515625,1.29228515625,1.2697265625,1.2890625,1.27939453125,1.28583984375,1.28583984375,1.28583984375,1.28583984375,1.28583984375,1.276171875,1.29228515625,1.28583984375,1.28583984375,1.27939453125,1.28583984375,1.2826171875,1.28583984375,1.2826171875,1.2826171875,1.27294921875,1.28583984375,1.2826171875,1.27939453125,1.2826171875,1.276171875,1.2826171875,1.2826171875,1.2826171875,1.27294921875,1.2890625,1.2890625,1.2890625,1.2890625,1.29228515625,1.2890625,1.2955078125,1.28583984375,1.2890625,1.30517578125,1.29873046875,1.29873046875,1.2955078125,1.29228515625,1.2955078125,1.301953125,1.28583984375,1.31162109375,1.31484375,1.29873046875,1.28583984375,1.28583984375,1.27939453125,1.28583984375,1.27294921875,1.2890625,1.28583984375,1.28583984375,1.2826171875,1.2826171875,1.27294921875,1.31484375,1.3857421875,1.51142578125,1.7982421875,1.85947265625,1.46630859375,1.25361328125,1.19560546875,1.22138671875,1.2439453125,1.2568359375,1.276171875,1.2826171875,1.2826171875,1.2826171875,1.2826171875,1.28583984375,1.2826171875,1.2697265625,1.29873046875,1.2890625,1.2955078125,1.2955078125,1.2955078125,1.2890625,1.2890625,1.3083984375,1.29873046875,1.30517578125,1.30517578125,1.301953125,1.3083984375,1.31162109375,1.31484375,1.3083984375,1.33095703125,1.32451171875,1.3212890625,1.31484375,1.30517578125,1.301953125,1.29228515625,1.27294921875,1.27294921875,1.26005859375,1.25361328125,1.25361328125,1.2568359375,1.26328125,1.2697265625,1.27294921875,1.27294921875,1.28583984375,1.2955078125,1.29228515625,1.28583984375,1.28583984375,1.29228515625,1.2890625,1.2826171875,1.301953125,1.29228515625,1.2955078125,1.29873046875,1.29873046875,1.2955078125,1.2890625,1.3083984375,1.2955078125,1.29873046875,1.2955078125,1.29873046875,1.2955078125,1.29873046875,1.29228515625,1.301953125,1.301953125,1.2955078125,1.29228515625,1.2890625,1.2890625,1.29228515625,1.2890625,1.28583984375,1.2955078125,1.2955078125,1.29228515625,1.29228515625,1.2890625,1.28583984375,1.29228515625,1.27939453125,1.2955078125,1.28583984375,1.2955078125,1.29228515625,1.29228515625,1.27939453125,1.2955078125,1.29228515625,1.28583984375,1.29228515625,1.2955078125,1.29228515625,1.2890625,1.2826171875,1.3083984375,1.29873046875,1.29228515625,1.2955078125,1.29228515625,1.2955078125,1.29228515625,1.2955078125,1.2955078125,1.301953125,1.30517578125,1.30517578125,1.301953125,1.30517578125,1.2890625,1.30517578125,1.2955078125,1.3083984375,1.301953125,1.30517578125,1.31162109375,1.29873046875,1.2890625,1.2890625,1.29873046875,1.2890625,1.2890625,1.29228515625,1.29228515625,1.2890625,1.29228515625,1.27939453125,1.2890625,1.31162109375,1.38896484375,1.49208984375,1.74345703125,1.82724609375,1.4888671875,1.26005859375,1.21494140625,1.22783203125,1.24072265625,1.26328125,1.276171875,1.27939453125,1.27939453125,1.27294921875,1.2955078125,1.28583984375,1.28583984375,1.2890625,1.29228515625,1.2890625,1.28583984375,1.27939453125,1.301953125,1.29228515625,1.29228515625,1.2955078125,1.29228515625,1.29873046875,1.29873046875,1.2955078125,1.301953125,1.31162109375,1.30517578125,1.31484375,1.3083984375,1.31162109375,1.31484375,1.31162109375,1.301953125,1.29228515625,1.29228515625,1.276171875,1.2697265625,1.26005859375,1.25361328125,1.250390625,1.2568359375,1.25361328125,1.27294921875,1.276171875,1.27939453125,1.276171875,1.2890625,1.27939453125,1.28583984375,1.276171875,1.29873046875,1.2890625,1.2890625,1.2890625,1.2890625,1.2890625,1.29228515625,1.2826171875,1.30517578125,1.2955078125,1.29228515625,1.2955078125,1.29228515625,1.2890625,1.2890625,1.2890625,1.27939453125,1.29228515625,1.2890625,1.29228515625,1.2890625,1.2890625,1.2826171875,1.28583984375,1.27939453125,1.2826171875,1.27939453125,1.29228515625,1.28583984375,1.28583984375,1.28583984375,1.2826171875,1.28583984375,1.2826171875,1.28583984375,1.27294921875,1.29873046875,1.2890625,1.28583984375,1.28583984375,1.28583984375,1.28583984375,1.29228515625,1.2890625,1.29228515625,1.276171875,1.2955078125,1.28583984375,1.29228515625,1.2890625,1.2890625,1.28583984375,1.2890625,1.28583984375,1.2890625,1.2826171875,1.2955078125,1.29228515625,1.2890625,1.29228515625,1.29228515625,1.29873046875,1.29873046875,1.301953125,1.2890625,1.301953125,1.301953125,1.30517578125,1.3083984375,1.30517578125,1.30517578125,1.3212890625,1.301953125,1.2955078125,1.27939453125,1.2955078125,1.29228515625,1.2890625,1.2890625,1.29228515625,1.2890625,1.2890625,1.28583984375,1.276171875,1.31162109375,1.3857421875,1.5017578125,1.766015625,1.88203125,1.5791015625,1.3470703125,1.26328125,1.2568359375,1.250390625,1.2826171875,1.276171875,1.28583984375,1.28583984375,1.28583984375,1.27939453125,1.28583984375,1.28583984375,1.28583984375,1.28583984375,1.28583984375,1.276171875,1.29228515625,1.2890625,1.2826171875,1.2890625,1.29228515625,1.29873046875,1.29873046875,1.301953125,1.29873046875,1.30517578125,1.301953125,1.2955078125,1.31484375,1.30517578125,1.29873046875,1.29873046875,1.2955078125,1.29228515625,1.28583984375,1.276171875,1.2697265625,1.26005859375,1.24716796875,1.2439453125,1.250390625,1.250390625,1.25361328125,1.26328125,1.2697265625,1.27294921875,1.276171875,1.2826171875,1.2826171875,1.276171875,1.29228515625,1.28583984375,1.2890625,1.28583984375,1.2890625,1.28583984375,1.29228515625,1.28583984375,1.27939453125,1.301953125,1.29228515625,1.2890625,1.28583984375,1.29228515625,1.2890625,1.2890625,1.29228515625,1.28583984375,1.2826171875,1.29873046875,1.2890625,1.29228515625,1.28583984375,1.2890625,1.28583984375,1.28583984375,1.2826171875,1.28583984375,1.276171875,1.2955078125,1.2890625,1.2890625,1.2826171875,1.29228515625,1.28583984375,1.2955078125,1.2955078125,1.28583984375,1.2826171875,1.29228515625,1.2955078125,1.29873046875,1.29873046875,1.28583984375,1.301953125,1.28583984375,1.28583984375,1.2890625,1.2890625,1.30517578125,1.29228515625,1.29873046875,1.29873046875,1.30517578125,1.2955078125,1.28583984375,1.29228515625,1.28583984375,1.29228515625,1.3083984375,1.2955078125,1.29873046875,1.29873046875,1.2955078125,1.31162109375,1.29873046875,1.29873046875,1.301953125,1.29228515625,1.32451171875,1.29873046875,1.31162109375,1.30517578125,1.31806640625,1.29873046875,1.2826171875,1.27939453125,1.29873046875,1.2890625,1.2890625,1.29873046875,1.2890625,1.29873046875,1.2697265625,1.276171875,1.276171875,1.36318359375,1.430859375,1.61455078125,1.8755859375,1.78857421875,1.405078125,1.276171875,1.24716796875,1.224609375,1.276171875,1.276171875,1.2826171875,1.2826171875,1.27294921875,1.276171875,1.26650390625,1.276171875,1.276171875,1.2890625,1.29873046875,1.27939453125,1.28583984375,1.2697265625,1.27939453125,1.2890625,1.2826171875,1.27939453125,1.28583984375,1.2955078125,1.2955078125,1.3083984375,1.2890625,1.28583984375,1.301953125,1.2890625,1.30517578125,1.29873046875,1.301953125,1.2890625,1.29228515625,1.2890625,1.27294921875,1.25361328125,1.276171875,1.250390625,1.24716796875,1.2439453125,1.26005859375,1.2568359375,1.27294921875,1.26650390625,1.28583984375,1.276171875,1.28583984375,1.29228515625,1.2890625,1.27939453125,1.2890625,1.276171875,1.2955078125,1.2890625,1.2890625,1.29228515625,1.301953125,1.2890625,1.28583984375,1.30517578125,1.29228515625,1.29873046875,1.29228515625,1.29228515625,1.2955078125,1.29873046875,1.29228515625,1.276171875,1.301953125,1.29873046875,1.29873046875,1.29873046875,1.2955078125,1.29228515625,1.29873046875,1.29228515625,1.2826171875,1.29873046875,1.2890625,1.2890625,1.29228515625,1.29228515625,1.2826171875,1.28583984375,1.3083984375,1.30517578125,1.28583984375,1.29873046875,1.29873046875,1.28583984375,1.29873046875,1.29873046875,1.28583984375,1.31806640625,1.27939453125,1.276171875,1.27939453125,1.28583984375,1.28583984375,1.2826171875,1.2955078125,1.28583984375,1.2890625,1.29228515625,1.2826171875,1.2826171875,1.2890625,1.27939453125,1.28583984375,1.31162109375,1.276171875,1.2890625,1.28583984375,1.2955078125,1.2955078125,1.29228515625,1.301953125,1.2955078125,1.301953125,1.301953125,1.30517578125,1.29873046875,1.3083984375,1.30517578125,1.2890625,1.30517578125,1.27939453125,1.2890625,1.2955078125,1.276171875,1.28583984375,1.301953125,1.2890625,1.2890625,1.28583984375,1.276171875,1.327734375,1.4244140625,1.55654296875,1.817578125,1.894921875,1.48564453125,1.2955078125,1.2375,1.25361328125,1.24072265625,1.26005859375,1.28583984375,1.2890625,1.2826171875,1.26650390625,1.27939453125,1.276171875,1.28583984375,1.276171875,1.2955078125,1.29228515625,1.2890625,1.2826171875,1.29228515625,1.276171875,1.2890625,1.2826171875,1.301953125,1.2890625,1.2955078125,1.29873046875,1.30517578125,1.29873046875,1.29873046875,1.3083984375,1.3083984375,1.31162109375,1.31162109375,1.29873046875,1.31806640625,1.26328125,1.27939453125,1.26005859375,1.2697265625,1.2568359375,1.250390625,1.250390625,1.2439453125,1.26005859375,1.26650390625,1.26328125,1.276171875,1.29228515625,1.28583984375,1.29228515625,1.28583984375,1.2955078125,1.27294921875,1.2955078125,1.2955078125,1.28583984375,1.2890625,1.29228515625,1.2890625,1.2890625,1.27939453125,1.2955078125,1.27939453125,1.29228515625,1.2955078125,1.27939453125,1.2826171875,1.2826171875,1.3083984375,1.2890625,1.2890625,1.26650390625,1.3083984375,1.2697265625,1.27939453125,1.29873046875,1.27939453125,1.28583984375,1.27294921875,1.2890625,1.2826171875,1.28583984375,1.27939453125,1.29228515625,1.28583984375,1.29228515625,1.28583984375,1.2890625,1.28583984375,1.27939453125,1.301953125,1.30517578125,1.301953125,1.276171875,1.2955078125,1.29228515625,1.2890625,1.29228515625,1.29228515625,1.3083984375,1.29228515625,1.2955078125,1.27939453125,1.2890625,1.2826171875,1.29873046875,1.2890625,1.2890625,1.29873046875,1.29228515625,1.2697265625,1.28583984375,1.27939453125,1.2890625,1.29228515625,1.29228515625,1.301953125,1.2890625,1.2955078125,1.29228515625,1.29228515625,1.31484375,1.30517578125,1.30517578125,1.327734375,1.301953125,1.301953125,1.301953125,1.27294921875,1.2890625,1.27294921875,1.30517578125,1.29873046875,1.29873046875,1.29228515625,1.2890625,1.2826171875,1.2955078125,1.33095703125,1.4244140625,1.57265625,1.85625,1.85947265625,1.4244140625,1.22138671875,1.198828125,1.22783203125,1.24716796875,1.26650390625,1.2826171875,1.28583984375,1.2697265625,1.2826171875,1.2826171875,1.29228515625,1.28583984375,1.28583984375,1.29228515625,1.29228515625,1.2826171875,1.2955078125,1.29228515625,1.2955078125,1.29228515625,1.2955078125,1.30517578125,1.3083984375,1.301953125,1.3341796875,1.29873046875,1.2955078125,1.31162109375,1.3083984375,1.31162109375,1.327734375,1.31806640625,1.31806640625,1.3083984375,1.3083984375,1.29228515625,1.2568359375,1.27939453125,1.26005859375,1.25361328125,1.25361328125,1.25361328125,1.2568359375,1.26328125,1.276171875,1.2826171875,1.27939453125,1.29228515625,1.2890625,1.2826171875,1.29228515625,1.29873046875,1.2890625,1.2890625,1.28583984375,1.28583984375,1.301953125,1.31162109375,1.29873046875,1.29873046875,1.3083984375,1.301953125,1.28583984375,1.31484375,1.2826171875,1.29873046875,1.3083984375,1.29228515625,1.29228515625,1.2955078125,1.28583984375,1.30517578125,1.2890625,1.276171875,1.2890625,1.29228515625,1.2890625,1.28583984375,1.28583984375,1.27939453125,1.29873046875,1.2890625,1.29228515625,1.28583984375,1.2890625,1.2955078125,1.27294921875,1.27939453125,1.30517578125,1.29228515625,1.27939453125,1.2826171875,1.29873046875,1.28583984375,1.29873046875,1.2826171875,1.27939453125,1.29228515625,1.29228515625,1.29873046875,1.2890625,1.29873046875,1.29228515625,1.29228515625,1.27939453125,1.29873046875,1.301953125,1.29228515625,1.2890625,1.2955078125,1.28583984375,1.28583984375,1.276171875,1.301953125,1.2890625,1.29228515625,1.301953125,1.27939453125,1.2890625,1.2890625,1.29228515625,1.2955078125,1.301953125,1.30517578125,1.2955078125,1.27939453125,1.28583984375,1.276171875,1.2826171875,1.28583984375,1.2890625,1.2826171875,1.2890625,1.29228515625,1.27939453125,1.2826171875,1.2697265625,1.29228515625,1.37607421875,1.4888671875,1.73056640625,1.843359375,1.51787109375,1.27939453125,1.198828125,1.21171875,1.2375,1.26005859375,1.27294921875,1.276171875,1.27294921875,1.276171875,1.2697265625,1.26328125,1.276171875,1.276171875,1.2826171875,1.276171875,1.2826171875,1.27294921875,1.27939453125,1.2826171875,1.27939453125,1.2955078125,1.29228515625,1.29228515625,1.2955078125,1.29873046875,1.29873046875,1.301953125,1.31162109375,1.29873046875,1.31806640625,1.31162109375,1.31484375,1.3083984375,1.3083984375,1.2955078125,1.29228515625,1.276171875,1.26005859375,1.27294921875,1.26005859375,1.26328125,1.24716796875,1.26328125,1.27294921875,1.27294921875,1.28583984375,1.29228515625,1.2955078125,1.301953125,1.29873046875,1.30517578125,1.301953125,1.3083984375,1.301953125,1.30517578125,1.32451171875,1.327734375,1.31806640625,1.327734375,1.327734375
1.2826171875,1.2826171875,1.27939453125,1.276171875,1.29228515625,1.2826171875,1.2826171875,1.27939453125,1.2826171875,1.2697265625,1.29228515625,1.27939453125,1.2826171875,1.27294921875,1.27939453125,1.27939453125,1.28583984375,1.27294921875,1.301953125,1.28583984375,1.29228515625,1.2890625,1.29228515625,1.2955078125,1.29228515625,1.3083984375,1.31162109375,1.29873046875,1.2826171875,1.276171875,1.2890625,1.2890625,1.2826171875,1.2826171875,1.27939453125,1.28583984375,1.2826171875,1.27939453125,1.276171875,1.276171875,1.3341796875,1.4373046875,1.58232421875,1.90458984375,1.91103515625,1.47275390625,1.2697265625,1.2181640625,1.2375,1.24716796875,1.26650390625,1.26328125,1.27939453125,1.27939453125,1.276171875,1.27294921875,1.27294921875,1.27939453125,1.27939453125,1.276171875,1.2697265625,1.2826171875,1.2826171875,1.276171875,1.2826171875,1.27939453125,1.28583984375,1.276171875,1.301953125,1.29228515625,1.29873046875,1.2955078125,1.2890625,1.31484375,1.301953125,1.301953125,1.301953125,1.29873046875,1.29873046875,1.28583984375,1.29873046875,1.276171875,1.26328125,1.2568359375,1.2375,1.24716796875,1.2439453125,1.24716796875,1.2568359375,1.26005859375,1.25361328125,1.276171875,1.27939453125,1.2826171875,1.27939453125,1.2890625,1.27939453125,1.2890625,1.2890625,1.27939453125,1.29228515625,1.29228515625,1.28583984375,1.301953125,1.29873046875,1.29228515625,1.2955078125,1.2890625,1.29873046875,1.2890625,1.28583984375,1.29873046875,1.301953125,1.29873046875,1.29873046875,1.2955078125,1.2955078125,1.29228515625,1.27939453125,1.301953125,1.29873046875,1.2955078125,1.2955078125,1.2890625,1.2890625,1.27939453125,1.30517578125,1.29228515625,1.28583984375,1.29228515625,1.29228515625,1.2955078125,1.28583984375,1.29228515625,1.28583984375,1.29228515625,1.29228515625,1.2955078125,1.28583984375,1.2955078125,1.2890625,1.2826171875,1.29228515625,1.276171875,1.2826171875,1.29228515625,1.29228515625,1.2890625,1.2955078125,1.29228515625,1.29228515625,1.2955078125,1.2955078125,1.301953125,1.301953125,1.2890625,1.29228515625,1.2955078125,1.301953125,1.2826171875,1.29873046875,1.29873046875,1.2955078125,1.29228515625,1.30517578125,1.2955078125,1.301953125,1.31484375,1.301953125,1.2955078125,1.3083984375,1.3083984375,1.30517578125,1.30517578125,1.327734375,1.32451171875,1.2955078125,1.2955078125,1.29228515625,1.29228515625,1.28583984375,1.29228515625,1.27939453125,1.29873046875,1.29228515625,1.2890625,1.29228515625,1.2826171875,1.2955078125,1.379296875,1.48564453125,1.753125,1.9400390625,1.6822265625,1.31484375,1.18271484375,1.2052734375,1.23427734375,1.25361328125,1.2697265625,1.27939453125,1.27939453125,1.27939453125,1.2826171875,1.2697265625,1.2826171875,1.276171875,1.27294921875,1.27939453125,1.276171875,1.26650390625,1.2890625,1.27939453125,1.276171875,1.2955078125,1.28583984375,1.29228515625,1.29228515625,1.29873046875,1.2955078125,1.29873046875,1.31484375,1.3083984375,1.31484375,1.31484375,1.31162109375,1.31162109375,1.30517578125,1.27939453125,1.301953125,1.276171875,1.2568359375,1.25361328125,1.250390625,1.22783203125,1.250390625,1.24716796875,1.2439453125,1.2697265625,1.276171875,1.276171875,1.2890625,1.27939453125,1.28583984375,1.2890625,1.27939453125,1.2826171875,1.28583984375,1.28583984375,1.2955078125,1.2955078125,1.2890625,1.29873046875,1.301953125,1.2890625,1.29228515625,1.31162109375,1.29228515625,1.301953125,1.29873046875,1.2955078125,1.2955078125,1.3083984375,1.29873046875,1.2826171875,1.29228515625,1.3083984375,1.29228515625,1.29228515625,1.29873046875,1.29873046875,1.2826171875,1.29228515625,1.28583984375,1.29228515625,1.2890625,1.29228515625,1.2890625,1.2890625,1.2890625,1.2890625,1.29873046875,1.2890625,1.2890625,1.29228515625,1.29228515625,1.2890625,1.2890625,1.27939453125,1.2955078125,1.2890625,1.29228515625,1.2955078125,1.2890625,1.2826171875,1.30517578125,1.29873046875,1.301953125,1.301953125,1.2955078125,1.2955078125,1.2890625,1.3083984375,1.3083984375,1.29228515625,1.29873046875,1.2955078125,1.29228515625,1.2955078125,1.27939453125,1.2955078125,1.29873046875,1.29873046875,1.29873046875,1.30517578125,1.29873046875,1.301953125,1.2890625,1.31484375,1.3083984375,1.3083984375,1.31806640625,1.3083984375,1.2890625,1.27939453125,1.2955078125,1.29228515625,1.28583984375,1.28583984375,1.28583984375,1.2826171875,1.2826171875,1.27939453125,1.2826171875,1.2697265625,1.29228515625,1.37607421875,1.49208984375,1.753125,1.87236328125,1.53076171875,1.28583984375,1.19560546875,1.22138671875,1.23427734375,1.26005859375,1.2697265625,1.27294921875,1.27294921875,1.276171875,1.26328125,1.28583984375,1.2826171875,1.2826171875,1.2826171875,1.28583984375,1.2826171875,1.27939453125,1.2890625,1.28583984375,1.276171875,1.30517578125,1.2955078125,1.2890625,1.301953125,1.29873046875,1.301953125,1.30517578125,1.31162109375,1.30517578125,1.327734375,1.31806640625,1.31806640625,1.31484375,1.31162109375,1.301953125,1.2955078125,1.27939453125,1.27294921875,1.250390625,1.26005859375,1.25361328125,1.250390625,1.2568359375,1.26650390625,1.27294921875,1.276171875,1.28583984375,1.28583984375,1.28583984375,1.29873046875,1.29873046875,1.2955078125,1.2955078125,1.29873046875,1.29228515625,1.29873046875,1.2955078125,1.29873046875,1.29228515625,1.31806640625,1.30517578125,1.301953125,1.301953125,1.29873046875,1.29873046875,1.30517578125,1.301953125,1.2890625,1.30517578125,1.30517578125,1.29873046875,1.29873046875,1.29228515625,1.2955078125,1.2890625,1.2955078125,1.29228515625,1.29228515625,1.2826171875,1.29228515625,1.2890625,1.28583984375,1.29228515625,1.2890625,1.29228515625,1.2955078125,1.2890625,1.28583984375,1.28583984375,1.2826171875,1.2955078125,1.2955078125,1.29228515625,1.2890625,1.2890625,1.28583984375,1.28583984375,1.2826171875,1.28583984375,1.276171875,1.2826171875,1.28583984375,1.28583984375,1.2826171875,1.28583984375,1.28583984375,1.28583984375,1.28583984375,1.28583984375,1.2826171875,1.28583984375,1.2826171875,1.2826171875,1.27939453125,1.29228515625,1.27939453125,1.2890625,1.29228515625,1.28583984375,1.2955078125,1.2890625,1.2890625,1.29228515625,1.30517578125,1.29228515625,1.301953125,1.301953125,1.3083984375,1.29228515625,1.2890625,1.28583984375,1.2890625,1.28583984375,1.2890625,1.2890625,1.28583984375,1.2890625,1.28583984375,1.28583984375,1.2697265625,1.3212890625,1.39541015625,1.533984375,1.82724609375,1.87880859375,1.49853515625,1.31484375,1.24072265625,1.2439453125,1.250390625,1.2697265625,1.2697265625,1.27294921875,1.27294921875,1.27939453125,1.2826171875,1.27939453125,1.2826171875,1.28583984375,1.2826171875,1.2826171875,1.27939453125,1.27294921875,1.2826171875,1.28583984375,1.28583984375,1.2826171875,1.2890625,1.29228515625,1.2955078125,1.29873046875,1.301953125,1.30517578125,1.301953125,1.31162109375,1.31484375,1.31162109375,1.31162109375,1.30517578125,1.301953125,1.2890625,1.2826171875,1.276171875,1.26328125,1.26005859375,1.24716796875,1.250390625,1.250390625,1.2568359375,1.26650390625,1.26328125,1.29228515625,1.2890625,1.2826171875,1.29873046875,1.29228515625,1.29228515625,1.2890625,1.29228515625,1.2890625,1.29228515625,1.2890625,1.2890625,1.2955078125,1.29873046875,1.2955078125,1.2955078125,1.2955078125,1.2955078125,1.2955078125,1.28583984375,1.3083984375,1.29228515625,1.29228515625,1.2890625,1.2955078125,1.29228515625,1.29228515625,1.2955078125,1.2955078125,1.2890625,1.2890625,1.2955078125,1.29873046875,1.29228515625,1.29228515625,1.2890625,1.2890625,1.2890625,1.28583984375,1.2826171875,1.2955078125,1.2890625,1.29228515625,1.29228515625,1.29228515625,1.29228515625,1.29228515625,1.29228515625,1.29228515625,1.2826171875,1.29873046875,1.2955078125,1.29228515625,1.2955078125,1.29228515625,1.29228515625,1.2826171875,1.30517578125,1.2890625,1.29228515625,1.2890625,1.2955078125,1.28583984375,1.2890625,1.27939453125,1.29873046875,1.29228515625,1.29228515625,1.29228515625,1.29228515625,1.29228515625,1.2826171875,1.3083984375,1.301953125,1.30517578125,1.29873046875,1.301953125,1.301953125,1.31162109375,1.2955078125,1.32451171875,1.31806640625,1.31484375,1.2955078125,1.29228515625,1.29228515625,1.2890625,1.28583984375,1.276171875,1.2955078125,1.28583984375,1.28583984375,1.28583984375,1.28583984375,1.2697265625,1.30517578125,1.3857421875,1.48564453125,1.77568359375,1.93681640625,1.65,1.353515625,1.24072265625,1.2439453125,1.2375,1.26650390625,1.27294921875,1.276171875,1.27294921875,1.28583984375,1.27939453125,1.27939453125,1.27939453125,1.27939453125,1.27939453125,1.27939453125,1.27939453125,1.27939453125,1.27939453125,1.27294921875,1.28583984375,1.28583984375,1.2826171875,1.28583984375,1.2890625,1.29228515625,1.29873046875,1.29873046875,1.301953125,1.301953125,1.29228515625,1.31484375,1.30517578125,1.29873046875,1.2955078125,1.2826171875,1.276171875,1.26005859375,1.2568359375,1.24716796875,1.2439453125,1.2310546875,1.2568359375,1.250390625,1.26005859375,1.26650390625,1.27294921875,1.27939453125,1.27939453125,1.2826171875,1.28583984375,1.276171875,1.29228515625,1.2890625,1.28583984375,1.29228515625,1.28583984375,1.29228515625,1.2890625,1.29228515625,1.2890625,1.2826171875,1.2955078125,1.29228515625,1.29228515625,1.2890625,1.2890625,1.28583984375,1.28583984375,1.28583984375,1.2890625,1.29228515625,1.29228515625,1.2890625,1.29228515625,1.2890625,1.2890625,1.2890625,1.29228515625,1.28583984375,1.2826171875,1.29228515625,1.29228515625,1.2890625,1.29228515625,1.2890625,1.29228515625,1.2890625,1.2890625,1.28583984375,1.2826171875,1.2890625,1.29228515625,1.2890625,1.2890625,1.2955078125,1.29228515625,1.2890625,1.29228515625,1.2826171875,1.301953125,1.2955078125,1.29228515625,1.29228515625,1.29228515625,1.29228515625,1.2890625,1.2955078125,1.2890625,1.28583984375,1.2955078125,1.29873046875,1.2955078125,1.29228515625,1.29228515625,1.2890625,1.29228515625,1.2955078125,1.2890625,1.31162109375,1.30517578125,1.29873046875,1.301953125,1.301953125,1.3083984375,1.301953125,1.3083984375,1.3083984375,1.3212890625,1.29873046875,1.29228515625,1.28583984375,1.29228515625,1.28583984375,1.2890625,1.28583984375,1.2890625,1.27939453125,1.29873046875,1.29228515625,1.2826171875,1.29228515625,1.3728515625,1.482421875,1.72734375,1.946484375,1.740234375,1.35673828125,1.250390625,1.2375,1.23427734375,1.26328125,1.2697265625,1.276171875,1.276171875,1.276171875,1.27294921875,1.26650390625,1.27939453125,1.27939453125,1.27939453125,1.27939453125,1.276171875,1.27939453125,1.27294921875,1.2697265625,1.29228515625,1.28583984375,1.28583984375,1.29228515625,1.29228515625,1.2955078125,1.29873046875,1.30517578125,1.3083984375,1.29873046875,1.31484375,1.31162109375,1.31162109375,1.30517578125,1.301953125,1.2890625,1.28583984375,1.2697265625,1.25361328125,1.26005859375,1.250390625,1.2439453125,1.24716796875,1.250390625,1.26005859375,1.26650390625,1.276171875,1.27294921875,1.2955078125,1.29228515625,1.2890625,1.2890625,1.29228515625,1.2890625,1.2890625,1.2890625,1.276171875,1.301953125,1.29873046875,1.29873046875,1.29228515625,1.29873046875,1.29228515625,1.29228515625,1.2890625,1.28583984375,1.301953125,1.29228515625,1.29228515625,1.29228515625,1.29228515625,1.2955078125,1.2955078125,1.2955078125,1.2826171875,1.30517578125,1.2890625,1.29228515625,1.29228515625,1.2890625,1.2890625,1.2890625,1.2890625,1.2826171875,1.30517578125,1.29228515625,1.2955078125,1.2890625,1.2955078125,1.29228515625,1.29228515625,1.28583984375,1.2890625,1.2826171875,1.29228515625,1.29228515625,1.29228515625,1.2890625,1.2890625,1.29228515625,1.2890625,1.28583984375,1.28583984375,1.276171875,1.29228515625,1.28583984375,1.2890625,1.2890625,1.28583984375,1.2890625,1.28583984375,1.28583984375,1.276171875,1.30517578125,1.29228515625,1.2955078125,1.29228515625,1.29228515625,1.2890625,1.29228515625,1.29228515625,1.2955078125,1.28583984375,1.29873046875,1.29228515625,1.2955078125,1.29873046875,1.29873046875,1.301953125,1.3083984375,1.31162109375,1.2826171875,1.29873046875,1.28583984375,1.29228515625,1.2826171875,1.28583984375,1.2826171875,1.2826171875,1.27294921875,1.301953125,1.28583984375,1.276171875,1.2826171875,1.3599609375,1.46953125,1.688671875,1.94970703125,1.791796875,1.379296875,1.2439453125,1.23427734375,1.2375,1.26650390625,1.276171875,1.27939453125,1.276171875,1.2697265625,1.2890625,1.2826171875,1.2826171875,1.28583984375,1.28583984375,1.2890625,1.28583984375,1.2890625,1.276171875,1.2955078125,1.29228515625,1.29228515625,1.29228515625,1.2955078125,1.2955078125,1.301953125,1.30517578125,1.2955078125,1.3212890625,1.31162109375,1.31806640625,1.31484375,1.31162109375,1.31162109375,1.31484375,1.301953125,1.2955078125,1.276171875,1.2890625,1.26650390625,1.26005859375,1.250390625,1.250390625,1.25361328125,1.26328125,1.2697265625,1.27294921875,1.28583984375,1.2890625,1.2955078125,1.2890625,1.2890625,1.29228515625,1.2955078125,1.29228515625,1.29228515625,1.28583984375,1.2890625,1.27939453125,1.2890625,1.2826171875,1.28583984375,1.27939453125,1.276171875,1.29228515625,1.2890625,1.28583984375,1.28583984375,1.28583984375,1.28583984375,1.27939453125,1.276171875,1.301953125,1.28583984375,1.276171875,1.2826171875,1.2826171875,1.27939453125,1.2826171875,1.276171875,1.27294921875,1.29228515625,1.28583984375,1.276171875,1.2826171875,1.27939453125,1.28583984375,1.276171875,1.27939453125,1.27939453125,1.2826171875,1.27939453125,1.28583984375,1.27939453125,1.2826171875,1.2826171875,1.27294921875,1.2890625,1.2890625,1.2890625,1.2826171875,1.28583984375,1.29228515625,1.27939453125,1.29873046875,1.2890625,1.2826171875,1.28583984375,1.27939453125,1.27939453125,1.2826171875,1.2826171875,1.2697265625,1.29228515625,1.29228515625,1.28583984375,1.2890625,1.2890625,1.28583984375,1.2826171875,1.276171875,1.29228515625,1.2955078125,1.2955078125,1.29873046875,1.29228515625,1.2955078125,1.2955078125,1.31162109375,1.3083984375,1.31484375,1.31484375,1.31806640625,1.30517578125,1.301953125,1.2890625,1.29873046875,1.2955078125,1.301953125,1.2955078125,1.29873046875,1.29228515625,1.2955078125,1.28583984375,1.2955078125,1.2826171875,1.340625,1.42763671875,1.58876953125,1.894921875,1.9271484375,1.45986328125,1.2375,1.2052734375,1.2375,1.250390625,1.27294921875,1.27939453125,1.2826171875,1.2890625,1.28583984375,1.29228515625,1.28583984375,1.29228515625,1.2955078125,1.2955078125,1.29228515625,1.29228515625,1.2826171875,1.29228515625,1.2890625,1.29228515625,1.29873046875,1.2955078125,1.2890625,1.301953125,1.29228515625,1.3083984375,1.30517578125,1.31162109375,1.31162109375,1.3083984375,1.31162109375,1.30517578125,1.2955078125,1.30517578125,1.29873046875,1.27939453125,1.27294921875,1.2568359375,1.25361328125,1.24072265625,1.2310546875,1.2568359375,1.2568359375,1.26005859375,1.27294921875,1.27939453125,1.2826171875,1.2890625,1.2890625,1.2826171875,1.29873046875,1.29873046875,1.2955078125,1.2955078125,1.29228515625,1.301953125,1.29228515625,1.29873046875,1.29228515625,1.3083984375,1.301953125,1.3083984375,1.29873046875,1.301953125,1.29228515625,1.2890625,1.3083984375,1.30517578125,1.29873046875,1.301953125,1.301953125,1.29873046875,1.29873046875,1.29873046875,1.2890625,1.30517578125,1.29873046875,1.2955078125,1.301953125,1.29873046875,1.2955078125,1.29228515625,1.2890625,1.301953125,1.29873046875,1.29228515625,1.2955078125,1.29228515625,1.29228515625,1.2955078125,1.2890625,1.28583984375,1.29228515625,1.29228515625,1.28583984375,1.2890625,1.2890625,1.2890625,1.29228515625,1.2955078125,1.27939453125,1.29873046875,1.2955078125,1.29228515625,1.28583984375,1.2955078125,1.28583984375,1.29228515625,1.2890625,1.27939453125,1.29228515625,1.29228515625,1.28583984375,1.28583984375,1.28583984375,1.2890625,1.28583984375,1.2826171875,1.27939453125,1.29228515625,1.2955078125,1.29228515625,1.29228515625,1.29228515625,1.2955078125,1.29228515625,1.2890625,1.29873046875,1.301953125,1.30517578125,1.29228515625,1.28583984375,1.276171875,1.2826171875,1.26328125,1.2826171875,1.27939453125,1.276171875,1.27294921875,1.27294921875,1.276171875,1.26328125,1.26005859375,1.31162109375,1.40185546875,1.5404296875,1.83046875,1.85302734375,1.430859375,1.22783203125,1.18271484375,1.20849609375,1.23427734375,1.250390625,1.26005859375,1.26650390625,1.26005859375,1.27294921875,1.2697265625,1.2697265625,1.26650390625,1.27939453125,1.27294921875,1.276171875,1.2697265625,1.276171875,1.27294921875,1.27294921875,1.26650390625,1.28583984375,1.2826171875,1.2826171875
1.27294921875,1.276171875,1.2568359375,1.28583984375,1.27939453125,1.276171875,1.2697265625,1.27939453125,1.27939453125,1.276171875,1.26328125,1.28583984375,1.27939453125,1.27939453125,1.27939453125,1.27939453125,1.2826171875,1.2826171875,1.276171875,1.29228515625,1.2955078125,1.29228515625,1.29228515625,1.2955078125,1.29228515625,1.29228515625,1.29228515625,1.30517578125,1.3083984375,1.31484375,1.30517578125,1.29228515625,1.2890625,1.2826171875,1.27939453125,1.2955078125,1.2890625,1.29228515625,1.29228515625,1.28583984375,1.28583984375,1.27939453125,1.2826171875,1.36962890625,1.46630859375,1.68544921875,1.92392578125,1.753125,1.353515625,1.21171875,1.2052734375,1.2375,1.26005859375,1.2697265625,1.27294921875,1.2826171875,1.27939453125,1.27939453125,1.276171875,1.28583984375,1.2826171875,1.2826171875,1.28583984375,1.2890625,1.2890625,1.28583984375,1.276171875,1.3083984375,1.2890625,1.29228515625,1.2890625,1.29228515625,1.301953125,1.29873046875,1.29228515625,1.31162109375,1.31484375,1.3083984375,1.3083984375,1.3083984375,1.3083984375,1.29228515625,1.31484375,1.2890625,1.27939453125,1.2697265625,1.25361328125,1.250390625,1.2439453125,1.23427734375,1.26328125,1.26005859375,1.26005859375,1.26650390625,1.276171875,1.27939453125,1.27939453125,1.276171875,1.2826171875,1.2890625,1.27939453125,1.2826171875,1.2826171875,1.28583984375,1.28583984375,1.2826171875,1.301953125,1.301953125,1.29873046875,1.2955078125,1.29873046875,1.2955078125,1.2955078125,1.2890625,1.29873046875,1.301953125,1.29873046875,1.29228515625,1.29873046875,1.29228515625,1.2890625,1.28583984375,1.30517578125,1.2890625,1.29228515625,1.28583984375,1.29228515625,1.28583984375,1.29228515625,1.27294921875,1.2955078125,1.28583984375,1.2890625,1.2890625,1.2890625,1.2890625,1.28583984375,1.27939453125,1.27294921875,1.301953125,1.2890625,1.2890625,1.28583984375,1.2890625,1.28583984375,1.2890625,1.28583984375,1.2955078125,1.29873046875,1.2955078125,1.2955078125,1.29228515625,1.2955078125,1.29228515625,1.29228515625,1.28583984375,1.2890625,1.301953125,1.29228515625,1.2890625,1.2890625,1.2955078125,1.28583984375,1.31162109375,1.301953125,1.2955078125,1.29873046875,1.2955078125,1.301953125,1.301953125,1.301953125,1.301953125,1.3212890625,1.29228515625,1.29228515625,1.28583984375,1.29228515625,1.28583984375,1.29228515625,1.27294921875,1.29873046875,1.2955078125,1.2955078125,1.28583984375,1.28583984375,1.32451171875,1.40185546875,1.5146484375,1.791796875,1.817578125,1.42763671875,1.24072265625,1.20849609375,1.23427734375,1.250390625,1.26650390625,1.2826171875,1.2826171875,1.28583984375,1.2826171875,1.28583984375,1.2890625,1.2826171875,1.276171875,1.29873046875,1.28583984375,1.2890625,1.29228515625,1.2890625,1.2890625,1.29228515625,1.2890625,1.28583984375,1.29873046875,1.29873046875,1.301953125,1.30517578125,1.3083984375,1.3083984375,1.31162109375,1.30517578125,1.32451171875,1.31484375,1.31162109375,1.3083984375,1.2955078125,1.2890625,1.2826171875,1.26650390625,1.26650390625,1.26005859375,1.24716796875,1.2568359375,1.26005859375,1.27294921875,1.27294921875,1.27294921875,1.2697265625,1.29873046875,1.2890625,1.29228515625,1.29228515625,1.2955078125,1.29228515625,1.2890625,1.2826171875,1.301953125,1.2955078125,1.2955078125,1.2955078125,1.2955078125,1.29873046875,1.2955078125,1.29873046875,1.2826171875,1.301953125,1.2955078125,1.301953125,1.301953125,1.301953125,1.301953125,1.301953125,1.29228515625,1.2955078125,1.29873046875,1.29228515625,1.2955078125,1.29228515625,1.2955078125,1.29228515625,1.29228515625,1.27939453125,1.301953125,1.29228515625,1.29873046875,1.2890625,1.2955078125,1.2890625,1.2955078125,1.2890625,1.2826171875,1.29228515625,1.29873046875,1.29228515625,1.29228515625,1.29228515625,1.2890625,1.27939453125,1.301953125,1.2890625,1.2890625,1.28583984375,1.2890625,1.2890625,1.2890625,1.29228515625,1.27939453125,1.29873046875,1.29228515625,1.2955078125,1.2890625,1.2955078125,1.2890625,1.2890625,1.2955078125,1.2890625,1.3083984375,1.301953125,1.29228515625,1.2955078125,1.301953125,1.30517578125,1.301953125,1.29873046875,1.31162109375,1.30517578125,1.2955078125,1.2890625,1.28583984375,1.28583984375,1.28583984375,1.28583984375,1.28583984375,1.27939453125,1.2890625,1.28583984375,1.2890625,1.276171875,1.327734375,1.4115234375,1.53076171875,1.8046875,1.82080078125,1.44697265625,1.29228515625,1.24716796875,1.24716796875,1.250390625,1.26650390625,1.276171875,1.276171875,1.276171875,1.27939453125,1.276171875,1.276171875,1.27939453125,1.27939453125,1.27939453125,1.276171875,1.2697265625,1.2826171875,1.28583984375,1.2826171875,1.2826171875,1.28583984375,1.28583984375,1.28583984375,1.29228515625,1.2890625,1.31162109375,1.301953125,1.3083984375,1.3083984375,1.3083984375,1.3083984375,1.30517578125,1.30517578125,1.2890625,1.2955078125,1.28583984375,1.276171875,1.26328125,1.26005859375,1.25361328125,1.2568359375,1.250390625,1.26650390625,1.2697265625,1.2826171875,1.2826171875,1.2890625,1.28583984375,1.2890625,1.2890625,1.28583984375,1.29228515625,1.2955078125,1.29228515625,1.29228515625,1.2955078125,1.2955078125,1.29228515625,1.2890625,1.29228515625,1.29228515625,1.2955078125,1.29228515625,1.2890625,1.28583984375,1.2890625,1.2890625,1.2955078125,1.2826171875,1.30517578125,1.29228515625,1.2955078125,1.2890625,1.2890625,1.2890625,1.2890625,1.29228515625,1.2826171875,1.29228515625,1.2955078125,1.29228515625,1.2890625,1.28583984375,1.2890625,1.2826171875,1.27939453125,1.2890625,1.27294921875,1.2955078125,1.29228515625,1.29228515625,1.2955078125,1.29228515625,1.29228515625,1.29228515625,1.28583984375,1.29228515625,1.2955078125,1.29228515625,1.29228515625,1.2890625,1.2826171875,1.2890625,1.2890625,1.2826171875,1.27939453125,1.29228515625,1.2890625,1.29228515625,1.29228515625,1.29228515625,1.29228515625,1.28583984375,1.27939453125,1.2955078125,1.301953125,1.29228515625,1.30517578125,1.29873046875,1.301953125,1.2955078125,1.301953125,1.30517578125,1.2955078125,1.30517578125,1.31484375,1.29873046875,1.29228515625,1.28583984375,1.2890625,1.28583984375,1.28583984375,1.28583984375,1.2890625,1.2890625,1.28583984375,1.28583984375,1.276171875,1.28583984375,1.35029296875,1.44697265625,1.6177734375,1.894921875,1.77890625,1.4115234375,1.2826171875,1.26005859375,1.2439453125,1.2697265625,1.27939453125,1.2697265625,1.2955078125,1.28583984375,1.2826171875,1.28583984375,1.28583984375,1.28583984375,1.28583984375,1.28583984375,1.27939453125,1.29228515625,1.29228515625,1.28583984375,1.2890625,1.2890625,1.29228515625,1.2890625,1.28583984375,1.30517578125,1.30517578125,1.3083984375,1.30517578125,1.301953125,1.3083984375,1.30517578125,1.30517578125,1.2890625,1.3083984375,1.29228515625,1.2826171875,1.276171875,1.26328125,1.2568359375,1.24716796875,1.23427734375,1.25361328125,1.250390625,1.26005859375,1.2697265625,1.27294921875,1.28583984375,1.2826171875,1.2890625,1.2955078125,1.29228515625,1.28583984375,1.29228515625,1.2890625,1.29228515625,1.29228515625,1.2890625,1.29228515625,1.2826171875,1.30517578125,1.29228515625,1.2955078125,1.2955078125,1.29228515625,1.2955078125,1.29228515625,1.2826171875,1.3083984375,1.2890625,1.29228515625,1.29228515625,1.2955078125,1.2890625,1.2955078125,1.2890625,1.28583984375,1.29873046875,1.29228515625,1.2890625,1.2955078125,1.29228515625,1.29228515625,1.2890625,1.2890625,1.2826171875,1.29228515625,1.2955078125,1.29228515625,1.29228515625,1.28583984375,1.2955078125,1.2890625,1.27939453125,1.29873046875,1.29228515625,1.2890625,1.29228515625,1.28583984375,1.2890625,1.2890625,1.2890625,1.27939453125,1.301953125,1.29228515625,1.29228515625,1.28583984375,1.29228515625,1.29228515625,1.29228515625,1.28583984375,1.2826171875,1.29228515625,1.28583984375,1.2890625,1.28583984375,1.2890625,1.28583984375,1.2955078125,1.2826171875,1.30517578125,1.301953125,1.2955078125,1.2955078125,1.301953125,1.301953125,1.30517578125,1.3083984375,1.31162109375,1.31484375,1.29873046875,1.28583984375,1.2890625,1.28583984375,1.2826171875,1.28583984375,1.2826171875,1.27294921875,1.29228515625,1.28583984375,1.27939453125,1.27939453125,1.33740234375,1.44052734375,1.611328125,1.91103515625,1.84013671875,1.42763671875,1.2568359375,1.2310546875,1.23427734375,1.2568359375,1.26328125,1.2697265625,1.26650390625,1.26005859375,1.27294921875,1.276171875,1.27294921875,1.27294921875,1.276171875,1.2826171875,1.27939453125,1.27939453125,1.27294921875,1.29228515625,1.28583984375,1.2826171875,1.28583984375,1.28583984375,1.29228515625,1.2890625,1.29873046875,1.29873046875,1.301953125,1.301953125,1.3083984375,1.301953125,1.30517578125,1.301953125,1.30517578125,1.29873046875,1.28583984375,1.29228515625,1.2697265625,1.26005859375,1.25361328125,1.24716796875,1.2439453125,1.250390625,1.2568359375,1.2568359375,1.2826171875,1.2826171875,1.276171875,1.2890625,1.28583984375,1.2890625,1.28583984375,1.2955078125,1.28583984375,1.30517578125,1.29873046875,1.29228515625,1.2955078125,1.29873046875,1.29873046875,1.2955078125,1.2955078125,1.2890625,1.301953125,1.29873046875,1.2955078125,1.29873046875,1.2955078125,1.29228515625,1.2955078125,1.2955078125,1.2890625,1.29873046875,1.301953125,1.29228515625,1.2955078125,1.29228515625,1.2955078125,1.2890625,1.2826171875,1.301953125,1.29228515625,1.2890625,1.2890625,1.28583984375,1.29228515625,1.28583984375,1.28583984375,1.2890625,1.29228515625,1.2890625,1.2890625,1.2890625,1.28583984375,1.2890625,1.2890625,1.2890625,1.29228515625,1.2955078125,1.29228515625,1.2955078125,1.29228515625,1.29228515625,1.2955078125,1.2955078125,1.27939453125,1.30517578125,1.2955078125,1.2955078125,1.29228515625,1.2955078125,1.29228515625,1.2955078125,1.2890625,1.27939453125,1.301953125,1.2955078125,1.29873046875,1.301953125,1.29873046875,1.301953125,1.2955078125,1.29873046875,1.30517578125,1.3083984375,1.3083984375,1.31484375,1.3083984375,1.29228515625,1.2955078125,1.29228515625,1.2826171875,1.29873046875,1.2955078125,1.29228515625,1.2955078125,1.2890625,1.29228515625,1.2890625,1.27939453125,1.35029296875,1.4373046875,1.6177734375,1.89169921875,1.8111328125,1.3857421875,1.2181640625,1.20205078125,1.22138671875,1.26328125,1.2697265625,1.27294921875,1.2826171875,1.28583984375,1.27939453125,1.27294921875,1.27939453125,1.2697265625,1.2890625,1.276171875,1.2890625,1.2826171875,1.2826171875,1.27939453125,1.27939453125,1.27939453125,1.27294921875,1.2955078125,1.2890625,1.2890625,1.29873046875,1.29873046875,1.29873046875,1.29873046875,1.30517578125,1.3083984375,1.3083984375,1.31162109375,1.29873046875,1.2955078125,1.2890625,1.27939453125,1.26328125,1.250390625,1.250390625,1.2439453125,1.2439453125,1.2439453125,1.25361328125,1.2568359375,1.2697265625,1.2697265625,1.26650390625,1.28583984375,1.2826171875,1.2826171875,1.2890625,1.2826171875,1.28583984375,1.28583984375,1.28583984375,1.27939453125,1.2955078125,1.2955078125,1.29873046875,1.29228515625,1.301953125,1.29873046875,1.29873046875,1.2890625,1.31162109375,1.30517578125,1.301953125,1.301953125,1.29873046875,1.30517578125,1.2955078125,1.29873046875,1.2955078125,1.2890625,1.2955078125,1.29873046875,1.29228515625,1.29228515625,1.29228515625,1.29873046875,1.2890625,1.2890625,1.2826171875,1.2955078125,1.29873046875,1.2955078125,1.2890625,1.2955078125,1.29873046875,1.2890625,1.2826171875,1.3083984375,1.29873046875,1.2955078125,1.2955078125,1.29873046875,1.29228515625,1.2955078125,1.28583984375,1.3083984375,1.29873046875,1.29873046875,1.29873046875,1.29873046875,1.30517578125,1.29873046875,1.301953125,1.29228515625,1.31162109375,1.30517578125,1.301953125,1.301953125,1.301953125,1.301953125,1.301953125,1.29873046875,1.2890625,1.31484375,1.30517578125,1.3083984375,1.30517578125,1.301953125,1.31162109375,1.3083984375,1.301953125,1.31806640625,1.31806640625,1.301953125,1.2955078125,1.29873046875,1.2890625,1.29228515625,1.2826171875,1.2890625,1.29228515625,1.29228515625,1.28583984375,1.29228515625,1.27939453125,1.2955078125,1.3599609375,1.45341796875,1.688671875,1.84658203125,1.60810546875,1.30517578125,1.198828125,1.2181640625,1.2310546875,1.24716796875,1.2697265625,1.27294921875,1.27939453125,1.27294921875,1.276171875,1.27939453125,1.2826171875,1.27294921875,1.2826171875,1.2826171875,1.28583984375,1.2890625,1.28583984375,1.28583984375,1.28583984375,1.28583984375,1.2826171875,1.27939453125,1.2955078125,1.29873046875,1.29873046875,1.301953125,1.30517578125,1.30517578125,1.3083984375,1.29873046875,1.31484375,1.3083984375,1.301953125,1.29873046875,1.2890625,1.2826171875,1.26650390625,1.26328125,1.2439453125,1.2568359375,1.250390625,1.2568359375,1.26328125,1.2697265625,1.276171875,1.28583984375,1.28583984375,1.28583984375,1.2826171875,1.2955078125,1.29873046875,1.2955078125,1.2955078125,1.29228515625,1.2955078125,1.29228515625,1.28583984375,1.3083984375,1.30517578125,1.2955078125,1.29873046875,1.2955078125,1.2955078125,1.2890625,1.28583984375,1.29228515625,1.29873046875,1.29228515625,1.2955078125,1.29228515625,1.29228515625,1.29228515625,1.29228515625,1.28583984375,1.3083984375,1.29228515625,1.29228515625,1.29228515625,1.29228515625,1.29228515625,1.2890625,1.2955078125,1.2826171875,1.2955078125,1.28583984375,1.29228515625,1.2890625,1.2890625,1.2826171875,1.2890625,1.2826171875,1.27939453125,1.2890625,1.29228515625,1.28583984375,1.28583984375,1.28583984375,1.28583984375,1.28583984375,1.27939453125,1.2826171875,1.28583984375,1.28583984375,1.2826171875,1.2826171875,1.2826171875,1.28583984375,1.2826171875,1.28583984375,1.2826171875,1.2890625,1.2826171875,1.28583984375,1.28583984375,1.2890625,1.2826171875,1.27939453125,1.2955078125,1.29228515625,1.29873046875,1.2955078125,1.2955078125,1.2955078125,1.301953125,1.29228515625,1.31484375,1.31484375,1.31484375,1.29873046875,1.2955078125,1.29228515625,1.29228515625,1.27939453125,1.30517578125,1.29228515625,1.2955078125,1.2890625,1.29228515625,1.28583984375,1.27939453125,1.3083984375,1.4115234375,1.5017578125,1.77568359375,1.85302734375,1.52431640625,1.33095703125,1.25361328125,1.2439453125,1.250390625,1.27294921875,1.276171875,1.27939453125,1.27939453125,1.2826171875,1.27939453125,1.27294921875,1.2955078125,1.29228515625,1.28583984375,1.2890625,1.28583984375,1.2890625,1.2826171875,1.276171875,1.2955078125,1.29228515625,1.29228515625,1.2955078125,1.29873046875,1.301953125,1.30517578125,1.301953125,1.31162109375,1.31162109375,1.3083984375,1.3083984375,1.3083984375,1.301953125,1.301953125,1.2955078125,1.28583984375,1.26650390625,1.276171875,1.26328125,1.26005859375,1.25361328125,1.26005859375,1.26005859375,1.2697265625,1.27294921875,1.2826171875,1.2890625,1.29228515625,1.29228515625,1.2955078125,1.29873046875,1.29873046875,1.301953125,1.29228515625,1.31162109375,1.301953125,1.301953125,1.29873046875,1.3083984375,1.30517578125,1.3083984375,1.29873046875,1.3083984375,1.30517578125,1.30517578125,1.301953125,1.30517578125,1.301953125,1.301953125,1.29873046875,1.29873046875,1.3083984375,1.301953125,1.301953125,1.301953125,1.301953125,1.29873046875,1.301953125,1.2955078125,1.2890625,1.301953125,1.2955078125,1.29228515625,1.2955078125,1.29228515625,1.29228515625,1.28583984375,1.2955078125,1.29228515625,1.2955078125,1.2890625,1.2890625,1.28583984375,1.2826171875,1.301953125,1.29228515625,1.29228515625,1.2890625,1.28583984375,1.28583984375,1.2826171875,1.2955078125,1.28583984375,1.29228515625,1.28583984375,1.28583984375,1.28583984375,1.276171875,1.27294921875,1.29228515625,1.2890625,1.27939453125,1.2826171875,1.276171875,1.2826171875,1.26650390625,1.29228515625,1.2826171875,1.2826171875,1.27939453125,1.28583984375,1.2890625,1.28583984375,1.27294921875,1.29228515625,1.2890625,1.29228515625,1.2955078125,1.2890625,1.29873046875,1.301953125,1.2826171875,1.2826171875,1.276171875,1.27294921875,1.27294921875,1.2697265625,1.2697265625,1.26005859375,1.26650390625,1.27294921875,1.27294921875,1.2568359375,1.276171875,1.3470703125,1.45341796875,1.67900390625,1.89169921875,1.70478515625,1.36640625,1.2439453125,1.2375,1.224609375,1.24716796875,1.26005859375,1.2568359375,1.250390625,1.2697265625,1.26650390625,1.26328125,1.2697265625,1.26650390625,1.27294921875,1.26650390625,1.276171875,1.26650390625,1.27294921875,1.276171875,1.276171875,1.276171875,1.27939453125,1.2826171875,1.28583984375,1.29228515625,1.28583984375,1.31162109375,1.30517578125,1.30517578125,1.30517578125,1.30517578125,1.3083984375,1.31162109375,1.29873046875,1.31162109375,1.29873046875,1.2890625,1.27939453125,1.27294921875
1.27939453125,1.30517578125,1.29228515625,1.2955078125,1.2890625,1.29228515625,1.29228515625,1.29228515625,1.2890625,1.301953125,1.301953125,1.2890625,1.29228515625,1.29228515625,1.29228515625,1.2826171875,1.30517578125,1.29228515625,1.2890625,1.2826171875,1.2890625,1.28583984375,1.28583984375,1.27939453125,1.3083984375,1.29228515625,1.30517578125,1.2955078125,1.29873046875,1.2955078125,1.2955078125,1.29873046875,1.29873046875,1.30517578125,1.3083984375,1.31162109375,1.29873046875,1.29228515625,1.2826171875,1.28583984375,1.2890625,1.29228515625,1.29228515625,1.2890625,1.2890625,1.29228515625,1.27939453125,1.30517578125,1.27939453125,1.327734375,1.40830078125,1.55009765625,1.83369140625,1.89814453125,1.49208984375,1.26650390625,1.2052734375,1.2310546875,1.24716796875,1.2697265625,1.2697265625,1.29228515625,1.2826171875,1.28583984375,1.28583984375,1.2826171875,1.27939453125,1.27939453125,1.2890625,1.28583984375,1.28583984375,1.2826171875,1.28583984375,1.2826171875,1.28583984375,1.2826171875,1.29873046875,1.29228515625,1.2955078125,1.2955078125,1.301953125,1.29228515625,1.31806640625,1.3083984375,1.31162109375,1.3083984375,1.3083984375,1.30517578125,1.29873046875,1.29873046875,1.27939453125,1.276171875,1.26328125,1.26005859375,1.23427734375,1.2568359375,1.250390625,1.26005859375,1.26005859375,1.26650390625,1.276171875,1.2697265625,1.29228515625,1.29228515625,1.28583984375,1.2890625,1.2826171875,1.29228515625,1.29228515625,1.28583984375,1.29228515625,1.29228515625,1.2955078125,1.2955078125,1.2955078125,1.31162109375,1.30517578125,1.2955078125,1.2955078125,1.2955078125,1.301953125,1.28583984375,1.30517578125,1.29873046875,1.30517578125,1.29873046875,1.29873046875,1.29228515625,1.2890625,1.30517578125,1.29873046875,1.29228515625,1.2890625,1.2890625,1.29228515625,1.2826171875,1.30517578125,1.2890625,1.29228515625,1.2890625,1.2890625,1.2826171875,1.2826171875,1.2890625,1.2890625,1.28583984375,1.28583984375,1.2890625,1.28583984375,1.28583984375,1.301953125,1.29228515625,1.28583984375,1.2890625,1.2890625,1.2955078125,1.2697265625,1.2890625,1.2890625,1.28583984375,1.28583984375,1.28583984375,1.28583984375,1.27939453125,1.2955078125,1.29228515625,1.2890625,1.2890625,1.29228515625,1.28583984375,1.28583984375,1.27939453125,1.301953125,1.29228515625,1.29228515625,1.28583984375,1.29228515625,1.28583984375,1.2955078125,1.28583984375,1.30517578125,1.2955078125,1.29873046875,1.29873046875,1.301953125,1.301953125,1.29228515625,1.32451171875,1.31484375,1.301953125,1.29228515625,1.2890625,1.28583984375,1.29873046875,1.28583984375,1.2890625,1.2890625,1.28583984375,1.2890625,1.28583984375,1.27294921875,1.29228515625,1.3599609375,1.45986328125,1.6435546875,1.91103515625,1.78857421875,1.4115234375,1.2568359375,1.2439453125,1.2375,1.26328125,1.27294921875,1.27939453125,1.27294921875,1.28583984375,1.2890625,1.2826171875,1.2826171875,1.2826171875,1.276171875,1.2890625,1.2826171875,1.2826171875,1.2826171875,1.27939453125,1.28583984375,1.2697265625,1.30517578125,1.29228515625,1.29228515625,1.2955078125,1.301953125,1.30517578125,1.30517578125,1.2955078125,1.31484375,1.3083984375,1.3083984375,1.301953125,1.301953125,1.2955078125,1.276171875,1.28583984375,1.2697265625,1.26328125,1.25361328125,1.24716796875,1.24072265625,1.24072265625,1.25361328125,1.26328125,1.26650390625,1.276171875,1.276171875,1.276171875,1.276171875,1.2890625,1.28583984375,1.2890625,1.2890625,1.28583984375,1.27939453125,1.29873046875,1.2890625,1.2955078125,1.2955078125,1.29228515625,1.2955078125,1.2890625,1.2955078125,1.2955078125,1.2955078125,1.2890625,1.29228515625,1.2890625,1.29228515625,1.27939453125,1.30517578125,1.2955078125,1.29873046875,1.29873046875,1.29873046875,1.2955078125,1.28583984375,1.301953125,1.2955078125,1.2955078125,1.29873046875,1.29228515625,1.28583984375,1.30517578125,1.2955078125,1.29228515625,1.2955078125,1.29228515625,1.2955078125,1.2955078125,1.2826171875,1.301953125,1.29228515625,1.29873046875,1.29228515625,1.29228515625,1.27939453125,1.30517578125,1.2890625,1.2890625,1.2890625,1.2890625,1.28583984375,1.276171875,1.29228515625,1.2890625,1.2890625,1.28583984375,1.29228515625,1.28583984375,1.27939453125,1.29228515625,1.29228515625,1.28583984375,1.2890625,1.2890625,1.2890625,1.276171875,1.29873046875,1.2890625,1.2955078125,1.2890625,1.2890625,1.28583984375,1.2826171875,1.301953125,1.29873046875,1.301953125,1.29873046875,1.29228515625,1.29228515625,1.31484375,1.3083984375,1.301953125,1.31162109375,1.31806640625,1.2955078125,1.28583984375,1.28583984375,1.2890625,1.28583984375,1.29228515625,1.2826171875,1.27939453125,1.301953125,1.2890625,1.28583984375,1.2826171875,1.2890625,1.36640625,1.46953125,1.68544921875,1.959375,1.80791015625,1.39541015625,1.24716796875,1.24072265625,1.22138671875,1.27294921875,1.27294921875,1.27939453125,1.27294921875,1.27939453125,1.27294921875,1.26650390625,1.27939453125,1.2826171875,1.27939453125,1.2826171875,1.2826171875,1.276171875,1.28583984375,1.28583984375,1.2826171875,1.28583984375,1.28583984375,1.2890625,1.2826171875,1.301953125,1.301953125,1.301953125,1.301953125,1.301953125,1.30517578125,1.29873046875,1.31162109375,1.30517578125,1.30517578125,1.29228515625,1.2890625,1.27294921875,1.2697265625,1.25361328125,1.24716796875,1.24072265625,1.24072265625,1.23427734375,1.26005859375,1.26328125,1.27294921875,1.276171875,1.27939453125,1.2826171875,1.2890625,1.2890625,1.2890625,1.2890625,1.29228515625,1.29228515625,1.27939453125,1.301953125,1.2955078125,1.29873046875,1.29228515625,1.29228515625,1.30517578125,1.29873046875,1.29228515625,1.29873046875,1.2890625,1.29228515625,1.28583984375,1.2955078125,1.29873046875,1.2955078125,1.29228515625,1.2955078125,1.29228515625,1.2890625,1.2955078125,1.29228515625,1.29228515625,1.29873046875,1.2826171875,1.30517578125,1.29873046875,1.28583984375,1.29228515625,1.2955078125,1.29228515625,1.2826171875,1.29873046875,1.29228515625,1.2890625,1.2890625,1.2890625,1.2826171875,1.2955078125,1.28583984375,1.29228515625,1.2890625,1.2890625,1.2826171875,1.2826171875,1.2890625,1.2890625,1.2890625,1.2890625,1.2890625,1.276171875,1.29228515625,1.2890625,1.28583984375,1.2890625,1.2890625,1.2890625,1.29228515625,1.276171875,1.2955078125,1.2890625,1.2955078125,1.2890625,1.2890625,1.27939453125,1.29873046875,1.29228515625,1.2890625,1.29228515625,1.29228515625,1.2955078125,1.3083984375,1.2955078125,1.30517578125,1.29873046875,1.29873046875,1.2955078125,1.31484375,1.31484375,1.31806640625,1.301953125,1.29228515625,1.27294921875,1.301953125,1.2890625,1.28583984375,1.2890625,1.2890625,1.2826171875,1.27939453125,1.29228515625,1.276171875,1.27939453125,1.3599609375,1.45986328125,1.67578125,1.972265625,1.86591796875,1.41796875,1.24072265625,1.224609375,1.224609375,1.2568359375,1.27294921875,1.2697265625,1.27939453125,1.27294921875,1.26650390625,1.276171875,1.27939453125,1.27294921875,1.276171875,1.26650390625,1.29228515625,1.27939453125,1.276171875,1.276171875,1.27939453125,1.27939453125,1.2697265625,1.28583984375,1.28583984375,1.29228515625,1.2955078125,1.29873046875,1.29228515625,1.31162109375,1.301953125,1.301953125,1.301953125,1.29228515625,1.2890625,1.301953125,1.28583984375,1.2826171875,1.26328125,1.250390625,1.224609375,1.24716796875,1.2375,1.23427734375,1.24716796875,1.250390625,1.26328125,1.27294921875,1.27939453125,1.28583984375,1.2826171875,1.276171875,1.301953125,1.2955078125,1.29228515625,1.2890625,1.2890625,1.2890625,1.29228515625,1.2890625,1.30517578125,1.29873046875,1.3083984375,1.2955078125,1.28583984375,1.29873046875,1.29873046875,1.301953125,1.2955078125,1.29228515625,1.301953125,1.28583984375,1.3083984375,1.29228515625,1.2955078125,1.2890625,1.2955078125,1.2955078125,1.28583984375,1.3083984375,1.2955078125,1.2955078125,1.2890625,1.29228515625,1.2955078125,1.2955078125,1.2955078125,1.301953125,1.29873046875,1.29873046875,1.29228515625,1.2955078125,1.29228515625,1.2890625,1.2955078125,1.2955078125,1.2890625,1.28583984375,1.29228515625,1.29873046875,1.2955078125,1.2955078125,1.2955078125,1.29228515625,1.2955078125,1.2890625,1.3083984375,1.2955078125,1.29873046875,1.2890625,1.2955078125,1.29228515625,1.28583984375,1.3083984375,1.2955078125,1.2890625,1.29228515625,1.29228515625,1.2955078125,1.2890625,1.28583984375,1.27939453125,1.30517578125,1.301953125,1.29873046875,1.29873046875,1.301953125,1.2890625,1.3083984375,1.31162109375,1.30517578125,1.3083984375,1.3212890625,1.3083984375,1.2890625,1.301953125,1.2955078125,1.29228515625,1.28583984375,1.28583984375,1.29228515625,1.28583984375,1.27294921875,1.2890625,1.276171875,1.2697265625,1.32451171875,1.41796875,1.59521484375,1.90458984375,1.87880859375,1.430859375,1.22138671875,1.19560546875,1.224609375,1.23427734375,1.26328125,1.2697265625,1.27294921875,1.276171875,1.2697265625,1.2890625,1.2826171875,1.27939453125,1.276171875,1.2826171875,1.28583984375,1.28583984375,1.2890625,1.2890625,1.27939453125,1.2955078125,1.2890625,1.29228515625,1.2890625,1.2955078125,1.30517578125,1.29873046875,1.30517578125,1.301953125,1.29873046875,1.31806640625,1.31484375,1.31162109375,1.301953125,1.301953125,1.28583984375,1.2826171875,1.26328125,1.26328125,1.250390625,1.2439453125,1.2375,1.2439453125,1.24072265625,1.25361328125,1.25361328125,1.27939453125,1.27939453125,1.27939453125,1.28583984375,1.2890625,1.28583984375,1.29228515625,1.28583984375,1.27939453125,1.301953125,1.2890625,1.29228515625,1.2955078125,1.29873046875,1.2955078125,1.30517578125,1.2955078125,1.29873046875,1.2955078125,1.30517578125,1.2955078125,1.30517578125,1.2955078125,1.29873046875,1.29873046875,1.2955078125,1.301953125,1.29873046875,1.2955078125,1.29873046875,1.2955078125,1.2955078125,1.29228515625,1.29228515625,1.29228515625,1.29228515625,1.2955078125,1.2890625,1.28583984375,1.28583984375,1.2890625,1.28583984375,1.2890625,1.276171875,1.2955078125,1.2890625,1.29228515625,1.2955078125,1.2890625,1.29228515625,1.29228515625,1.28583984375,1.3083984375,1.2955078125,1.2955078125,1.29228515625,1.2890625,1.29228515625,1.2955078125,1.2955078125,1.2890625,1.2826171875,1.30517578125,1.29873046875,1.2890625,1.29228515625,1.2890625,1.29873046875,1.2955078125,1.29228515625,1.2890625,1.29228515625,1.29228515625,1.2955078125,1.29873046875,1.29228515625,1.29873046875,1.29228515625,1.2955078125,1.2890625,1.31484375,1.29873046875,1.30517578125,1.31484375,1.30517578125,1.28583984375,1.29228515625,1.27939453125,1.29873046875,1.2890625,1.2890625,1.2890625,1.2890625,1.27939453125,1.28583984375,1.2826171875,1.26328125,1.340625,1.4115234375,1.54365234375,1.82724609375,1.8626953125,1.4373046875,1.2439453125,1.19560546875,1.23427734375,1.23427734375,1.2697265625,1.27294921875,1.276171875,1.27294921875,1.27939453125,1.2826171875,1.27939453125,1.27294921875,1.29873046875,1.2890625,1.2826171875,1.27939453125,1.2890625,1.2826171875,1.28583984375,1.29228515625,1.27939453125,1.3083984375,1.301953125,1.301953125,1.301953125,1.30517578125,1.30517578125,1.30517578125,1.301953125,1.32451171875,1.31806640625,1.31806640625,1.31162109375,1.31162109375,1.2955078125,1.2890625,1.276171875,1.25361328125,1.26005859375,1.2568359375,1.2439453125,1.250390625,1.250390625,1.2568359375,1.26650390625,1.26328125,1.28583984375,1.2826171875,1.2890625,1.29228515625,1.2955078125,1.29228515625,1.2890625,1.28583984375,1.28583984375,1.2955078125,1.29873046875,1.2955078125,1.29873046875,1.2955078125,1.301953125,1.29873046875,1.29873046875,1.28583984375,1.3083984375,1.301953125,1.301953125,1.2955078125,1.301953125,1.29873046875,1.301953125,1.2955078125,1.301953125,1.2955078125,1.2955078125,1.29228515625,1.2890625,1.2955078125,1.2890625,1.28583984375,1.2826171875,1.2955078125,1.29228515625,1.2890625,1.28583984375,1.29228515625,1.28583984375,1.2826171875,1.29228515625,1.2955078125,1.29228515625,1.29228515625,1.2890625,1.2955078125,1.2955078125,1.29228515625,1.28583984375,1.31162109375,1.29873046875,1.2955078125,1.2955078125,1.29228515625,1.29228515625,1.2890625,1.2890625,1.276171875,1.2955078125,1.2890625,1.2890625,1.28583984375,1.29228515625,1.2890625,1.2890625,1.27939453125,1.29228515625,1.2955078125,1.29228515625,1.29228515625,1.2890625,1.29873046875,1.2955078125,1.28583984375,1.301953125,1.301953125,1.2955078125,1.301953125,1.301953125,1.301953125,1.301953125,1.3083984375,1.28583984375,1.30517578125,1.28583984375,1.28583984375,1.27939453125,1.2890625,1.2826171875,1.2826171875,1.2826171875,1.276171875,1.29228515625,1.2826171875,1.27939453125,1.3341796875,1.42119140625,1.55654296875,1.8498046875,1.84658203125,1.4630859375,1.27294921875,1.23427734375,1.24072265625,1.250390625,1.2697265625,1.276171875,1.276171875,1.26650390625,1.28583984375,1.2826171875,1.27939453125,1.2826171875,1.2826171875,1.28583984375,1.2826171875,1.27294921875,1.29228515625,1.2890625,1.28583984375,1.28583984375,1.28583984375,1.2890625,1.2955078125,1.2955078125,1.29228515625,1.3083984375,1.3083984375,1.30517578125,1.3083984375,1.3083984375,1.31162109375,1.30517578125,1.30517578125,1.301953125,1.29873046875,1.28583984375,1.276171875,1.26328125,1.26005859375,1.24716796875,1.25361328125,1.24072265625,1.26650390625,1.2697265625,1.276171875,1.27939453125,1.2826171875,1.2890625,1.29228515625,1.2890625,1.2826171875,1.2955078125,1.29873046875,1.2955078125,1.2955078125,1.2955078125,1.2955078125,1.29873046875,1.29228515625,1.301953125,1.301953125,1.29873046875,1.2955078125,1.29873046875,1.2955078125,1.2955078125,1.28583984375,1.30517578125,1.2955078125,1.29873046875,1.301953125,1.29873046875,1.2955078125,1.2955078125,1.28583984375,1.301953125,1.29228515625,1.29228515625,1.29228515625,1.2890625,1.29228515625,1.29228515625,1.29228515625,1.27939453125,1.2955078125,1.29228515625,1.29228515625,1.2890625,1.2890625,1.2890625,1.2890625,1.27939453125,1.2955078125,1.29228515625,1.2826171875,1.28583984375,1.2826171875,1.28583984375,1.27939453125,1.2826171875,1.2697265625,1.29873046875,1.2826171875,1.2826171875,1.28583984375,1.27939453125,1.2826171875,1.2826171875,1.26650390625,1.2955078125,1.27939453125,1.2826171875,1.276171875,1.276171875,1.27939453125,1.27939453125,1.2697265625,1.28583984375,1.27939453125,1.2826171875,1.28583984375,1.29228515625,1.2890625,1.29228515625,1.28583984375,1.27939453125,1.301953125,1.301953125,1.301953125,1.30517578125,1.31162109375,1.2890625,1.2890625,1.27939453125,1.2955078125,1.28583984375,1.2890625,1.2890625,1.2955078125,1.2955078125,1.2955078125,1.28583984375,1.27294921875,1.29873046875,1.3728515625,1.4759765625,1.70478515625,1.946484375,1.77890625,1.3857421875,1.250390625,1.25361328125,1.24072265625,1.26328125,1.27294921875,1.276171875,1.27294921875,1.276171875,1.26328125,1.2890625,1.27294921875,1.27939453125,1.276171875,1.27939453125,1.27939453125,1.27939453125,1.276171875,1.2697265625,1.28583984375,1.2826171875,1.2826171875,1.2890625,1.2890625,1.29228515625,1.29228515625,1.2955078125,1.29228515625,1.31162109375,1.30517578125,1.30517578125,1.301953125,1.301953125,1.301953125,1.2955078125,1.27939453125,1.29228515625,1.26650390625,1.25361328125,1.250390625,1.2375,1.24716796875,1.2439453125,1.2568359375,1.26005859375,1.26328125,1.2890625,1.28583984375,1.2890625,1.2890625,1.2955078125,1.29228515625,1.29228515625,1.29228515625,1.2826171875,1.30517578125,1.301953125,1.29873046875,1.301953125,1.301953125,1.30517578125,1.30517578125,1.30517578125,1.2890625,1.31162109375,1.30517578125,1.30517578125,1.301953125,1.29873046875,1.301953125,1.301953125,1.301953125,1.29228515625,1.31484375,1.301953125,1.30517578125,1.301953125,1.29873046875,1.29873046875,1.29873046875,1.29873046875,1.29228515625,1.301953125,1.301953125,1.301953125,1.29873046875,1.2955078125,1.30517578125,1.29873046875,1.29873046875,1.301953125,1.30517578125,1.301953125,1.301953125,1.29873046875,1.301953125,1.29873046875,1.301953125,1.29873046875,1.29228515625,1.3083984375,1.301953125,1.301953125,1.29873046875,1.30517578125,1.301953125,1.30517578125,1.29228515625,1.31806640625,1.30517578125,1.30517578125,1.301953125,1.30517578125,1.29873046875,1.30517578125,1.301953125,1.2955078125,1.29873046875,1.301953125,1.3083984375,1.3083984375,1.30517578125,1.30517578125,1.30517578125,1.301953125,1.30517578125,1.301953125,1.32451171875,1.31162109375,1.31806640625,1.30517578125,1.29873046875,1.28583984375,1.29228515625,1.2890625,1.27939453125,1.2955078125,1.28583984375
1.2955078125,1.29228515625,1.2955078125,1.29228515625,1.2890625,1.28583984375,1.29873046875,1.29228515625,1.2955078125,1.29228515625,1.29228515625,1.2955078125,1.2955078125,1.2826171875,1.301953125,1.2955078125,1.2955078125,1.29228515625,1.2890625,1.29228515625,1.29228515625,1.29228515625,1.2955078125,1.29873046875,1.29228515625,1.29873046875,1.2955078125,1.29873046875,1.2955078125,1.29228515625,1.29228515625,1.29873046875,1.29873046875,1.30517578125,1.301953125,1.29873046875,1.301953125,1.301953125,1.2890625,1.3083984375,1.31162109375,1.31162109375,1.31806640625,1.301953125,1.2955078125,1.2890625,1.27939453125,1.29873046875,1.29228515625,1.2890625,1.2890625,1.29228515625,1.29228515625,1.28583984375,1.28583984375,1.28583984375,1.327734375,1.41474609375,1.56943359375,1.8884765625,1.95615234375,1.50498046875,1.25361328125,1.2052734375,1.2310546875,1.24716796875,1.26328125,1.27294921875,1.276171875,1.27939453125,1.2697265625,1.28583984375,1.27939453125,1.2826171875,1.276171875,1.2826171875,1.28583984375,1.27939453125,1.27939453125,1.2890625,1.28583984375,1.28583984375,1.2826171875,1.2826171875,1.28583984375,1.2826171875,1.30517578125,1.29873046875,1.301953125,1.301953125,1.29873046875,1.29873046875,1.301953125,1.301953125,1.29228515625,1.301953125,1.29228515625,1.27939453125,1.26650390625,1.24716796875,1.2439453125,1.2310546875,1.22783203125,1.2375,1.2375,1.2439453125,1.25361328125,1.2568359375,1.26650390625,1.26650390625,1.2826171875,1.27939453125,1.2826171875,1.27939453125,1.2826171875,1.27939453125,1.27294921875,1.2890625,1.2890625,1.29228515625,1.28583984375,1.2955078125,1.2955078125,1.29228515625,1.2890625,1.28583984375,1.29228515625,1.2955078125,1.29228515625,1.29228515625,1.29228515625,1.29228515625,1.2890625,1.27939453125,1.2955078125,1.29228515625,1.29228515625,1.28583984375,1.2890625,1.2890625,1.2890625,1.28583984375,1.29228515625,1.29228515625,1.2890625,1.2890625,1.2890625,1.28583984375,1.2890625,1.27294921875,1.30517578125,1.2890625,1.29228515625,1.2890625,1.2826171875,1.28583984375,1.28583984375,1.2890625,1.2955078125,1.2955078125,1.29228515625,1.29228515625,1.29873046875,1.29228515625,1.29228515625,1.2955078125,1.29873046875,1.29873046875,1.2955078125,1.29873046875,1.2955078125,1.301953125,1.29873046875,1.29873046875,1.2890625,1.30517578125,1.2955078125,1.29873046875,1.2955078125,1.2955078125,1.29228515625,1.31162109375,1.2955078125,1.2955078125,1.29228515625,1.29228515625,1.30517578125,1.30517578125,1.301953125,1.29228515625,1.31162109375,1.3083984375,1.31162109375,1.3083984375,1.31162109375,1.31806640625,1.31806640625,1.2955078125,1.29228515625,1.3083984375,1.2955078125,1.2890625,1.28583984375,1.2890625,1.2890625,1.2826171875,1.2955078125,1.2955078125,1.2826171875,1.2826171875,1.3599609375,1.456640625,1.66611328125,1.95615234375,1.81435546875,1.37607421875,1.2052734375,1.21494140625,1.2310546875,1.2568359375,1.26328125,1.27294921875,1.2826171875,1.2826171875,1.276171875,1.27939453125,1.276171875,1.2826171875,1.2826171875,1.276171875,1.28583984375,1.28583984375,1.28583984375,1.28583984375,1.29228515625,1.2890625,1.29228515625,1.28583984375,1.31484375,1.301953125,1.301953125,1.3083984375,1.31162109375,1.31162109375,1.31806640625,1.31806640625,1.3212890625,1.31484375,1.31484375,1.301953125,1.29873046875,1.28583984375,1.27939453125,1.2568359375,1.250390625,1.22783203125,1.24716796875,1.2439453125,1.250390625,1.2568359375,1.26650390625,1.27294921875,1.27939453125,1.27939453125,1.27294921875,1.29228515625,1.2890625,1.2890625,1.28583984375,1.2890625,1.2890625,1.2955078125,1.2826171875,1.3083984375,1.29873046875,1.29873046875,1.29873046875,1.29873046875,1.29873046875,1.301953125,1.30517578125,1.2955078125,1.31162109375,1.30517578125,1.301953125,1.2955078125,1.2955078125,1.2955078125,1.29228515625,1.29228515625,1.2890625,1.29228515625,1.2955078125,1.29228515625,1.29228515625,1.28583984375,1.2890625,1.28583984375,1.2890625,1.276171875,1.2955078125,1.28583984375,1.2890625,1.28583984375,1.28583984375,1.2826171875,1.2826171875,1.2826171875,1.27939453125,1.28583984375,1.28583984375,1.2826171875,1.27939453125,1.2826171875,1.2826171875,1.2826171875,1.276171875,1.28583984375,1.2826171875,1.28583984375,1.27939453125,1.2826171875,1.27939453125,1.2826171875,1.27939453125,1.276171875,1.28583984375,1.2826171875,1.2826171875,1.28583984375,1.2826171875,1.27939453125,1.2826171875,1.27939453125,1.27939453125,1.2890625,1.2826171875,1.28583984375,1.2826171875,1.2890625,1.2890625,1.2955078125,1.28583984375,1.301953125,1.2955078125,1.2955078125,1.301953125,1.2955078125,1.3083984375,1.3083984375,1.29873046875,1.27939453125,1.2955078125,1.2890625,1.2826171875,1.2826171875,1.2826171875,1.2826171875,1.2826171875,1.276171875,1.2955078125,1.2826171875,1.27294921875,1.327734375,1.42119140625,1.55009765625,1.8755859375,1.93359375,1.508203125,1.3212890625,1.2439453125,1.250390625,1.250390625,1.276171875,1.27939453125,1.2826171875,1.27294921875,1.2890625,1.28583984375,1.28583984375,1.28583984375,1.28583984375,1.28583984375,1.2890625,1.276171875,1.29873046875,1.2955078125,1.29228515625,1.29228515625,1.29228515625,1.29228515625,1.2955078125,1.29228515625,1.31484375,1.3083984375,1.3083984375,1.31162109375,1.3083984375,1.31484375,1.31162109375,1.30517578125,1.31484375,1.3083984375,1.29228515625,1.28583984375,1.276171875,1.26328125,1.250390625,1.2375,1.24716796875,1.24716796875,1.24716796875,1.25361328125,1.26328125,1.27294921875,1.27939453125,1.27294921875,1.2955078125,1.2890625,1.2890625,1.2890625,1.29228515625,1.2890625,1.29228515625,1.27939453125,1.2955078125,1.2955078125,1.29873046875,1.2955078125,1.29873046875,1.2955078125,1.2955078125,1.2890625,1.301953125,1.2955078125,1.2955078125,1.2955078125,1.2955078125,1.29873046875,1.2890625,1.3083984375,1.29873046875,1.2955078125,1.29228515625,1.29228515625,1.2890625,1.29228515625,1.28583984375,1.29873046875,1.29228515625,1.2955078125,1.29228515625,1.29228515625,1.29228515625,1.2890625,1.2955078125,1.29873046875,1.2955078125,1.29228515625,1.2955078125,1.29228515625,1.29228515625,1.2890625,1.29873046875,1.29228515625,1.29228515625,1.2890625,1.29228515625,1.28583984375,1.2890625,1.28583984375,1.2955078125,1.2890625,1.29228515625,1.28583984375,1.29228515625,1.2890625,1.2826171875,1.29873046875,1.29228515625,1.28583984375,1.2890625,1.28583984375,1.2890625,1.2890625,1.2826171875,1.28583984375,1.2890625,1.28583984375,1.28583984375,1.29228515625,1.2890625,1.2890625,1.2826171875,1.301953125,1.2955078125,1.29873046875,1.2955078125,1.29873046875,1.29228515625,1.2955078125,1.29228515625,1.301953125,1.301953125,1.31162109375,1.30517578125,1.29228515625,1.28583984375,1.27939453125,1.2890625,1.28583984375,1.2826171875,1.2826171875,1.27939453125,1.28583984375,1.28583984375,1.27294921875,1.28583984375,1.31484375,1.40830078125,1.533984375,1.85302734375,1.96259765625,1.5791015625,1.3341796875,1.2375,1.2375,1.2439453125,1.26650390625,1.27294921875,1.27294921875,1.276171875,1.276171875,1.276171875,1.27294921875,1.276171875,1.276171875,1.27294921875,1.2826171875,1.2826171875,1.27939453125,1.27939453125,1.2826171875,1.27939453125,1.2826171875,1.276171875,1.30517578125,1.2955078125,1.301953125,1.29873046875,1.30517578125,1.30517578125,1.301953125,1.301953125,1.31162109375,1.30517578125,1.30517578125,1.29873046875,1.2955078125,1.28583984375,1.27294921875,1.250390625,1.26650390625,1.24716796875,1.24072265625,1.2375,1.2439453125,1.250390625,1.2568359375,1.2697265625,1.276171875,1.2826171875,1.2826171875,1.2890625,1.28583984375,1.2890625,1.2826171875,1.30517578125,1.29228515625,1.29228515625,1.29228515625,1.2955078125,1.2955078125,1.2955078125,1.29228515625,1.28583984375,1.29873046875,1.2955078125,1.2955078125,1.2890625,1.29228515625,1.29228515625,1.2890625,1.29873046875,1.301953125,1.2955078125,1.29873046875,1.29228515625,1.2955078125,1.2890625,1.2826171875,1.29873046875,1.29228515625,1.2890625,1.29228515625,1.29228515625,1.29228515625,1.2890625,1.2890625,1.27939453125,1.2955078125,1.29228515625,1.2890625,1.2890625,1.2890625,1.28583984375,1.2826171875,1.27939453125,1.2890625,1.2890625,1.28583984375,1.29228515625,1.2890625,1.29228515625,1.28583984375,1.28583984375,1.28583984375,1.2955078125,1.2890625,1.29228515625,1.2890625,1.2826171875,1.2890625,1.27939453125,1.29873046875,1.2890625,1.29228515625,1.29228515625,1.29228515625,1.2890625,1.29228515625,1.2890625,1.29228515625,1.27939453125,1.30517578125,1.29228515625,1.2955078125,1.2955078125,1.29873046875,1.29873046875,1.301953125,1.29873046875,1.29873046875,1.29228515625,1.301953125,1.301953125,1.30517578125,1.29873046875,1.30517578125,1.31484375,1.3083984375,1.2955078125,1.276171875,1.29873046875,1.2890625,1.2890625,1.2890625,1.2890625,1.28583984375,1.2890625,1.28583984375,1.27939453125,1.27939453125,1.3212890625,1.4115234375,1.54365234375,1.85625,1.972265625,1.585546875,1.31484375,1.2439453125,1.24072265625,1.24072265625,1.26328125,1.2697265625,1.27939453125,1.27939453125,1.276171875,1.26650390625,1.29228515625,1.2826171875,1.2826171875,1.2826171875,1.27939453125,1.2826171875,1.2826171875,1.2826171875,1.27294921875,1.29873046875,1.28583984375,1.29228515625,1.2955078125,1.29228515625,1.2955078125,1.29873046875,1.29873046875,1.301953125,1.301953125,1.31806640625,1.3083984375,1.3083984375,1.30517578125,1.30517578125,1.2955078125,1.2826171875,1.2697265625,1.26650390625,1.25361328125,1.24072265625,1.24072265625,1.2375,1.24072265625,1.2439453125,1.26005859375,1.26328125,1.26650390625,1.28583984375,1.2826171875,1.2890625,1.28583984375,1.29228515625,1.2890625,1.2890625,1.28583984375,1.2826171875,1.2955078125,1.2955078125,1.2955078125,1.2955078125,1.29228515625,1.2955078125,1.2955078125,1.2890625,1.28583984375,1.3083984375,1.2955078125,1.2955078125,1.29228515625,1.29873046875,1.2890625,1.2955078125,1.29228515625,1.27939453125,1.29873046875,1.2955078125,1.29228515625,1.2890625,1.29228515625,1.2890625,1.2955078125,1.2890625,1.2890625,1.28583984375,1.29228515625,1.28583984375,1.28583984375,1.28583984375,1.29228515625,1.28583984375,1.2890625,1.276171875,1.2955078125,1.2890625,1.2955078125,1.2890625,1.2890625,1.2890625,1.2890625,1.2890625,1.2890625,1.2890625,1.2955078125,1.29228515625,1.29228515625,1.2890625,1.2890625,1.28583984375,1.2890625,1.276171875,1.2955078125,1.28583984375,1.2890625,1.2890625,1.2890625,1.2890625,1.29228515625,1.2890625,1.27939453125,1.29873046875,1.28583984375,1.29228515625,1.29228515625,1.29228515625,1.2890625,1.2955078125,1.2955078125,1.29228515625,1.301953125,1.29873046875,1.29873046875,1.301953125,1.30517578125,1.301953125,1.3083984375,1.31162109375,1.29873046875,1.29873046875,1.29228515625,1.2890625,1.29228515625,1.29228515625,1.2955078125,1.29228515625,1.29228515625,1.27939453125,1.301953125,1.29228515625,1.28583984375,1.3212890625,1.40830078125,1.559765625,1.869140625,1.98193359375,1.55009765625,1.29228515625,1.198828125,1.22138671875,1.24716796875,1.26328125,1.276171875,1.2826171875,1.276171875,1.2826171875,1.2826171875,1.27939453125,1.27939453125,1.28583984375,1.28583984375,1.2890625,1.2890625,1.27939453125,1.301953125,1.2890625,1.29228515625,1.2955078125,1.29228515625,1.29228515625,1.2955078125,1.29873046875,1.2890625,1.3083984375,1.3083984375,1.31162109375,1.31162109375,1.31484375,1.30517578125,1.301953125,1.2955078125,1.28583984375,1.28583984375,1.2697265625,1.26005859375,1.24716796875,1.23427734375,1.224609375,1.2310546875,1.23427734375,1.250390625,1.250390625,1.26650390625,1.276171875,1.27939453125,1.2826171875,1.2826171875,1.2826171875,1.2826171875,1.2890625,1.2890625,1.28583984375,1.28583984375,1.2890625,1.2955078125,1.29873046875,1.29228515625,1.2890625,1.29873046875,1.30517578125,1.301953125,1.2955078125,1.2955078125,1.2955078125,1.29873046875,1.28583984375,1.29873046875,1.29228515625,1.2890625,1.2890625,1.29228515625,1.28583984375,1.2890625,1.2826171875,1.29873046875,1.29228515625,1.2955078125,1.29228515625,1.2890625,1.2890625,1.2955078125,1.2826171875,1.30517578125,1.29228515625,1.29228515625,1.2890625,1.29228515625,1.29228515625,1.2890625,1.2890625,1.27939453125,1.2955078125,1.2955078125,1.301953125,1.2890625,1.29228515625,1.2955078125,1.2955078125,1.2890625,1.301953125,1.301953125,1.2955078125,1.2890625,1.2890625,1.2890625,1.29228515625,1.29228515625,1.2826171875,1.29228515625,1.2890625,1.28583984375,1.28583984375,1.2826171875,1.28583984375,1.29228515625,1.2826171875,1.27939453125,1.29228515625,1.2890625,1.2890625,1.2890625,1.28583984375,1.29228515625,1.29873046875,1.2826171875,1.301953125,1.2955078125,1.29228515625,1.301953125,1.30517578125,1.301953125,1.3083984375,1.3083984375,1.3212890625,1.29873046875,1.2826171875,1.28583984375,1.29228515625,1.29228515625,1.29228515625,1.276171875,1.29873046875,1.29228515625,1.2890625,1.29228515625,1.27939453125,1.3083984375,1.38896484375,1.50498046875,1.791796875,1.98515625,1.67255859375,1.327734375,1.20205078125,1.2181640625,1.2375,1.2568359375,1.2697265625,1.27294921875,1.27939453125,1.276171875,1.276171875,1.276171875,1.2826171875,1.27939453125,1.28583984375,1.276171875,1.2890625,1.2826171875,1.28583984375,1.2826171875,1.28583984375,1.29228515625,1.2890625,1.29228515625,1.276171875,1.31484375,1.301953125,1.30517578125,1.301953125,1.31162109375,1.3083984375,1.31806640625,1.31162109375,1.30517578125,1.31162109375,1.301953125,1.28583984375,1.276171875,1.26650390625,1.25361328125,1.2375,1.2568359375,1.2439453125,1.24716796875,1.25361328125,1.26328125,1.26650390625,1.27939453125,1.27939453125,1.276171875,1.301953125,1.29228515625,1.29228515625,1.2955078125,1.2955078125,1.2890625,1.2955078125,1.28583984375,1.301953125,1.29873046875,1.2955078125,1.29873046875,1.30517578125,1.29873046875,1.29873046875,1.301953125,1.2955078125,1.3212890625,1.3083984375,1.3083984375,1.31162109375,1.30517578125,1.301953125,1.29873046875,1.2890625,1.31162109375,1.2955078125,1.29873046875,1.2890625,1.29228515625,1.2890625,1.2955078125,1.276171875,1.29873046875,1.29228515625,1.29228515625,1.28583984375,1.28583984375,1.27939453125,1.28583984375,1.2826171875,1.2955078125,1.2890625,1.2890625,1.28583984375,1.28583984375,1.28583984375,1.2890625,1.27294921875,1.2955078125,1.2955078125,1.28583984375,1.2890625,1.2890625,1.29228515625,1.2826171875,1.29228515625,1.28583984375,1.2890625,1.28583984375,1.29228515625,1.2890625,1.28583984375,1.2826171875,1.276171875,1.2890625,1.28583984375,1.2826171875,1.27939453125,1.2826171875,1.28583984375,1.2826171875,1.27294921875,1.29228515625,1.2826171875,1.2826171875,1.28583984375,1.29228515625,1.2890625,1.29228515625,1.29228515625,1.28583984375,1.29873046875,1.30517578125,1.2955078125,1.3083984375,1.31162109375,1.2955078125,1.28583984375,1.276171875,1.29228515625,1.28583984375,1.28583984375,1.28583984375,1.2826171875,1.28583984375,1.2826171875,1.2826171875,1.26650390625,1.29228515625,1.35673828125,1.45986328125,1.6693359375,1.9142578125,1.76923828125,1.3728515625,1.2310546875,1.23427734375,1.2375,1.25361328125,1.2697265625,1.27294921875,1.276171875,1.276171875,1.27294921875,1.276171875,1.2826171875,1.27939453125,1.27939453125,1.2826171875,1.2826171875,1.28583984375,1.2826171875,1.276171875,1.29228515625,1.2890625,1.28583984375,1.29228515625,1.29228515625,1.2955078125,1.2955078125,1.29873046875,1.29228515625,1.3212890625,1.3083984375,1.3083984375,1.3083984375,1.30517578125,1.29873046875,1.2955078125,1.276171875,1.2955078125,1.27294921875,1.26328125,1.250390625,1.24716796875,1.24716796875,1.2439453125,1.2439453125,1.26650390625,1.2697265625,1.276171875,1.28583984375,1.28583984375,1.29228515625,1.29228515625,1.29228515625,1.2890625,1.29873046875,1.2955078125,1.2955078125,1.2955078125,1.29873046875,1.29873046875,1.29873046875,1.301953125,1.3083984375,1.30517578125,1.30517578125,1.301953125,1.29873046875,1.3083984375,1.30517578125,1.30517578125,1.30517578125,1.30517578125,1.29228515625,1.31806640625,1.30517578125,1.30517578125,1.29873046875,1.30517578125,1.301953125,1.301953125,1.301953125,1.31162109375,1.301953125,1.301953125,1.301953125,1.30517578125,1.301953125,1.29873046875,1.3083984375,1.30517578125,1.301953125,1.301953125,1.301953125,1.301953125,1.301953125,1.29873046875,1.29228515625,1.3083984375,1.301953125,1.301953125,1.301953125,1.301953125,1.301953125,1.2955078125,1.301953125,1.301953125,1.301953125,1.301953125
1.2697265625,1.26650390625,1.276171875,1.26650390625,1.2697265625,1.26005859375,1.27294921875,1.26650390625,1.276171875,1.26328125,1.26650390625,1.26328125,1.276171875,1.26005859375,1.26650390625,1.26328125,1.2697265625,1.27294921875,1.2697265625,1.2697265625,1.26005859375,1.276171875,1.26328125,1.2826171875,1.2697265625,1.27939453125,1.301953125,1.3083984375,1.301953125,1.31806640625,1.30517578125,1.31806640625,1.2890625,1.3083984375,1.27939453125,1.26650390625,1.2568359375,1.276171875,1.26650390625,1.26650390625,1.26005859375,1.26328125,1.26328125,1.26005859375,1.27294921875,1.25361328125,1.26005859375,1.27294921875,1.2826171875,1.4244140625,1.80791015625,2.1978515625,2.93583984375,2.6619140625,1.21494140625,0.20947265625,0.35771484375,0.605859375,0.90234375,1.10859375,1.1923828125,1.2181640625,1.2310546875,1.24072265625,1.26005859375,1.27294921875,1.27294921875,1.2697265625,1.27939453125,1.28583984375,1.2826171875,1.2826171875,1.2890625,1.301953125,1.29228515625,1.29873046875,1.301953125,1.33095703125,1.30517578125,1.3341796875,1.33740234375,1.35673828125,1.36318359375,1.37607421875,1.38251953125,1.405078125,1.405078125,1.42119140625,1.42119140625,1.4373046875,1.42763671875,1.40830078125,1.3857421875,1.3470703125,1.32451171875,1.26650390625,1.2181640625,1.15693359375,1.147265625,1.12470703125,1.14404296875,1.16337890625,1.21494140625,1.21494140625,1.26328125,1.26328125,1.28583984375,1.27294921875,1.2955078125,1.301953125,1.30517578125,1.301953125,1.2955078125,1.30517578125,1.31484375,1.3212890625,1.3083984375,1.31484375,1.31162109375,1.33095703125,1.31162109375,1.32451171875,1.31484375,1.3212890625,1.327734375,1.327734375,1.30517578125,1.327734375,1.30517578125,1.31484375,1.29228515625,1.29873046875,1.28583984375,1.29873046875,1.2826171875,1.2890625,1.2890625,1.2890625,1.2826171875,1.2955078125,1.27294921875,1.276171875,1.28583984375,1.27294921875,1.29228515625,1.27294921875,1.2826171875,1.276171875,1.2826171875,1.27294921875,1.2826171875,1.28583984375,1.2826171875,1.276171875,1.2826171875,1.26650390625,1.2826171875,1.26650390625,1.2890625,1.276171875,1.2890625,1.26328125,1.276171875,1.27294921875,1.2826171875,1.27939453125,1.27294921875,1.27294921875,1.276171875,1.27939453125,1.2697265625,1.2826171875,1.27294921875,1.276171875,1.28583984375,1.31162109375,1.3083984375,1.32451171875,1.31162109375,1.340625,1.31162109375,1.29873046875,1.2826171875,1.29228515625,1.25361328125,1.27939453125,1.276171875,1.2697265625,1.26005859375,1.26328125,1.2568359375,1.2439453125,1.26005859375,1.26005859375,1.276171875,1.26650390625,1.27294921875,1.31806640625,1.5791015625,1.99482421875,2.5072265625,3.0873046875,2.4298828125,0.40927734375,0.23203125,0.451171875,0.74443359375,1.0119140625,1.1666015625,1.20849609375,1.23427734375,1.2375,1.2568359375,1.25361328125,1.2697265625,1.27939453125,1.27939453125,1.28583984375,1.2826171875,1.28583984375,1.29228515625,1.2955078125,1.28583984375,1.30517578125,1.301953125,1.31484375,1.31484375,1.3212890625,1.327734375,1.340625,1.33740234375,1.3728515625,1.379296875,1.40185546875,1.40830078125,1.42119140625,1.42119140625,1.4373046875,1.4244140625,1.41796875,1.3921875,1.37607421875,1.33740234375,1.29228515625,1.250390625,1.1923828125,1.16015625,1.1408203125,1.13759765625,1.13115234375,1.17626953125,1.198828125,1.24716796875,1.24716796875,1.276171875,1.2697265625,1.2826171875,1.28583984375,1.29873046875,1.2955078125,1.30517578125,1.2955078125,1.301953125,1.29873046875,1.3083984375,1.31162109375,1.31484375,1.32451171875,1.31162109375,1.32451171875,1.32451171875,1.32451171875,1.31484375,1.3212890625,1.31484375,1.31484375,1.3083984375,1.31162109375,1.31162109375,1.31162109375,1.2890625,1.2890625,1.28583984375,1.30517578125,1.27939453125,1.2890625,1.2826171875,1.2826171875,1.27939453125,1.28583984375,1.28583984375,1.27939453125,1.27294921875,1.27294921875,1.2890625,1.276171875,1.28583984375,1.276171875,1.27939453125,1.26650390625,1.28583984375,1.26005859375,1.27294921875,1.2697265625,1.29228515625,1.27294921875,1.2826171875,1.27294921875,1.276171875,1.2697265625,1.2697265625,1.27294921875,1.27939453125,1.27294921875,1.2697265625,1.2697265625,1.27939453125,1.27939453125,1.2697265625,1.27294921875,1.27294921875,1.27939453125,1.26650390625,1.2890625,1.2955078125,1.31806640625,1.30517578125,1.32451171875,1.31484375,1.31484375,1.29228515625,1.31162109375,1.2955078125,1.2568359375,1.2697265625,1.28583984375,1.2568359375,1.26328125,1.26650390625,1.26650390625,1.26005859375,1.250390625,1.2697265625,1.27294921875,1.27294921875,1.25361328125,1.28583984375,1.4373046875,1.8498046875,2.2365234375,3.0873046875,2.83916015625,1.26328125,0.244921875,0.3802734375,0.6251953125,0.8958984375,1.1150390625,1.198828125,1.224609375,1.24072265625,1.24072265625,1.26005859375,1.26650390625,1.27294921875,1.27294921875,1.26650390625,1.28583984375,1.2697265625,1.27939453125,1.2890625,1.28583984375,1.27939453125,1.30517578125,1.2890625,1.31162109375,1.301953125,1.33095703125,1.31806640625,1.35029296875,1.3470703125,1.3728515625,1.36640625,1.3986328125,1.405078125,1.41796875,1.42119140625,1.41474609375,1.405078125,1.3986328125,1.379296875,1.34384765625,1.30517578125,1.23427734375,1.2052734375,1.16015625,1.13115234375,1.10859375,1.12470703125,1.15048828125,1.18916015625,1.2052734375,1.250390625,1.26005859375,1.2890625,1.29228515625,1.29873046875,1.29228515625,1.29228515625,1.2890625,1.29873046875,1.30517578125,1.3083984375,1.3083984375,1.31162109375,1.3212890625,1.30517578125,1.31806640625,1.31806640625,1.327734375,1.31806640625,1.31806640625,1.31806640625,1.3212890625,1.31484375,1.31484375,1.3083984375,1.3083984375,1.2955078125,1.3083984375,1.27939453125,1.30517578125,1.2955078125,1.2890625,1.29228515625,1.28583984375,1.2890625,1.2826171875,1.276171875,1.28583984375,1.28583984375,1.29228515625,1.28583984375,1.276171875,1.2826171875,1.276171875,1.28583984375,1.27294921875,1.2890625,1.2826171875,1.28583984375,1.26650390625,1.27939453125,1.27294921875,1.2826171875,1.27294921875,1.27939453125,1.27294921875,1.27294921875,1.27294921875,1.2826171875,1.27939453125,1.27294921875,1.26650390625,1.2697265625,1.2826171875,1.2697265625,1.27939453125,1.2697265625,1.276171875,1.27294921875,1.27939453125,1.26328125,1.29873046875,1.30517578125,1.3212890625,1.31484375,1.31806640625,1.31162109375,1.31484375,1.301953125,1.3083984375,1.27294921875,1.2568359375,1.2697265625,1.276171875,1.26328125,1.26650390625,1.2568359375,1.250390625,1.2568359375,1.26005859375,1.26005859375,1.26005859375,1.26005859375,1.26005859375,1.31484375,1.56943359375,2.00126953125,2.475,3.1775390625,2.58779296875,0.53173828125,0.2771484375,0.4640625,0.734765625,0.9861328125,1.147265625,1.21171875,1.21171875,1.2310546875,1.250390625,1.26650390625,1.26005859375,1.2697265625,1.276171875,1.2697265625,1.27939453125,1.2697265625,1.29228515625,1.29228515625,1.29873046875,1.2890625,1.301953125,1.2955078125,1.31806640625,1.301953125,1.327734375,1.3341796875,1.36640625,1.36640625,1.379296875,1.38251953125,1.41474609375,1.41796875,1.4373046875,1.42763671875,1.4244140625,1.430859375,1.405078125,1.38251953125,1.34384765625,1.3083984375,1.2568359375,1.21494140625,1.16982421875,1.13759765625,1.12470703125,1.147265625,1.15048828125,1.198828125,1.22138671875,1.2568359375,1.25361328125,1.2826171875,1.29228515625,1.3083984375,1.2890625,1.2955078125,1.28583984375,1.29228515625,1.2955078125,1.29873046875,1.30517578125,1.30517578125,1.3083984375,1.3212890625,1.31484375,1.31484375,1.31806640625,1.3083984375,1.3212890625,1.30517578125,1.3212890625,1.31806640625,1.31806640625,1.31162109375,1.31484375,1.301953125,1.3083984375,1.29228515625,1.301953125,1.28583984375,1.2955078125,1.27939453125,1.2890625,1.2826171875,1.28583984375,1.28583984375,1.27939453125,1.26328125,1.26650390625,1.27294921875,1.276171875,1.28583984375,1.2697265625,1.27939453125,1.26005859375,1.27939453125,1.26005859375,1.2697265625,1.2568359375,1.276171875,1.26650390625,1.2697265625,1.26650390625,1.276171875,1.2568359375,1.2697265625,1.2697265625,1.26328125,1.26328125,1.2697265625,1.27294921875,1.26005859375,1.26650390625,1.26328125,1.2697265625,1.26650390625,1.276171875,1.29873046875,1.31484375,1.30517578125,1.327734375,1.30517578125,1.31162109375,1.29873046875,1.31484375,1.2697265625,1.26005859375,1.26005859375,1.26328125,1.24072265625,1.26650390625,1.26328125,1.24716796875,1.2439453125,1.24072265625,1.250390625,1.2568359375,1.250390625,1.250390625,1.2890625,1.51142578125,1.94326171875,2.3525390625,3.1130859375,2.60390625,0.48017578125,0.22236328125,0.45439453125,0.7154296875,0.966796875,1.147265625,1.2181640625,1.2310546875,1.250390625,1.2439453125,1.27294921875,1.27294921875,1.28583984375,1.29228515625,1.29228515625,1.29228515625,1.2826171875,1.2955078125,1.2890625,1.30517578125,1.29873046875,1.31484375,1.32451171875,1.32451171875,1.327734375,1.340625,1.35029296875,1.36962890625,1.379296875,1.4115234375,1.405078125,1.44052734375,1.4501953125,1.46953125,1.4630859375,1.482421875,1.46630859375,1.47275390625,1.4501953125,1.4115234375,1.36640625,1.31806640625,1.276171875,1.21494140625,1.198828125,1.16337890625,1.1666015625,1.18271484375,1.21171875,1.2310546875,1.250390625,1.2568359375,1.27939453125,1.26650390625,1.28583984375,1.276171875,1.2890625,1.276171875,1.29228515625,1.27294921875,1.2826171875,1.2826171875,1.2890625,1.29873046875,1.2955078125,1.3083984375,1.301953125,1.301953125,1.3083984375,1.31162109375,1.30517578125,1.31162109375,1.29228515625,1.30517578125,1.2890625,1.30517578125,1.27939453125,1.29228515625,1.2697265625,1.2890625,1.276171875,1.28583984375,1.2697265625,1.2826171875,1.26650390625,1.26650390625,1.26328125,1.26328125,1.26005859375,1.26328125,1.27294921875,1.26005859375,1.27294921875,1.26328125,1.2697265625,1.26005859375,1.26328125,1.26650390625,1.276171875,1.25361328125,1.2697265625,1.26650390625,1.26328125,1.2439453125,1.26650390625,1.2568359375,1.26328125,1.25361328125,1.2697265625,1.24716796875,1.2697265625,1.24072265625,1.2568359375,1.25361328125,1.24716796875,1.2568359375,1.27294921875,1.2890625,1.28583984375,1.2955078125,1.29228515625,1.29873046875,1.28583984375,1.29228515625,1.250390625,1.25361328125,1.2439453125,1.26005859375,1.24072265625,1.2568359375,1.23427734375,1.2568359375,1.24072265625,1.2568359375,1.250390625,1.2568359375,1.250390625,1.2568359375,1.276171875,1.4501953125,1.84658203125,2.1849609375,3.03896484375,2.83916015625,1.2181640625,0.322265625,0.47373046875,0.683203125,0.92490234375,1.12470703125,1.20205078125,1.22783203125,1.2439453125,1.2375,1.26650390625,1.26650390625,1.28583984375,1.2826171875,1.2890625,1.29228515625,1.28583984375,1.29873046875,1.29873046875,1.3083984375,1.29873046875,1.3083984375,1.30517578125,1.31484375,1.32451171875,1.3341796875,1.34384765625,1.36640625,1.3599609375,1.38896484375,1.379296875,1.41474609375,1.4244140625,1.4373046875,1.43408203125,1.43408203125,1.4244140625,1.42763671875,1.40185546875,1.38251953125,1.33740234375,1.28583984375,1.2310546875,1.1859375,1.1666015625,1.13115234375,1.1408203125,1.16982421875,1.198828125,1.224609375,1.25361328125,1.26650390625,1.2890625,1.29228515625,1.3083984375,1.29228515625,1.3083984375,1.29228515625,1.31162109375,1.28583984375,1.30517578125,1.301953125,1.301953125,1.2955078125,1.31162109375,1.2955078125,1.3083984375,1.31162109375,1.3083984375,1.3083984375,1.31484375,1.31162109375,1.31162109375,1.29873046875,1.3083984375,1.301953125,1.2955078125,1.2955078125,1.28583984375,1.29228515625,1.2826171875,1.28583984375,1.2826171875,1.2826171875,1.2697265625,1.2890625,1.27294921875,1.2826171875,1.2697265625,1.27294921875,1.27939453125,1.26328125,1.2697265625,1.26328125,1.26650390625,1.27939453125,1.27294921875,1.26650390625,1.2826171875,1.2697265625,1.27939453125,1.26005859375,1.27294921875,1.26650390625,1.27939453125,1.27294921875,1.27939453125,1.26650390625,1.28583984375,1.26328125,1.27939453125,1.2697265625,1.276171875,1.26650390625,1.2826171875,1.276171875,1.301953125,1.30517578125,1.31484375,1.31806640625,1.31162109375,1.3083984375,1.31162109375,1.31162109375,1.29228515625,1.2697265625,1.26005859375,1.29228515625,1.26005859375,1.2697265625,1.26328125,1.2697265625,1.25361328125,1.26650390625,1.2439453125,1.26005859375,1.26005859375,1.26650390625,1.27939453125,1.4953125,1.9013671875,2.26552734375,3.0357421875,2.6361328125,0.9216796875,0.38349609375,0.50595703125,0.74443359375,0.9603515625,1.1408203125,1.198828125,1.20849609375,1.24072265625,1.24716796875,1.26328125,1.2568359375,1.26650390625,1.2697265625,1.26650390625,1.26328125,1.27939453125,1.26328125,1.29228515625,1.2890625,1.2955078125,1.29228515625,1.3083984375,1.301953125,1.31484375,1.31484375,1.327734375,1.340625,1.3470703125,1.36640625,1.37607421875,1.3921875,1.39541015625,1.4115234375,1.4115234375,1.4115234375,1.40185546875,1.3921875,1.36318359375,1.35673828125,1.27939453125,1.25361328125,1.19560546875,1.16982421875,1.134375,1.12470703125,1.134375,1.1666015625,1.18916015625,1.2181640625,1.24072265625,1.26650390625,1.2826171875,1.27939453125,1.2890625,1.29228515625,1.301953125,1.2890625,1.3083984375,1.2955078125,1.31162109375,1.29228515625,1.3083984375,1.301953125,1.3083984375,1.2955078125,1.31806640625,1.30517578125,1.31484375,1.3083984375,1.3083984375,1.30517578125,1.3083984375,1.30517578125,1.3083984375,1.301953125,1.2955078125,1.29873046875,1.29228515625,1.2955078125,1.29228515625,1.29228515625,1.27294921875,1.29228515625,1.276171875,1.2890625,1.27294921875,1.28583984375,1.2826171875,1.28583984375,1.27939453125,1.2826171875,1.276171875,1.28583984375,1.2697265625,1.27939453125,1.27939453125,1.2826171875,1.2826171875,1.27939453125,1.27939453125,1.27939453125,1.2890625,1.2697265625,1.276171875,1.276171875,1.2826171875,1.2826171875,1.2890625,1.2697265625,1.28583984375,1.276171875,1.27939453125,1.2697265625,1.28583984375,1.276171875,1.31484375,1.31162109375,1.31806640625,1.31484375,1.31806640625,1.31162109375,1.3083984375,1.301953125,1.2826171875,1.26328125,1.2697265625,1.27294921875,1.2568359375,1.26650390625,1.26328125,1.26650390625,1.25361328125,1.2697265625,1.2568359375,1.276171875,1.26650390625,1.28583984375,1.353515625,1.64033203125,2.049609375,2.60712890625,2.93583984375,2.07216796875,0.3802734375,0.40283203125,0.58974609375,0.837890625,1.07958984375,1.16982421875,1.2375,1.22138671875,1.2568359375,1.2568359375,1.27294921875,1.26328125,1.26650390625,1.2697265625,1.2826171875,1.276171875,1.29228515625,1.2826171875,1.29873046875,1.2955078125,1.30517578125,1.301953125,1.31162109375,1.30517578125,1.327734375,1.3341796875,1.33095703125,1.3470703125,1.36318359375,1.36318359375,1.3857421875,1.40830078125,1.405078125,1.42119140625,1.41474609375,1.41796875,1.39541015625,1.38896484375,1.35029296875,1.3341796875,1.276171875,1.24716796875,1.18271484375,1.1537109375,1.121484375,1.14404296875,1.1537109375,1.198828125,1.21171875,1.25361328125,1.26005859375,1.27294921875,1.2826171875,1.29228515625,1.2955078125,1.301953125,1.301953125,1.301953125,1.301953125,1.301953125,1.3083984375,1.301953125,1.31484375,1.31484375,1.31484375,1.3083984375,1.3212890625,1.3083984375,1.3212890625,1.301953125,1.31484375,1.2955078125,1.3083984375,1.29873046875,1.3083984375,1.301953125,1.30517578125,1.2955078125,1.29873046875,1.29228515625,1.2890625,1.2890625,1.28583984375,1.2890625,1.27939453125,1.2890625,1.27939453125,1.2890625,1.27294921875,1.29228515625,1.276171875,1.2890625,1.276171875,1.2890625,1.27294921875,1.2890625,1.26650390625,1.27939453125,1.27294921875,1.276171875,1.26650390625,1.27939453125,1.276171875,1.27939453125,1.26328125,1.27294921875,1.27939453125,1.27294921875,1.276171875,1.27939453125,1.27939453125,1.27294921875,1.27294921875,1.2697265625,1.276171875,1.276171875,1.30517578125,1.301953125,1.3212890625,1.3083984375,1.31806640625,1.31162109375,1.30517578125,1.29228515625,1.2826171875,1.26005859375,1.27939453125,1.2697265625,1.26650390625,1.2568359375,1.26650390625,1.26328125,1.250390625,1.2697265625,1.25361328125,1.2697265625,1.26650390625,1.276171875,1.35673828125,1.6693359375,2.075390625,2.66513671875,2.83271484375,1.86591796875,0.31259765625,0.38349609375,0.58974609375,0.85400390625,1.08603515625,1.1794921875,1.22138671875,1.2375,1.24716796875,1.2568359375,1.27294921875,1.276171875,1.28583984375,1.28583984375,1.28583984375,1.276171875,1.2826171875,1.28583984375,1.29873046875,1.29228515625,1.31484375,1.301953125,1.31806640625,1.31162109375,1.33740234375,1.3341796875
1.2955078125,1.30517578125,1.29228515625,1.301953125,1.2890625,1.301953125,1.28583984375,1.30517578125,1.2826171875,1.2955078125,1.2890625,1.2955078125,1.29228515625,1.27939453125,1.2890625,1.29228515625,1.2890625,1.28583984375,1.2890625,1.28583984375,1.2890625,1.2955078125,1.31806640625,1.3083984375,1.32451171875,1.31806640625,1.3212890625,1.301953125,1.31484375,1.29228515625,1.2826171875,1.26650390625,1.28583984375,1.26328125,1.27939453125,1.26328125,1.26650390625,1.26005859375,1.26328125,1.26005859375,1.2697265625,1.2697265625,1.26005859375,1.28583984375,1.44697265625,1.85625,2.18173828125,2.990625,2.7392578125,1.18916015625,0.3416015625,0.4962890625,0.70576171875,0.9345703125,1.1279296875,1.20205078125,1.2181640625,1.2439453125,1.2439453125,1.26005859375,1.2568359375,1.26328125,1.2697265625,1.2697265625,1.276171875,1.27939453125,1.276171875,1.27939453125,1.29228515625,1.2826171875,1.29228515625,1.2955078125,1.31484375,1.3083984375,1.31484375,1.31162109375,1.33740234375,1.33740234375,1.35673828125,1.35673828125,1.3921875,1.379296875,1.40830078125,1.40185546875,1.40830078125,1.39541015625,1.3857421875,1.36318359375,1.340625,1.301953125,1.25361328125,1.21494140625,1.16015625,1.13759765625,1.1279296875,1.14404296875,1.15693359375,1.19560546875,1.22138671875,1.25361328125,1.26650390625,1.28583984375,1.28583984375,1.29873046875,1.28583984375,1.30517578125,1.29228515625,1.30517578125,1.2955078125,1.3083984375,1.301953125,1.3083984375,1.30517578125,1.31162109375,1.301953125,1.301953125,1.3212890625,1.3083984375,1.31162109375,1.30517578125,1.30517578125,1.2955078125,1.3083984375,1.301953125,1.301953125,1.28583984375,1.2955078125,1.28583984375,1.29228515625,1.2826171875,1.301953125,1.2890625,1.29228515625,1.27939453125,1.2826171875,1.27939453125,1.28583984375,1.27939453125,1.27939453125,1.27939453125,1.2826171875,1.2890625,1.27939453125,1.2826171875,1.27939453125,1.276171875,1.2697265625,1.2826171875,1.27294921875,1.276171875,1.2697265625,1.2890625,1.26328125,1.27294921875,1.26650390625,1.276171875,1.276171875,1.27939453125,1.2697265625,1.29873046875,1.301953125,1.31484375,1.31484375,1.31162109375,1.31162109375,1.29228515625,1.301953125,1.2826171875,1.26005859375,1.26650390625,1.27939453125,1.250390625,1.27294921875,1.2568359375,1.26328125,1.24716796875,1.26328125,1.2568359375,1.2697265625,1.26005859375,1.276171875,1.29873046875,1.5662109375,1.959375,2.40087890625,3.01318359375,2.384765625,0.502734375,0.3673828125,0.554296875,0.79599609375,1.02158203125,1.16337890625,1.2181640625,1.2310546875,1.24716796875,1.250390625,1.2697265625,1.26005859375,1.2826171875,1.276171875,1.2826171875,1.27294921875,1.2890625,1.27939453125,1.30517578125,1.2890625,1.301953125,1.29873046875,1.31484375,1.31162109375,1.32451171875,1.32451171875,1.340625,1.3470703125,1.35673828125,1.37607421875,1.37607421875,1.3986328125,1.405078125,1.41474609375,1.4115234375,1.42119140625,1.39541015625,1.38896484375,1.353515625,1.3470703125,1.28583984375,1.25361328125,1.1859375,1.16015625,1.1279296875,1.13759765625,1.13759765625,1.173046875,1.19560546875,1.2375,1.26005859375,1.276171875,1.2826171875,1.2826171875,1.2955078125,1.2890625,1.30517578125,1.29228515625,1.29873046875,1.2955078125,1.31162109375,1.2890625,1.31162109375,1.29873046875,1.31162109375,1.30517578125,1.3212890625,1.301953125,1.31806640625,1.30517578125,1.31806640625,1.301953125,1.3083984375,1.30517578125,1.301953125,1.301953125,1.2955078125,1.29228515625,1.2890625,1.2890625,1.2826171875,1.29228515625,1.2826171875,1.2955078125,1.28583984375,1.2890625,1.276171875,1.2890625,1.27294921875,1.2826171875,1.27939453125,1.28583984375,1.27294921875,1.2826171875,1.2697265625,1.2826171875,1.2826171875,1.27939453125,1.27294921875,1.27294921875,1.27939453125,1.27939453125,1.2826171875,1.27294921875,1.27939453125,1.2826171875,1.2890625,1.27294921875,1.28583984375,1.27294921875,1.2955078125,1.29873046875,1.327734375,1.31162109375,1.33095703125,1.31484375,1.31162109375,1.29873046875,1.30517578125,1.276171875,1.26650390625,1.27294921875,1.27294921875,1.2697265625,1.26650390625,1.26328125,1.2568359375,1.25361328125,1.25361328125,1.26328125,1.26650390625,1.2697265625,1.27294921875,1.4115234375,1.7337890625,2.12373046875,2.77470703125,2.7263671875,1.49853515625,0.309375,0.41572265625,0.6509765625,0.889453125,1.10859375,1.18271484375,1.23427734375,1.2375,1.24716796875,1.26005859375,1.26650390625,1.27294921875,1.27939453125,1.2890625,1.27294921875,1.28583984375,1.28583984375,1.2955078125,1.29228515625,1.301953125,1.2955078125,1.31806640625,1.301953125,1.31484375,1.31806640625,1.33095703125,1.34384765625,1.3599609375,1.3599609375,1.38896484375,1.38896484375,1.40830078125,1.42119140625,1.430859375,1.4244140625,1.41796875,1.40830078125,1.379296875,1.353515625,1.31806640625,1.28583984375,1.22783203125,1.18916015625,1.15693359375,1.147265625,1.134375,1.173046875,1.19560546875,1.2375,1.250390625,1.26328125,1.276171875,1.2955078125,1.29228515625,1.29873046875,1.29228515625,1.29228515625,1.29873046875,1.29873046875,1.30517578125,1.30517578125,1.301953125,1.30517578125,1.31162109375,1.31162109375,1.31484375,1.3083984375,1.31806640625,1.31484375,1.3083984375,1.301953125,1.31484375,1.29228515625,1.301953125,1.29873046875,1.31162109375,1.27939453125,1.301953125,1.2890625,1.29228515625,1.28583984375,1.28583984375,1.27939453125,1.2826171875,1.28583984375,1.28583984375,1.27939453125,1.27939453125,1.276171875,1.276171875,1.2826171875,1.27294921875,1.2826171875,1.2697265625,1.2826171875,1.27939453125,1.2826171875,1.276171875,1.28583984375,1.2697265625,1.276171875,1.27294921875,1.28583984375,1.276171875,1.2890625,1.276171875,1.2890625,1.276171875,1.276171875,1.276171875,1.28583984375,1.31162109375,1.31162109375,1.32451171875,1.3212890625,1.32451171875,1.301953125,1.31484375,1.28583984375,1.28583984375,1.250390625,1.2826171875,1.2568359375,1.2697265625,1.250390625,1.2697265625,1.250390625,1.276171875,1.250390625,1.26005859375,1.26328125,1.26328125,1.26005859375,1.37607421875,1.65966796875,2.06572265625,2.7134765625,2.80693359375,1.65,0.193359375,0.3158203125,0.5478515625,0.84111328125,1.0828125,1.18271484375,1.21171875,1.23427734375,1.22783203125,1.25361328125,1.2568359375,1.27294921875,1.26005859375,1.27939453125,1.26005859375,1.27939453125,1.28583984375,1.26650390625,1.276171875,1.2955078125,1.29228515625,1.3083984375,1.3083984375,1.327734375,1.33095703125,1.340625,1.35029296875,1.35673828125,1.37607421875,1.38896484375,1.41474609375,1.41474609375,1.44052734375,1.44052734375,1.456640625,1.430859375,1.43408203125,1.3921875,1.3857421875,1.35029296875,1.31806640625,1.26005859375,1.22138671875,1.17626953125,1.1537109375,1.15048828125,1.16982421875,1.19560546875,1.224609375,1.25361328125,1.26005859375,1.28583984375,1.27939453125,1.29873046875,1.28583984375,1.29873046875,1.27939453125,1.3083984375,1.30517578125,1.31162109375,1.30517578125,1.31162109375,1.31162109375,1.327734375,1.31162109375,1.31484375,1.31162109375,1.3341796875,1.31806640625,1.31484375,1.31806640625,1.30517578125,1.32451171875,1.301953125,1.3083984375,1.301953125,1.30517578125,1.2955078125,1.301953125,1.2890625,1.301953125,1.27939453125,1.28583984375,1.2890625,1.28583984375,1.27939453125,1.2890625,1.27294921875,1.2826171875,1.27939453125,1.2890625,1.27294921875,1.276171875,1.276171875,1.2826171875,1.27939453125,1.276171875,1.27939453125,1.276171875,1.27939453125,1.276171875,1.276171875,1.2697265625,1.27294921875,1.2697265625,1.27939453125,1.26650390625,1.276171875,1.27294921875,1.2826171875,1.2697265625,1.28583984375,1.29228515625,1.31162109375,1.31162109375,1.31806640625,1.29873046875,1.30517578125,1.29228515625,1.2955078125,1.276171875,1.25361328125,1.27294921875,1.26005859375,1.26328125,1.24716796875,1.26650390625,1.2439453125,1.25361328125,1.25361328125,1.2697265625,1.250390625,1.2568359375,1.2568359375,1.36318359375,1.62744140625,2.049609375,2.6361328125,2.9970703125,2.0044921875,0.270703125,0.31904296875,0.554296875,0.81533203125,1.0763671875,1.16982421875,1.2181640625,1.2310546875,1.24072265625,1.26005859375,1.25361328125,1.27294921875,1.26650390625,1.2890625,1.2697265625,1.28583984375,1.276171875,1.29228515625,1.2826171875,1.31162109375,1.28583984375,1.3083984375,1.30517578125,1.32451171875,1.31806640625,1.33095703125,1.3341796875,1.3470703125,1.36962890625,1.3857421875,1.3921875,1.405078125,1.4244140625,1.42763671875,1.43408203125,1.41796875,1.4244140625,1.3921875,1.38251953125,1.33095703125,1.301953125,1.250390625,1.198828125,1.1537109375,1.14404296875,1.13115234375,1.16015625,1.16982421875,1.2181640625,1.22783203125,1.26005859375,1.26328125,1.276171875,1.27939453125,1.276171875,1.28583984375,1.2890625,1.2890625,1.29228515625,1.29873046875,1.2890625,1.301953125,1.29873046875,1.3083984375,1.30517578125,1.31162109375,1.3083984375,1.32451171875,1.301953125,1.32451171875,1.301953125,1.31484375,1.301953125,1.3083984375,1.301953125,1.3083984375,1.2890625,1.29873046875,1.29228515625,1.2890625,1.2890625,1.2826171875,1.27939453125,1.2826171875,1.28583984375,1.2826171875,1.2826171875,1.276171875,1.2890625,1.276171875,1.2826171875,1.2697265625,1.28583984375,1.276171875,1.2826171875,1.27939453125,1.276171875,1.27294921875,1.2826171875,1.2697265625,1.27939453125,1.27294921875,1.276171875,1.27294921875,1.27294921875,1.27939453125,1.27294921875,1.276171875,1.27939453125,1.27939453125,1.26650390625,1.27939453125,1.27294921875,1.30517578125,1.29873046875,1.31806640625,1.31484375,1.3212890625,1.3212890625,1.3083984375,1.29873046875,1.2955078125,1.26650390625,1.276171875,1.27939453125,1.2697265625,1.26328125,1.2568359375,1.26005859375,1.25361328125,1.26328125,1.26005859375,1.2697265625,1.2568359375,1.26328125,1.27294921875,1.44052734375,1.81435546875,2.17529296875,2.96806640625,2.81015625,1.28583984375,0.35771484375,0.46728515625,0.7025390625,0.90556640625,1.1279296875,1.1859375,1.224609375,1.224609375,1.24072265625,1.24716796875,1.26005859375,1.26005859375,1.27939453125,1.26328125,1.276171875,1.2890625,1.2826171875,1.2826171875,1.2826171875,1.29873046875,1.2890625,1.3083984375,1.2955078125,1.3212890625,1.31806640625,1.33095703125,1.33740234375,1.35673828125,1.35673828125,1.3857421875,1.3857421875,1.41474609375,1.40830078125,1.42119140625,1.41474609375,1.40830078125,1.39541015625,1.37607421875,1.35029296875,1.31162109375,1.2697265625,1.21171875,1.173046875,1.134375,1.13115234375,1.12470703125,1.1537109375,1.1794921875,1.22783203125,1.2310546875,1.2697265625,1.2697265625,1.2826171875,1.2890625,1.2955078125,1.2826171875,1.30517578125,1.2890625,1.29873046875,1.301953125,1.301953125,1.30517578125,1.3083984375,1.3083984375,1.30517578125,1.3083984375,1.3083984375,1.31484375,1.30517578125,1.31806640625,1.301953125,1.31484375,1.2955078125,1.30517578125,1.2955078125,1.29873046875,1.28583984375,1.301953125,1.2826171875,1.29228515625,1.28583984375,1.29228515625,1.2826171875,1.28583984375,1.2826171875,1.27939453125,1.2826171875,1.27294921875,1.2826171875,1.276171875,1.27939453125,1.26650390625,1.27939453125,1.27294921875,1.27939453125,1.27294921875,1.2826171875,1.276171875,1.2826171875,1.26650390625,1.2826171875,1.276171875,1.2826171875,1.276171875,1.2890625,1.27294921875,1.2826171875,1.27294921875,1.2826171875,1.276171875,1.27939453125,1.27939453125,1.27939453125,1.29228515625,1.30517578125,1.31162109375,1.31806640625,1.3212890625,1.3083984375,1.31484375,1.30517578125,1.2955078125,1.26650390625,1.2826171875,1.27939453125,1.2697265625,1.26650390625,1.276171875,1.26328125,1.27294921875,1.25361328125,1.2697265625,1.26650390625,1.26650390625,1.26328125,1.2826171875,1.4373046875,1.81435546875,2.1591796875,2.9197265625,2.72958984375,1.26005859375,0.33515625,0.47373046875,0.69931640625,0.91201171875,1.134375,1.18916015625,1.224609375,1.23427734375,1.2568359375,1.250390625,1.2697265625,1.26005859375,1.276171875,1.27939453125,1.2826171875,1.2697265625,1.2826171875,1.29228515625,1.29228515625,1.2955078125,1.29873046875,1.3083984375,1.3083984375,1.3212890625,1.3212890625,1.340625,1.33740234375,1.35673828125,1.36318359375,1.38896484375,1.3857421875,1.40830078125,1.4115234375,1.4244140625,1.40830078125,1.41474609375,1.3921875,1.3857421875,1.34384765625,1.32451171875,1.26650390625,1.21494140625,1.173046875,1.1408203125,1.134375,1.134375,1.15693359375,1.18271484375,1.2181640625,1.24072265625,1.27294921875,1.27294921875,1.2890625,1.2826171875,1.2955078125,1.28583984375,1.3083984375,1.2955078125,1.301953125,1.2955078125,1.30517578125,1.301953125,1.301953125,1.30517578125,1.31484375,1.3083984375,1.3083984375,1.31484375,1.3083984375,1.31162109375,1.29873046875,1.3083984375,1.29873046875,1.30517578125,1.301953125,1.30517578125,1.2890625,1.29873046875,1.2826171875,1.2955078125,1.27939453125,1.29228515625,1.276171875,1.29228515625,1.2826171875,1.2890625,1.27294921875,1.28583984375,1.27294921875,1.2826171875,1.27939453125,1.27939453125,1.276171875,1.27939453125,1.276171875,1.27939453125,1.27294921875,1.27294921875,1.27939453125,1.26650390625,1.27939453125,1.26650390625,1.27939453125,1.26328125,1.27939453125,1.27294921875,1.276171875,1.2697265625,1.27939453125,1.2697265625,1.2826171875,1.26650390625,1.27939453125,1.27294921875,1.30517578125,1.29873046875,1.31162109375,1.31162109375,1.31484375,1.31484375,1.29873046875,1.30517578125,1.27939453125,1.26650390625,1.2697265625,1.2826171875,1.2568359375,1.27939453125,1.26005859375,1.26650390625,1.2568359375,1.26650390625,1.2568359375,1.276171875,1.26005859375,1.27294921875,1.2826171875,1.45341796875,1.83369140625,2.1720703125,2.91328125,2.63935546875,1.0828125,0.31259765625,0.4640625,0.7025390625,0.9345703125,1.13759765625,1.20205078125,1.224609375,1.24716796875,1.250390625,1.26650390625,1.26650390625,1.27939453125,1.27294921875,1.2890625,1.2826171875,1.29873046875,1.2826171875,1.2955078125,1.29873046875,1.30517578125,1.3083984375,1.31162109375,1.31162109375,1.327734375,1.3341796875,1.3341796875,1.34384765625,1.3599609375,1.3728515625,1.37607421875,1.40185546875,1.4115234375,1.42119140625,1.42763671875,1.4244140625,1.41474609375,1.4115234375,1.379296875,1.36318359375,1.3212890625,1.28583984375,1.2181640625,1.18916015625,1.147265625,1.147265625,1.14404296875,1.1794921875,1.1923828125,1.23427734375,1.26328125,1.276171875,1.2890625,1.2890625,1.2955078125,1.29873046875,1.3083984375,1.29873046875,1.31162109375,1.29873046875,1.3083984375,1.30517578125,1.31162109375,1.30517578125,1.31484375,1.31162109375,1.31484375,1.30517578125,1.31484375,1.30517578125,1.31162109375,1.30517578125,1.3083984375,1.29873046875,1.301953125,1.30517578125,1.29873046875,1.2955078125,1.29228515625,1.29228515625,1.28583984375,1.29228515625,1.2826171875,1.2890625,1.276171875,1.29228515625,1.2697265625,1.28583984375,1.27294921875,1.28583984375,1.27294921875,1.28583984375,1.27294921875,1.28583984375,1.2697265625,1.2826171875,1.27294921875,1.276171875,1.276171875,1.27939453125,1.27294921875,1.2697265625,1.2826171875,1.27939453125,1.27294921875,1.27294921875,1.2826171875,1.27294921875,1.27939453125,1.276171875,1.28583984375,1.2697265625,1.29228515625,1.2697265625,1.29228515625,1.2890625,1.31484375,1.30517578125,1.327734375,1.31484375,1.32451171875,1.3083984375,1.3083984375,1.2826171875,1.27294921875,1.2697265625,1.2697265625,1.2697265625,1.2697265625,1.26650390625,1.26005859375,1.2568359375,1.26005859375,1.2697265625,1.26650390625,1.2697265625,1.26650390625,1.28583984375,1.40185546875,1.7466796875,2.10439453125,2.797265625,2.616796875,1.2955078125,0.2126953125,0.3673828125,0.61875,0.8958984375,1.11181640625,1.1923828125,1.2375,1.2439453125,1.26005859375,1.26650390625,1.27939453125,1.2697265625,1.27939453125,1.27939453125,1.29873046875,1.27939453125,1.30517578125,1.2890625,1.31162109375,1.2955078125,1.31484375,1.29873046875,1.31806640625,1.31806640625,1.3341796875,1.33095703125,1.353515625,1.3599609375,1.37607421875,1.3857421875,1.40830078125,1.42119140625,1.42119140625,1.430859375,1.43408203125,1.42119140625,1.4115234375,1.38896484375,1.353515625,1.3341796875,1.27294921875,1.2310546875,1.173046875,1.1537109375,1.1279296875,1.14404296875,1.15693359375,1.20205078125,1.2052734375,1.250390625,1.2568359375,1.2826171875,1.27294921875,1.27294921875,1.2955078125,1.2955078125,1.2955078125,1.2955078125,1.3083984375,1.29873046875,1.30517578125,1.31162109375,1.32451171875,1.30517578125,1.31484375,1.31162109375,1.31806640625,1.31484375,1.3212890625,1.3083984375,1.32451171875,1.31162109375,1.3212890625,1.31162109375,1.31806640625
