1.36774193548387,1.37741935483871,1.36774193548387,1.37096774193548,1.36451612903226,1.36451612903226,1.36774193548387,1.36451612903226,1.36129032258065,1.35806451612903,1.36451612903226,1.37096774193548,1.36774193548387,1.36774193548387,1.35483870967742,1.36774193548387,1.36451612903226,1.35806451612903,1.36129032258065,1.35161290322581,1.36129032258065,1.35483870967742,1.36129032258065,1.36774193548387,1.37741935483871,1.37096774193548,1.39354838709677,1.38064516129032,1.4,1.4258064516129,1.45483870967742,1.44193548387097,1.44193548387097,1.40322580645161,1.36774193548387,1.35483870967742,1.35161290322581,1.34516129032258,1.35161290322581,1.34193548387097,1.33548387096774,1.34516129032258,1.33870967741935,1.30967741935484,1.1741935483871,1.19677419354839,1.54838709677419,2.07096774193548,2.49677419354839,2.18387096774194,1.75806451612903,1.4741935483871,1.36774193548387,1.37741935483871,1.34838709677419,1.34516129032258,1.32903225806452,1.33870967741935,1.33225806451613,1.33548387096774,1.33870967741935,1.33870967741935,1.34193548387097,1.34193548387097,1.34193548387097,1.34516129032258,1.34838709677419,1.35483870967742,1.36129032258065,1.35483870967742,1.36451612903226,1.36451612903226,1.3741935483871,1.38064516129032,1.4,1.40645161290323,1.42903225806452,1.44193548387097,1.47741935483871,1.49354838709677,1.53225806451613,1.54193548387097,1.56129032258065,1.56451612903226,1.55483870967742,1.5258064516129,1.49677419354839,1.46129032258065,1.43225806451613,1.4,1.38387096774194,1.36774193548387,1.35483870967742,1.34838709677419,1.34193548387097,1.34193548387097,1.33870967741935,1.34193548387097,1.33870967741935,1.33870967741935,1.33225806451613,1.34193548387097,1.33870967741935,1.34516129032258,1.34193548387097,1.34516129032258,1.34838709677419,1.35806451612903,1.35161290322581,1.35806451612903,1.35806451612903,1.35806451612903,1.35806451612903,1.36451612903226,1.36451612903226,1.35483870967742,1.36129032258065,1.35161290322581,1.35161290322581,1.34838709677419,1.35161290322581,1.34838709677419,1.35161290322581,1.34193548387097,1.34838709677419,1.34193548387097,1.35161290322581,1.34516129032258,1.35161290322581,1.34193548387097,1.35161290322581,1.34838709677419,1.35161290322581,1.34838709677419,1.35161290322581,1.35483870967742,1.36451612903226,1.36774193548387,1.38387096774194,1.37741935483871,1.39354838709677,1.4258064516129,1.42903225806452,1.43225806451613,1.41612903225806,1.36774193548387,1.34838709677419,1.34193548387097,1.33225806451613,1.33225806451613,1.32258064516129,1.3258064516129,1.31612903225806,1.3258064516129,1.31290322580645,1.22258064516129,1.12903225806452,1.33870967741935,1.7741935483871,2.44193548387097,2.50967741935484,2.02903225806452,1.70322580645161,1.45806451612903,1.37096774193548,1.33870967741935,1.3258064516129,1.31612903225806,1.31612903225806,1.31290322580645,1.32258064516129,1.31935483870968,1.32258064516129,1.32258064516129,1.32903225806452,1.3258064516129,1.33870967741935,1.33225806451613,1.34516129032258,1.33548387096774,1.34838709677419,1.34516129032258,1.35483870967742,1.36129032258065,1.36774193548387,1.3741935483871,1.39032258064516,1.4,1.42258064516129,1.43870967741935,1.46129032258065,1.49677419354839,1.51935483870968,1.54193548387097,1.55161290322581,1.55806451612903,1.53870967741935,1.51290322580645,1.47741935483871,1.44838709677419,1.41290322580645,1.38709677419355,1.36774193548387,1.36774193548387,1.34838709677419,1.35806451612903,1.34516129032258,1.35161290322581,1.34516129032258,1.35483870967742,1.34516129032258,1.35483870967742,1.34193548387097,1.34516129032258,1.34516129032258,1.34193548387097,1.34838709677419,1.34516129032258,1.34516129032258,1.35161290322581,1.35483870967742,1.36129032258065,1.36129032258065,1.35806451612903,1.36451612903226,1.35806451612903,1.36774193548387,1.35806451612903,1.36451612903226,1.35483870967742,1.36129032258065,1.35806451612903,1.36129032258065,1.34838709677419,1.36129032258065,1.35483870967742,1.35483870967742,1.35483870967742,1.35483870967742,1.35161290322581,1.35161290322581,1.35806451612903,1.35161290322581,1.35483870967742,1.35483870967742,1.35483870967742,1.35483870967742,1.35483870967742,1.35161290322581,1.35806451612903,1.36451612903226,1.37096774193548,1.36451612903226,1.38709677419355,1.38709677419355,1.39677419354839,1.40645161290323,1.44838709677419,1.44838709677419,1.44838709677419,1.42258064516129,1.36774193548387,1.35806451612903,1.34193548387097,1.33870967741935,1.33225806451613,1.33225806451613,1.3258064516129,1.32903225806452,1.32903225806452,1.31612903225806,1.18709677419355,1.14193548387097,1.43870967741935,1.94516129032258,2.60322580645161,2.46129032258065,1.96451612903226,1.64193548387097,1.43225806451613,1.3741935483871,1.34193548387097,1.33225806451613,1.31935483870968,1.32258064516129,1.32258064516129,1.31935483870968,1.32258064516129,1.3258064516129,1.32903225806452,1.32903225806452,1.33548387096774,1.33548387096774,1.34193548387097,1.34193548387097,1.34516129032258,1.34516129032258,1.34838709677419,1.35161290322581,1.36129032258065,1.37096774193548,1.38387096774194,1.39354838709677,1.41290322580645,1.4258064516129,1.45483870967742,1.47741935483871,1.51612903225806,1.53225806451613,1.55806451612903,1.56451612903226,1.55806451612903,1.55161290322581,1.51290322580645,1.48064516129032,1.43870967741935,1.41290322580645,1.38387096774194,1.37096774193548,1.36129032258065,1.35483870967742,1.35161290322581,1.34838709677419,1.34838709677419,1.35161290322581,1.34193548387097,1.34838709677419,1.34193548387097,1.34838709677419,1.34193548387097,1.34838709677419,1.34193548387097,1.34838709677419,1.34516129032258,1.34838709677419,1.34838709677419,1.34838709677419,1.35161290322581,1.35161290322581,1.35806451612903,1.35806451612903,1.35806451612903,1.35806451612903,1.36129032258065,1.35806451612903,1.36129032258065,1.35483870967742,1.35806451612903,1.35483870967742,1.34838709677419,1.35483870967742,1.35161290322581,1.34838709677419,1.35483870967742,1.35161290322581,1.35483870967742,1.34838709677419,1.34838709677419,1.34193548387097,1.35161290322581,1.34516129032258,1.34516129032258,1.34838709677419,1.34516129032258,1.34838709677419,1.35161290322581,1.35483870967742,1.35806451612903,1.36774193548387,1.38064516129032,1.38387096774194,1.38709677419355,1.41612903225806,1.44193548387097,1.45161290322581,1.43548387096774,1.41612903225806,1.35483870967742,1.34838709677419,1.33548387096774,1.33870967741935,1.32258064516129,1.3258064516129,1.31935483870968,1.32258064516129,1.32258064516129,1.30967741935484,1.18064516129032,1.12258064516129,1.41935483870968,1.9258064516129,2.61290322580645,2.47741935483871,1.94193548387097,1.61290322580645,1.40645161290323,1.36774193548387,1.33870967741935,1.32258064516129,1.31612903225806,1.31935483870968,1.32258064516129,1.32258064516129,1.3258064516129,1.31290322580645,1.33548387096774,1.3258064516129,1.33548387096774,1.33870967741935,1.33870967741935,1.33548387096774,1.33870967741935,1.34838709677419,1.35483870967742,1.35806451612903,1.36129032258065,1.37741935483871,1.38387096774194,1.4,1.41935483870968,1.43870967741935,1.46451612903226,1.49677419354839,1.51290322580645,1.54838709677419,1.56774193548387,1.58387096774194,1.56774193548387,1.56129032258065,1.52258064516129,1.49354838709677,1.43870967741935,1.40967741935484,1.38387096774194,1.36774193548387,1.36451612903226,1.34838709677419,1.35161290322581,1.34838709677419,1.34838709677419,1.34193548387097,1.33870967741935,1.35161290322581,1.34193548387097,1.34193548387097,1.34516129032258,1.33870967741935,1.33548387096774,1.34516129032258,1.35806451612903,1.34516129032258,1.34516129032258,1.34838709677419,1.36451612903226,1.34838709677419,1.35806451612903,1.36451612903226,1.36129032258065,1.36129032258065,1.34516129032258,1.36129032258065,1.35161290322581,1.35483870967742,1.34516129032258,1.35483870967742,1.35161290322581,1.36129032258065,1.35161290322581,1.35161290322581,1.35806451612903,1.34838709677419,1.35161290322581,1.34193548387097,1.35161290322581,1.35161290322581,1.34516129032258,1.34516129032258,1.33225806451613,1.35483870967742,1.34838709677419,1.36451612903226,1.35483870967742,1.3741935483871,1.36451612903226,1.38387096774194,1.40322580645161,1.43548387096774,1.44193548387097,1.43870967741935,1.40645161290323,1.35806451612903,1.34193548387097,1.33870967741935,1.33870967741935,1.33225806451613,1.33225806451613,1.3258064516129,1.32903225806452,1.32903225806452,1.31290322580645,1.2,1.13548387096774,1.38387096774194,1.85483870967742,2.45806451612903,2.36774193548387,1.8741935483871,1.55806451612903,1.3741935483871,1.36451612903226,1.34516129032258,1.32903225806452,1.32258064516129,1.31290322580645,1.33548387096774,1.32258064516129,1.32903225806452,1.33225806451613,1.3258064516129,1.34193548387097,1.32903225806452,1.34838709677419,1.35161290322581,1.34193548387097,1.35483870967742,1.35483870967742,1.36774193548387,1.36774193548387,1.38064516129032,1.38387096774194,1.4,1.40322580645161,1.42903225806452,1.44516129032258,1.47096774193548,1.50645161290323,1.51935483870968,1.55161290322581,1.55806451612903,1.5741935483871,1.5741935483871,1.55483870967742,1.50322580645161,1.48387096774194,1.44193548387097,1.41612903225806,1.39032258064516,1.37096774193548,1.35806451612903,1.37096774193548,1.35483870967742,1.36451612903226,1.33870967741935,1.35161290322581,1.33548387096774,1.35806451612903,1.34516129032258,1.34193548387097,1.34838709677419,1.35483870967742,1.35161290322581,1.35806451612903,1.36129032258065,1.36129032258065,1.37096774193548,1.36451612903226,1.3741935483871,1.36451612903226,1.37096774193548,1.37096774193548,1.36451612903226,1.36774193548387,1.3741935483871,1.36451612903226,1.37096774193548,1.36129032258065,1.36451612903226,1.35483870967742,1.36451612903226,1.35806451612903,1.35483870967742,1.35161290322581,1.36129032258065,1.35806451612903,1.34838709677419,1.35483870967742,1.36129032258065,1.35161290322581,1.35161290322581,1.35483870967742,1.36129032258065,1.36129032258065,1.36774193548387,1.38387096774194,1.38064516129032,1.38387096774194,1.41290322580645,1.44193548387097,1.44516129032258,1.43225806451613,1.40322580645161,1.36774193548387,1.34193548387097,1.34193548387097,1.33225806451613,1.33548387096774,1.32903225806452,1.32903225806452,1.3258064516129,1.32903225806452,1.31290322580645,1.19032258064516,1.15806451612903,1.45806451612903,1.92258064516129,2.49032258064516,2.31612903225806,1.86451612903226,1.55806451612903,1.39032258064516,1.37096774193548,1.34193548387097,1.33548387096774,1.3258064516129,1.3258064516129,1.31935483870968,1.33225806451613,1.32258064516129,1.32903225806452,1.3258064516129,1.33225806451613,1.33225806451613,1.33548387096774,1.33548387096774,1.34516129032258,1.34193548387097,1.35161290322581,1.35483870967742,1.36129032258065,1.36774193548387,1.3741935483871,1.38064516129032,1.39677419354839,1.41290322580645,1.43225806451613,1.45161290322581,1.48064516129032,1.51290322580645,1.52903225806452,1.55161290322581,1.55483870967742,1.55483870967742,1.53225806451613,1.50322580645161,1.46451612903226,1.43225806451613,1.4,1.38387096774194,1.36774193548387,1.36129032258065,1.35161290322581,1.34838709677419,1.34516129032258,1.34193548387097,1.34193548387097,1.34516129032258,1.33870967741935,1.34193548387097,1.33870967741935,1.34193548387097,1.33870967741935,1.34193548387097,1.34516129032258,1.34838709677419,1.35483870967742,1.35161290322581,1.35483870967742,1.35483870967742,1.36129032258065,1.36129032258065,1.36774193548387,1.36129032258065,1.35483870967742,1.36129032258065,1.36451612903226,1.36129032258065,1.36129032258065,1.35483870967742,1.34838709677419,1.35483870967742,1.35806451612903,1.35483870967742,1.35161290322581,1.35161290322581,1.35161290322581,1.35483870967742,1.35483870967742,1.35161290322581,1.35161290322581,1.35806451612903,1.35161290322581,1.35483870967742,1.34516129032258,1.35161290322581,1.34838709677419,1.35483870967742,1.35161290322581,1.36451612903226,1.36451612903226,1.37741935483871,1.38709677419355,1.38064516129032,1.39677419354839,1.43548387096774,1.44193548387097,1.43870967741935,1.42903225806452,1.38387096774194,1.35806451612903,1.35161290322581,1.34193548387097,1.33548387096774,1.33548387096774,1.32903225806452,1.33225806451613,1.3258064516129,1.3258064516129,1.24838709677419,1.13870967741935,1.29032258064516,1.71612903225806,2.3741935483871,2.57741935483871,2.11290322580645,1.76774193548387,1.49354838709677,1.38064516129032,1.35161290322581,1.33225806451613,1.32258064516129,1.31935483870968,1.31935483870968,1.32258064516129,1.3258064516129,1.32258064516129,1.32903225806452,1.32903225806452,1.33225806451613,1.33548387096774,1.33548387096774,1.33870967741935,1.34516129032258,1.34193548387097,1.34838709677419,1.34838709677419,1.36129032258065,1.36451612903226,1.37741935483871,1.38387096774194,1.40322580645161,1.41935483870968,1.43870967741935,1.46451612903226,1.49354838709677,1.51290322580645,1.54193548387097,1.55483870967742,1.55806451612903,1.55161290322581,1.52903225806452,1.49354838709677,1.45161290322581,1.4258064516129,1.4,1.37741935483871,1.36451612903226,1.35806451612903,1.34838709677419,1.35161290322581,1.34838709677419,1.35483870967742,1.34838709677419,1.35161290322581,1.34838709677419,1.34838709677419,1.34838709677419,1.35161290322581,1.34838709677419,1.35161290322581,1.34838709677419,1.35161290322581,1.35161290322581,1.35806451612903,1.35806451612903,1.35806451612903,1.36129032258065,1.36451612903226,1.36451612903226,1.36129032258065,1.36129032258065,1.36129032258065,1.35806451612903,1.35806451612903,1.36129032258065,1.34838709677419,1.36774193548387,1.35161290322581,1.35806451612903,1.35161290322581,1.36129032258065,1.35806451612903,1.35483870967742,1.35806451612903,1.35161290322581,1.35806451612903,1.35483870967742,1.35806451612903,1.35161290322581,1.35161290322581,1.35483870967742,1.35483870967742,1.35161290322581,1.35161290322581,1.35806451612903,1.36774193548387,1.36451612903226,1.3741935483871,1.38709677419355,1.38709677419355,1.38709677419355,1.43548387096774,1.44838709677419,1.44838709677419,1.43870967741935,1.41290322580645,1.36451612903226,1.34838709677419,1.34516129032258,1.34193548387097,1.33225806451613,1.3258064516129,1.33225806451613,1.33225806451613,1.32903225806452,1.3,1.15483870967742,1.17741935483871,1.54193548387097,2.11290322580645,2.64516129032258,2.36129032258065,1.9,1.56129032258065,1.40645161290323,1.35806451612903,1.34193548387097,1.31935483870968,1.32258064516129,1.31612903225806,1.32258064516129,1.31935483870968,1.31935483870968,1.32903225806452,1.32903225806452,1.32903225806452,1.33225806451613,1.33548387096774,1.33870967741935,1.33870967741935,1.34516129032258,1.34838709677419,1.34838709677419,1.35483870967742,1.36451612903226,1.36774193548387,1.38064516129032,1.39354838709677,1.40322580645161,1.43548387096774,1.45161290322581,1.49032258064516,1.50967741935484,1.54193548387097,1.56129032258065,1.5741935483871,1.57096774193548,1.54193548387097,1.50967741935484,1.46774193548387,1.43548387096774,1.40645161290323,1.38387096774194,1.36451612903226,1.35161290322581,1.35483870967742,1.34516129032258,1.34193548387097,1.33870967741935,1.34193548387097,1.34193548387097,1.33870967741935,1.34193548387097,1.33225806451613,1.34516129032258,1.33870967741935,1.34516129032258,1.34193548387097,1.34516129032258,1.34193548387097,1.34838709677419,1.35161290322581,1.35483870967742,1.35161290322581,1.35806451612903,1.35483870967742,1.35483870967742,1.36129032258065,1.35806451612903,1.36451612903226,1.35161290322581,1.34516129032258,1.35161290322581,1.35161290322581,1.35483870967742,1.34516129032258,1.34838709677419,1.35483870967742,1.34838709677419,1.34838709677419,1.33225806451613,1.35806451612903,1.34838709677419,1.35483870967742,1.34516129032258,1.35161290322581,1.34838709677419,1.35483870967742,1.35161290322581,1.35161290322581,1.35483870967742,1.36129032258065,1.36774193548387,1.3741935483871,1.38387096774194,1.3741935483871,1.4,1.43225806451613,1.44193548387097,1.44193548387097,1.42258064516129,1.37096774193548,1.35806451612903,1.33870967741935,1.35161290322581,1.33225806451613,1.33548387096774,1.31935483870968,1.3258064516129,1.3258064516129,1.31612903225806,1.23225806451613,1.11935483870968,1.32903225806452,1.80967741935484,2.46129032258065,2.49677419354839,1.98064516129032,1.63548387096774,1.39354838709677,1.37096774193548,1.34193548387097,1.32258064516129,1.31935483870968,1.31612903225806,1.32903225806452,1.31935483870968,1.33225806451613,1.32903225806452,1.33548387096774,1.33225806451613,1.34193548387097,1.33548387096774,1.33548387096774,1.34193548387097,1.34838709677419,1.35483870967742,1.36129032258065,1.36129032258065,1.36774193548387,1.37096774193548,1.38709677419355,1.39354838709677,1.41290322580645,1.42903225806452,1.45806451612903,1.49032258064516,1.51935483870968,1.54193548387097,1.55483870967742,1.56774193548387,1.57741935483871,1.55806451612903,1.51612903225806,1.49354838709677,1.44516129032258,1.4258064516129,1.39032258064516,1.3741935483871,1.36129032258065,1.35161290322581,1.35161290322581,1.34838709677419,1.35161290322581,1.33870967741935,1.32903225806452,1.33548387096774,1.34193548387097,1.33870967741935,1.33225806451613,1.34516129032258,1.33225806451613,1.34193548387097,1.35483870967742,1.34193548387097,1.34838709677419,1.35483870967742,1.36451612903226,1.36129032258065,1.36451612903226,1.36451612903226,1.36129032258065,1.36129032258065,1.36774193548387,1.35483870967742,1.36774193548387,1.35161290322581,1.35806451612903,1.35161290322581,1.34516129032258,1.35161290322581,1.35806451612903,1.35483870967742,1.34838709677419,1.34193548387097,1.35806451612903,1.35161290322581,1.35161290322581,1.34516129032258,1.34838709677419,1.36129032258065,1.34838709677419,1.35483870967742,1.35483870967742,1.3741935483871,1.35161290322581,1.38064516129032,1.38064516129032,1.37741935483871,1.38064516129032,1.4258064516129,1.45806451612903,1.4258064516129,1.43225806451613,1.39354838709677,1.36129032258065,1.35806451612903,1.34838709677419,1.34193548387097,1.33870967741935,1.33870967741935,1.33225806451613,1.34193548387097,1.33870967741935,1.3,1.18709677419355,1.21612903225806,1.57741935483871,2.08709677419355,2.4741935483871,2.13225806451613,1.73548387096774,1.46451612903226,1.38709677419355,1.37096774193548,1.35806451612903,1.34516129032258,1.33548387096774,1.33870967741935,1.34193548387097,1.34838709677419,1.34516129032258,1.34193548387097,1.34838709677419,1.34516129032258,1.35161290322581,1.35806451612903,1.36451612903226,1.36129032258065,1.36451612903226,1.37096774193548,1.37096774193548,1.38387096774194,1.38064516129032,1.39677419354839,1.40322580645161,1.4258064516129,1.43548387096774,1.46129032258065,1.48387096774194,1.50967741935484,1.53870967741935,1.56129032258065,1.5741935483871,1.57096774193548,1.57096774193548,1.54516129032258,1.50645161290323,1.47096774193548,1.42903225806452,1.40645161290323,1.38387096774194,1.3741935483871,1.36129032258065,1.35806451612903,1.35806451612903,1.35161290322581,1.36129032258065,1.33870967741935,1.35161290322581,1.34193548387097,1.34838709677419,1.33870967741935,1.34516129032258,1.34193548387097,1.34838709677419,1.35806451612903,1.35483870967742,1.35806451612903,1.35806451612903,1.36129032258065,1.36774193548387,1.36129032258065,1.36774193548387,1.36129032258065,1.36451612903226,1.35806451612903,1.36129032258065,1.35806451612903,1.35161290322581,1.35806451612903,1.35161290322581,1.35483870967742,1.34516129032258,1.34838709677419,1.34193548387097,1.35161290322581,1.34516129032258,1.34838709677419,1.34516129032258,1.34516129032258,1.34516129032258,1.34838709677419,1.34516129032258,1.34193548387097,1.33870967741935,1.34516129032258,1.34516129032258,1.35161290322581,1.35483870967742,1.36774193548387,1.36451612903226,1.3741935483871,1.38709677419355,1.41935483870968,1.43225806451613,1.41935483870968,1.40645161290323,1.34838709677419,1.34838709677419,1.3258064516129,1.33225806451613,1.31935483870968,1.31935483870968,1.31612903225806,1.31290322580645,1.31290322580645,1.30322580645161,1.19354838709677,1.12903225806452,1.3741935483871,1.82903225806452,2.47741935483871,2.4258064516129,1.94838709677419,1.63548387096774,1.4258064516129,1.35483870967742,1.32903225806452,1.31290322580645,1.30967741935484,1.29677419354839,1.31290322580645,1.3,1.31290322580645,1.30322580645161,1.31612903225806,1.30967741935484,1.31935483870968,1.31935483870968,1.32258064516129,1.3258064516129,1.33225806451613,1.32903225806452,1.33548387096774,1.33870967741935,1.34838709677419,1.35161290322581,1.36774193548387,1.3741935483871,1.39032258064516,1.40645161290323,1.43225806451613,1.46129032258065,1.48709677419355,1.51612903225806,1.52258064516129,1.54838709677419,1.54516129032258,1.53870967741935,1.50322580645161,1.48064516129032,1.44193548387097,1.41612903225806,1.38387096774194,1.3741935483871,1.36774193548387,1.36129032258065,1.35483870967742,1.35806451612903,1.35483870967742,1.36451612903226,1.36129032258065,1.36451612903226,1.36774193548387,1.36451612903226,1.3741935483871,1.3741935483871,1.3741935483871,1.3741935483871,1.38709677419355
1.35161290322581,1.35161290322581,1.35161290322581,1.34838709677419,1.34838709677419,1.34838709677419,1.34838709677419,1.34838709677419,1.34193548387097,1.34516129032258,1.34838709677419,1.33870967741935,1.34838709677419,1.33870967741935,1.35161290322581,1.33870967741935,1.35161290322581,1.34193548387097,1.34838709677419,1.34516129032258,1.34516129032258,1.34516129032258,1.34838709677419,1.34516129032258,1.35161290322581,1.36451612903226,1.36451612903226,1.37741935483871,1.38387096774194,1.38064516129032,1.40645161290323,1.43225806451613,1.44516129032258,1.43225806451613,1.41612903225806,1.36129032258065,1.34193548387097,1.33870967741935,1.3258064516129,1.32903225806452,1.32258064516129,1.3258064516129,1.32258064516129,1.32258064516129,1.30322580645161,1.17741935483871,1.11935483870968,1.41935483870968,1.93870967741935,2.62258064516129,2.48709677419355,1.96451612903226,1.62903225806452,1.42258064516129,1.35806451612903,1.33548387096774,1.31612903225806,1.30967741935484,1.30645161290323,1.30967741935484,1.31290322580645,1.31290322580645,1.3258064516129,1.30967741935484,1.32258064516129,1.31612903225806,1.33225806451613,1.32903225806452,1.33548387096774,1.33225806451613,1.34193548387097,1.34516129032258,1.35161290322581,1.35483870967742,1.36451612903226,1.37741935483871,1.39354838709677,1.40322580645161,1.4258064516129,1.45161290322581,1.48387096774194,1.51290322580645,1.54193548387097,1.55806451612903,1.56451612903226,1.57096774193548,1.55161290322581,1.52258064516129,1.47741935483871,1.44193548387097,1.40322580645161,1.38709677419355,1.36129032258065,1.35483870967742,1.34516129032258,1.35161290322581,1.33870967741935,1.33870967741935,1.34516129032258,1.33548387096774,1.33870967741935,1.33870967741935,1.33548387096774,1.33870967741935,1.32903225806452,1.33870967741935,1.33225806451613,1.33870967741935,1.33548387096774,1.34193548387097,1.34516129032258,1.34838709677419,1.35161290322581,1.34838709677419,1.36129032258065,1.35161290322581,1.36129032258065,1.35161290322581,1.35483870967742,1.35161290322581,1.34516129032258,1.35161290322581,1.35161290322581,1.35483870967742,1.35806451612903,1.35161290322581,1.35161290322581,1.34193548387097,1.34838709677419,1.34516129032258,1.34838709677419,1.34838709677419,1.35483870967742,1.34838709677419,1.34193548387097,1.35483870967742,1.35483870967742,1.36451612903226,1.37096774193548,1.39032258064516,1.36774193548387,1.38709677419355,1.42258064516129,1.44516129032258,1.44193548387097,1.43548387096774,1.39677419354839,1.35483870967742,1.34516129032258,1.34193548387097,1.32903225806452,1.33548387096774,1.32903225806452,1.32903225806452,1.32258064516129,1.32903225806452,1.29677419354839,1.15806451612903,1.18387096774194,1.55483870967742,2.11612903225806,2.56774193548387,2.19354838709677,1.75161290322581,1.45483870967742,1.35806451612903,1.36774193548387,1.34193548387097,1.33225806451613,1.3258064516129,1.33548387096774,1.32903225806452,1.33548387096774,1.33548387096774,1.33870967741935,1.34516129032258,1.33870967741935,1.33870967741935,1.34838709677419,1.34516129032258,1.34838709677419,1.34838709677419,1.36129032258065,1.3741935483871,1.36774193548387,1.38387096774194,1.37741935483871,1.40645161290323,1.40645161290323,1.44193548387097,1.45161290322581,1.49032258064516,1.50967741935484,1.53870967741935,1.55483870967742,1.56774193548387,1.5741935483871,1.5741935483871,1.54516129032258,1.5,1.46774193548387,1.42903225806452,1.4,1.38387096774194,1.36451612903226,1.35806451612903,1.35161290322581,1.34838709677419,1.34838709677419,1.33870967741935,1.34838709677419,1.34193548387097,1.35161290322581,1.34193548387097,1.35161290322581,1.33548387096774,1.34838709677419,1.34838709677419,1.35161290322581,1.35806451612903,1.36129032258065,1.36774193548387,1.37096774193548,1.36774193548387,1.37096774193548,1.36774193548387,1.36129032258065,1.36774193548387,1.36774193548387,1.35806451612903,1.36129032258065,1.35806451612903,1.35806451612903,1.35806451612903,1.35806451612903,1.36774193548387,1.35161290322581,1.36129032258065,1.34838709677419,1.35483870967742,1.34193548387097,1.35483870967742,1.34516129032258,1.35806451612903,1.36129032258065,1.35161290322581,1.36451612903226,1.38064516129032,1.37741935483871,1.38064516129032,1.41290322580645,1.43870967741935,1.43548387096774,1.42903225806452,1.40322580645161,1.36129032258065,1.34516129032258,1.33870967741935,1.33870967741935,1.33225806451613,1.3258064516129,1.31935483870968,1.32903225806452,1.32258064516129,1.30645161290323,1.16774193548387,1.16129032258065,1.49032258064516,2.00645161290323,2.55806451612903,2.3,1.83225806451613,1.51935483870968,1.36451612903226,1.36129032258065,1.33548387096774,1.3258064516129,1.31612903225806,1.31935483870968,1.31612903225806,1.31612903225806,1.32258064516129,1.32258064516129,1.32903225806452,1.31935483870968,1.33548387096774,1.32903225806452,1.34193548387097,1.33870967741935,1.34516129032258,1.34193548387097,1.35161290322581,1.35483870967742,1.36451612903226,1.37096774193548,1.38387096774194,1.39354838709677,1.40967741935484,1.43548387096774,1.45806451612903,1.48387096774194,1.51290322580645,1.53548387096774,1.55161290322581,1.55806451612903,1.55161290322581,1.52903225806452,1.49677419354839,1.46451612903226,1.42258064516129,1.4,1.36774193548387,1.36774193548387,1.34838709677419,1.35161290322581,1.33870967741935,1.34193548387097,1.34193548387097,1.33870967741935,1.33548387096774,1.33870967741935,1.33548387096774,1.33870967741935,1.33548387096774,1.33870967741935,1.33548387096774,1.34193548387097,1.34193548387097,1.34516129032258,1.34838709677419,1.34838709677419,1.36129032258065,1.35483870967742,1.35806451612903,1.35806451612903,1.36451612903226,1.35483870967742,1.35806451612903,1.35161290322581,1.36129032258065,1.35161290322581,1.35483870967742,1.35161290322581,1.35161290322581,1.34838709677419,1.35161290322581,1.34838709677419,1.34838709677419,1.34516129032258,1.35161290322581,1.34516129032258,1.34838709677419,1.34516129032258,1.34838709677419,1.35161290322581,1.34838709677419,1.35483870967742,1.36129032258065,1.36774193548387,1.37096774193548,1.39032258064516,1.37741935483871,1.41290322580645,1.42903225806452,1.45161290322581,1.43548387096774,1.42258064516129,1.36451612903226,1.35161290322581,1.33870967741935,1.33548387096774,1.3258064516129,1.32258064516129,1.32258064516129,1.31935483870968,1.31935483870968,1.30967741935484,1.18709677419355,1.13225806451613,1.41290322580645,1.91612903225806,2.60645161290323,2.49032258064516,1.98387096774194,1.65161290322581,1.44838709677419,1.36451612903226,1.34838709677419,1.32258064516129,1.3258064516129,1.31612903225806,1.3258064516129,1.31935483870968,1.3258064516129,1.3258064516129,1.32903225806452,1.32903225806452,1.33548387096774,1.33225806451613,1.33870967741935,1.34193548387097,1.34516129032258,1.34838709677419,1.35161290322581,1.35806451612903,1.36451612903226,1.37096774193548,1.38387096774194,1.4,1.40967741935484,1.43225806451613,1.44838709677419,1.48709677419355,1.50645161290323,1.54193548387097,1.55161290322581,1.57096774193548,1.56451612903226,1.55483870967742,1.51935483870968,1.48064516129032,1.44193548387097,1.42258064516129,1.38709677419355,1.37741935483871,1.36451612903226,1.35483870967742,1.35161290322581,1.35161290322581,1.35161290322581,1.35161290322581,1.34838709677419,1.34838709677419,1.34838709677419,1.34516129032258,1.35483870967742,1.34516129032258,1.35161290322581,1.34193548387097,1.35483870967742,1.34516129032258,1.35483870967742,1.35161290322581,1.35806451612903,1.35806451612903,1.36129032258065,1.35161290322581,1.36129032258065,1.36129032258065,1.35806451612903,1.35806451612903,1.35806451612903,1.36129032258065,1.35483870967742,1.35161290322581,1.35483870967742,1.35806451612903,1.35161290322581,1.35806451612903,1.35161290322581,1.35483870967742,1.35161290322581,1.35806451612903,1.34838709677419,1.35483870967742,1.35161290322581,1.35161290322581,1.34838709677419,1.35483870967742,1.34838709677419,1.35483870967742,1.35161290322581,1.36451612903226,1.36451612903226,1.37741935483871,1.38709677419355,1.38387096774194,1.40322580645161,1.43548387096774,1.45161290322581,1.44193548387097,1.4258064516129,1.36774193548387,1.35161290322581,1.34193548387097,1.33548387096774,1.32903225806452,1.33548387096774,1.31935483870968,1.32903225806452,1.31935483870968,1.31290322580645,1.18709677419355,1.11612903225806,1.37741935483871,1.89032258064516,2.6,2.54516129032258,2,1.66129032258065,1.43548387096774,1.36774193548387,1.34193548387097,1.3258064516129,1.30967741935484,1.30645161290323,1.31935483870968,1.31290322580645,1.32258064516129,1.31935483870968,1.3258064516129,1.3258064516129,1.32903225806452,1.32258064516129,1.33225806451613,1.33225806451613,1.34193548387097,1.33225806451613,1.34838709677419,1.34838709677419,1.35806451612903,1.35806451612903,1.37741935483871,1.38387096774194,1.40322580645161,1.4258064516129,1.44838709677419,1.48064516129032,1.51290322580645,1.53870967741935,1.56129032258065,1.5741935483871,1.5741935483871,1.56451612903226,1.51935483870968,1.49032258064516,1.44838709677419,1.41612903225806,1.39354838709677,1.37096774193548,1.35161290322581,1.35161290322581,1.34516129032258,1.34516129032258,1.33548387096774,1.33870967741935,1.33548387096774,1.33548387096774,1.33870967741935,1.33548387096774,1.34193548387097,1.32903225806452,1.33870967741935,1.33870967741935,1.33548387096774,1.34193548387097,1.34516129032258,1.34193548387097,1.34516129032258,1.34516129032258,1.36451612903226,1.35806451612903,1.35483870967742,1.34838709677419,1.35806451612903,1.33870967741935,1.35806451612903,1.34516129032258,1.35806451612903,1.35161290322581,1.34838709677419,1.34193548387097,1.34516129032258,1.35161290322581,1.34193548387097,1.34838709677419,1.34838709677419,1.35161290322581,1.34193548387097,1.35161290322581,1.35161290322581,1.34516129032258,1.34838709677419,1.35806451612903,1.35483870967742,1.35806451612903,1.35806451612903,1.38064516129032,1.37096774193548,1.39032258064516,1.40645161290323,1.45161290322581,1.44193548387097,1.43225806451613,1.4,1.36129032258065,1.33548387096774,1.33870967741935,1.32903225806452,1.32903225806452,1.32903225806452,1.3258064516129,1.32903225806452,1.3258064516129,1.3,1.16774193548387,1.14838709677419,1.49032258064516,2.04516129032258,2.59032258064516,2.3,1.81290322580645,1.50322580645161,1.35161290322581,1.37096774193548,1.33870967741935,1.33548387096774,1.31935483870968,1.32903225806452,1.32258064516129,1.32903225806452,1.32903225806452,1.33225806451613,1.33225806451613,1.33548387096774,1.33870967741935,1.34516129032258,1.34838709677419,1.34193548387097,1.34838709677419,1.35483870967742,1.36129032258065,1.36774193548387,1.36774193548387,1.38064516129032,1.39354838709677,1.41290322580645,1.43548387096774,1.45483870967742,1.4741935483871,1.49677419354839,1.53225806451613,1.54838709677419,1.56451612903226,1.57741935483871,1.56129032258065,1.53870967741935,1.50967741935484,1.4741935483871,1.43548387096774,1.41290322580645,1.38709677419355,1.36451612903226,1.35161290322581,1.34516129032258,1.34516129032258,1.35483870967742,1.34838709677419,1.34193548387097,1.32903225806452,1.34193548387097,1.33870967741935,1.35161290322581,1.33870967741935,1.34516129032258,1.34516129032258,1.34516129032258,1.35161290322581,1.35161290322581,1.35806451612903,1.36129032258065,1.37741935483871,1.36774193548387,1.37096774193548,1.36451612903226,1.36451612903226,1.36451612903226,1.36774193548387,1.36129032258065,1.36774193548387,1.35483870967742,1.35806451612903,1.35806451612903,1.35806451612903,1.35161290322581,1.36129032258065,1.35483870967742,1.36774193548387,1.34516129032258,1.36129032258065,1.35483870967742,1.35483870967742,1.35483870967742,1.35806451612903,1.36774193548387,1.3741935483871,1.37741935483871,1.39032258064516,1.38064516129032,1.39354838709677,1.43225806451613,1.45483870967742,1.43870967741935,1.42903225806452,1.37741935483871,1.35806451612903,1.34838709677419,1.34516129032258,1.34516129032258,1.33548387096774,1.33548387096774,1.32903225806452,1.33548387096774,1.32258064516129,1.26451612903226,1.14838709677419,1.3,1.71935483870968,2.32903225806452,2.46774193548387,1.99354838709677,1.64193548387097,1.40967741935484,1.37096774193548,1.35806451612903,1.34193548387097,1.32903225806452,1.33225806451613,1.33225806451613,1.33548387096774,1.32903225806452,1.32903225806452,1.33548387096774,1.33548387096774,1.33225806451613,1.33870967741935,1.33548387096774,1.34838709677419,1.33548387096774,1.35161290322581,1.34838709677419,1.36129032258065,1.36129032258065,1.37741935483871,1.38064516129032,1.39032258064516,1.40645161290323,1.43225806451613,1.45161290322581,1.47741935483871,1.50645161290323,1.52903225806452,1.54838709677419,1.55806451612903,1.56129032258065,1.54516129032258,1.51612903225806,1.48064516129032,1.44838709677419,1.40645161290323,1.39032258064516,1.36129032258065,1.35806451612903,1.34193548387097,1.34516129032258,1.33548387096774,1.33870967741935,1.33225806451613,1.33548387096774,1.32903225806452,1.33225806451613,1.33225806451613,1.33548387096774,1.33548387096774,1.33870967741935,1.34193548387097,1.34193548387097,1.34516129032258,1.34516129032258,1.35483870967742,1.35483870967742,1.35806451612903,1.35806451612903,1.36129032258065,1.35483870967742,1.36451612903226,1.34516129032258,1.35806451612903,1.34838709677419,1.35806451612903,1.34516129032258,1.34838709677419,1.34516129032258,1.34838709677419,1.34516129032258,1.34516129032258,1.34838709677419,1.34838709677419,1.34516129032258,1.34838709677419,1.34516129032258,1.34193548387097,1.34838709677419,1.34516129032258,1.35161290322581,1.35161290322581,1.35483870967742,1.35806451612903,1.37096774193548,1.37741935483871,1.38387096774194,1.3741935483871,1.4258064516129,1.43225806451613,1.43225806451613,1.4258064516129,1.40322580645161,1.35806451612903,1.34838709677419,1.33548387096774,1.33225806451613,1.33225806451613,1.3258064516129,1.3258064516129,1.32258064516129,1.32258064516129,1.29354838709677,1.15483870967742,1.17741935483871,1.53225806451613,2.11290322580645,2.64516129032258,2.35806451612903,1.9,1.56774193548387,1.40967741935484,1.35161290322581,1.33870967741935,1.31290322580645,1.31935483870968,1.31290322580645,1.32258064516129,1.31935483870968,1.31935483870968,1.3258064516129,1.33225806451613,1.33225806451613,1.33225806451613,1.33548387096774,1.33870967741935,1.34193548387097,1.34516129032258,1.34838709677419,1.35483870967742,1.35806451612903,1.36774193548387,1.37741935483871,1.38064516129032,1.39677419354839,1.40645161290323,1.43548387096774,1.45161290322581,1.49032258064516,1.50645161290323,1.53870967741935,1.55161290322581,1.56774193548387,1.55806451612903,1.54838709677419,1.51290322580645,1.47096774193548,1.44193548387097,1.40967741935484,1.38709677419355,1.36774193548387,1.36129032258065,1.35483870967742,1.35161290322581,1.35483870967742,1.35161290322581,1.35483870967742,1.35161290322581,1.34838709677419,1.34838709677419,1.33870967741935,1.34838709677419,1.33548387096774,1.35161290322581,1.34516129032258,1.35483870967742,1.34838709677419,1.36129032258065,1.35483870967742,1.35483870967742,1.35806451612903,1.36129032258065,1.36451612903226,1.36451612903226,1.35806451612903,1.36129032258065,1.35806451612903,1.35806451612903,1.35483870967742,1.35806451612903,1.35483870967742,1.35161290322581,1.35483870967742,1.34838709677419,1.35806451612903,1.34516129032258,1.35806451612903,1.34193548387097,1.35483870967742,1.34838709677419,1.35483870967742,1.34516129032258,1.35161290322581,1.34838709677419,1.35161290322581,1.35483870967742,1.35483870967742,1.36129032258065,1.36451612903226,1.3741935483871,1.38387096774194,1.38387096774194,1.39032258064516,1.4258064516129,1.44838709677419,1.44516129032258,1.43870967741935,1.41290322580645,1.35806451612903,1.35161290322581,1.32903225806452,1.34193548387097,1.3258064516129,1.33225806451613,1.31935483870968,1.32903225806452,1.31935483870968,1.3,1.15161290322581,1.14838709677419,1.50322580645161,2.0741935483871,2.68709677419355,2.4258064516129,1.9258064516129,1.58709677419355,1.40967741935484,1.36451612903226,1.33548387096774,1.31935483870968,1.31612903225806,1.31290322580645,1.31935483870968,1.31290322580645,1.32258064516129,1.31612903225806,1.3258064516129,1.31612903225806,1.33548387096774,1.3258064516129,1.33548387096774,1.33225806451613,1.34193548387097,1.34193548387097,1.34838709677419,1.35483870967742,1.35806451612903,1.36774193548387,1.3741935483871,1.39354838709677,1.40322580645161,1.42903225806452,1.45161290322581,1.48387096774194,1.51290322580645,1.53870967741935,1.55483870967742,1.56451612903226,1.55806451612903,1.54838709677419,1.50967741935484,1.47096774193548,1.42903225806452,1.40967741935484,1.3741935483871,1.36129032258065,1.34838709677419,1.34838709677419,1.34193548387097,1.34193548387097,1.33225806451613,1.33548387096774,1.32903225806452,1.33225806451613,1.33225806451613,1.33870967741935,1.33870967741935,1.33225806451613,1.33870967741935,1.33870967741935,1.33225806451613,1.33225806451613,1.34193548387097,1.33870967741935,1.35161290322581,1.34516129032258,1.35161290322581,1.34838709677419,1.35806451612903,1.34516129032258,1.35161290322581,1.35161290322581,1.35483870967742,1.35161290322581,1.35161290322581,1.34516129032258,1.34516129032258,1.34193548387097,1.34838709677419,1.35483870967742,1.34838709677419,1.34838709677419,1.34838709677419,1.34516129032258,1.34516129032258,1.35161290322581,1.33548387096774,1.35161290322581,1.34838709677419,1.34838709677419,1.34838709677419,1.36774193548387,1.35483870967742,1.37741935483871,1.38064516129032,1.38709677419355,1.38709677419355,1.42258064516129,1.44516129032258,1.44838709677419,1.43870967741935,1.40322580645161,1.36129032258065,1.34516129032258,1.34193548387097,1.34193548387097,1.33548387096774,1.33225806451613,1.33548387096774,1.3258064516129,1.3258064516129,1.30322580645161,1.16451612903226,1.14516129032258,1.50967741935484,2.06774193548387,2.66774193548387,2.35161290322581,1.85161290322581,1.51290322580645,1.3741935483871,1.35483870967742,1.34193548387097,1.33548387096774,1.32903225806452,1.3258064516129,1.33548387096774,1.33870967741935,1.33870967741935,1.33225806451613,1.33870967741935,1.34516129032258,1.34516129032258,1.34193548387097,1.34838709677419,1.35483870967742,1.34516129032258,1.35806451612903,1.36129032258065,1.37741935483871,1.37096774193548,1.39354838709677,1.39677419354839,1.41612903225806,1.43870967741935,1.45806451612903,1.48064516129032,1.50645161290323,1.53548387096774,1.56129032258065,1.58387096774194,1.58387096774194,1.57741935483871,1.55806451612903,1.51935483870968,1.48387096774194,1.44516129032258,1.41290322580645,1.38709677419355,1.36129032258065,1.36451612903226,1.34193548387097,1.35161290322581,1.34516129032258,1.34838709677419,1.33870967741935,1.35483870967742,1.33548387096774,1.34516129032258,1.34516129032258,1.34516129032258,1.34516129032258,1.34516129032258,1.35483870967742,1.34838709677419,1.34838709677419,1.35483870967742,1.36774193548387,1.36129032258065,1.37096774193548,1.36774193548387,1.36129032258065,1.34838709677419,1.35806451612903,1.35483870967742,1.35483870967742,1.35161290322581,1.36129032258065,1.35806451612903,1.35483870967742,1.34193548387097,1.35161290322581,1.34193548387097,1.35161290322581,1.34193548387097,1.35483870967742,1.34838709677419,1.34193548387097,1.34193548387097,1.34516129032258,1.35161290322581,1.34516129032258,1.35161290322581,1.35806451612903,1.36451612903226,1.37096774193548,1.38387096774194,1.4,1.4258064516129,1.42903225806452,1.41290322580645,1.39354838709677,1.35483870967742,1.33548387096774,1.32903225806452,1.32258064516129,1.3258064516129,1.30967741935484,1.3258064516129,1.30967741935484,1.31935483870968,1.29677419354839,1.16774193548387,1.14193548387097,1.45806451612903,1.94838709677419,2.48709677419355,2.23548387096774,1.78387096774194,1.49354838709677,1.35483870967742,1.35161290322581,1.32903225806452,1.3258064516129,1.31290322580645,1.31290322580645,1.30967741935484,1.31935483870968,1.30967741935484,1.31612903225806,1.31935483870968,1.33870967741935,1.31935483870968,1.32903225806452,1.32903225806452,1.33870967741935,1.34516129032258,1.35483870967742,1.34193548387097,1.35806451612903,1.37096774193548,1.3741935483871,1.38064516129032,1.39354838709677,1.42258064516129,1.43548387096774,1.46774193548387,1.48387096774194,1.50967741935484,1.54193548387097,1.55161290322581,1.54838709677419,1.55161290322581,1.53548387096774,1.50322580645161,1.45483870967742,1.42903225806452,1.39354838709677,1.38709677419355,1.36451612903226,1.37096774193548,1.34516129032258,1.35483870967742,1.35483870967742,1.34516129032258,1.34838709677419,1.35483870967742,1.35161290322581,1.34838709677419,1.35483870967742,1.35483870967742,1.35806451612903,1.35806451612903,1.36129032258065,1.35483870967742,1.38387096774194,1.38064516129032,1.39032258064516,1.39032258064516,1.39677419354839,1.39032258064516,1.4,1.39354838709677,1.40322580645161,1.4,1.40645161290323,1.40322580645161,1.4,1.40967741935484,1.41290322580645,1.40645161290323,1.41612903225806,1.4258064516129,1.41612903225806,1.42258064516129,1.42258064516129
1.33870967741935,1.33548387096774,1.33870967741935,1.33870967741935,1.34193548387097,1.34193548387097,1.33548387096774,1.34838709677419,1.32903225806452,1.34193548387097,1.3258064516129,1.33548387096774,1.32903225806452,1.34193548387097,1.34193548387097,1.33548387096774,1.33548387096774,1.34838709677419,1.34838709677419,1.35806451612903,1.37096774193548,1.37096774193548,1.38064516129032,1.41290322580645,1.43870967741935,1.44838709677419,1.43225806451613,1.40322580645161,1.35483870967742,1.32903225806452,1.32903225806452,1.32903225806452,1.3258064516129,1.30322580645161,1.32258064516129,1.30645161290323,1.3258064516129,1.28387096774194,1.14838709677419,1.12258064516129,1.48709677419355,2.05483870967742,2.64193548387097,2.33225806451613,1.84193548387097,1.50645161290323,1.35161290322581,1.35806451612903,1.32903225806452,1.3258064516129,1.32258064516129,1.31935483870968,1.31612903225806,1.31935483870968,1.32258064516129,1.32258064516129,1.32258064516129,1.32903225806452,1.31612903225806,1.34193548387097,1.32903225806452,1.34193548387097,1.34193548387097,1.35483870967742,1.33870967741935,1.36451612903226,1.36774193548387,1.38064516129032,1.39677419354839,1.40322580645161,1.41935483870968,1.44516129032258,1.47096774193548,1.5,1.53225806451613,1.54516129032258,1.56129032258065,1.56451612903226,1.55161290322581,1.5258064516129,1.47741935483871,1.44838709677419,1.42258064516129,1.38064516129032,1.38064516129032,1.35483870967742,1.35483870967742,1.34516129032258,1.35161290322581,1.32903225806452,1.33548387096774,1.33225806451613,1.33225806451613,1.32903225806452,1.33870967741935,1.33548387096774,1.33548387096774,1.34193548387097,1.34193548387097,1.34516129032258,1.34838709677419,1.35483870967742,1.35483870967742,1.35806451612903,1.36129032258065,1.36129032258065,1.34838709677419,1.36451612903226,1.35483870967742,1.35806451612903,1.34193548387097,1.35806451612903,1.35161290322581,1.35483870967742,1.35483870967742,1.35806451612903,1.35161290322581,1.35161290322581,1.34838709677419,1.35483870967742,1.35161290322581,1.36451612903226,1.3741935483871,1.3741935483871,1.38709677419355,1.38387096774194,1.40967741935484,1.44193548387097,1.45161290322581,1.44193548387097,1.42258064516129,1.36451612903226,1.35806451612903,1.33548387096774,1.34516129032258,1.33225806451613,1.33870967741935,1.32903225806452,1.33548387096774,1.33225806451613,1.32903225806452,1.2258064516129,1.13548387096774,1.35161290322581,1.82258064516129,2.44193548387097,2.41935483870968,1.91290322580645,1.58709677419355,1.38709677419355,1.3741935483871,1.35806451612903,1.33870967741935,1.33225806451613,1.33225806451613,1.33225806451613,1.3258064516129,1.34193548387097,1.32903225806452,1.34193548387097,1.33225806451613,1.34516129032258,1.33870967741935,1.34516129032258,1.34516129032258,1.35161290322581,1.35483870967742,1.36129032258065,1.36774193548387,1.37096774193548,1.38064516129032,1.38709677419355,1.40645161290323,1.41935483870968,1.44516129032258,1.46774193548387,1.49354838709677,1.51290322580645,1.53870967741935,1.54838709677419,1.56129032258065,1.54838709677419,1.53548387096774,1.49032258064516,1.46129032258065,1.41612903225806,1.4,1.37096774193548,1.36451612903226,1.34838709677419,1.35161290322581,1.34516129032258,1.33870967741935,1.33870967741935,1.33548387096774,1.33548387096774,1.33548387096774,1.33225806451613,1.33548387096774,1.33225806451613,1.33548387096774,1.33870967741935,1.33870967741935,1.34516129032258,1.34516129032258,1.34838709677419,1.34516129032258,1.35806451612903,1.34838709677419,1.36129032258065,1.35161290322581,1.36129032258065,1.35161290322581,1.35483870967742,1.35161290322581,1.35483870967742,1.34838709677419,1.34838709677419,1.34516129032258,1.34516129032258,1.34516129032258,1.34838709677419,1.34516129032258,1.34838709677419,1.35161290322581,1.34516129032258,1.35161290322581,1.34516129032258,1.36129032258065,1.35161290322581,1.36774193548387,1.37741935483871,1.37741935483871,1.38064516129032,1.42258064516129,1.43870967741935,1.44516129032258,1.43225806451613,1.40967741935484,1.36129032258065,1.34193548387097,1.33548387096774,1.33225806451613,1.32258064516129,1.3258064516129,1.3258064516129,1.32258064516129,1.31935483870968,1.29032258064516,1.15483870967742,1.16129032258065,1.51935483870968,2.07741935483871,2.63548387096774,2.35483870967742,1.89677419354839,1.55806451612903,1.40322580645161,1.35483870967742,1.33548387096774,1.31612903225806,1.31935483870968,1.30967741935484,1.31935483870968,1.31290322580645,1.31935483870968,1.31612903225806,1.32258064516129,1.32258064516129,1.32903225806452,1.33225806451613,1.33225806451613,1.33548387096774,1.34516129032258,1.34516129032258,1.35161290322581,1.35483870967742,1.35483870967742,1.36774193548387,1.37096774193548,1.39354838709677,1.40645161290323,1.43548387096774,1.45161290322581,1.49032258064516,1.50645161290323,1.53870967741935,1.54838709677419,1.55806451612903,1.54193548387097,1.52258064516129,1.48387096774194,1.44838709677419,1.41612903225806,1.39354838709677,1.37096774193548,1.36129032258065,1.35483870967742,1.34838709677419,1.34838709677419,1.34193548387097,1.34193548387097,1.33548387096774,1.34516129032258,1.33870967741935,1.34193548387097,1.33870967741935,1.34516129032258,1.33870967741935,1.34516129032258,1.33870967741935,1.34838709677419,1.34193548387097,1.35161290322581,1.34838709677419,1.35806451612903,1.35483870967742,1.35806451612903,1.35806451612903,1.35806451612903,1.36129032258065,1.35806451612903,1.35806451612903,1.35483870967742,1.35806451612903,1.34838709677419,1.35483870967742,1.34516129032258,1.35161290322581,1.34516129032258,1.35161290322581,1.34516129032258,1.35806451612903,1.34838709677419,1.35483870967742,1.34193548387097,1.35483870967742,1.34838709677419,1.36451612903226,1.36129032258065,1.3741935483871,1.38387096774194,1.39032258064516,1.38387096774194,1.40967741935484,1.43870967741935,1.45483870967742,1.44516129032258,1.42903225806452,1.3741935483871,1.34838709677419,1.34193548387097,1.32903225806452,1.33225806451613,1.32903225806452,1.3258064516129,1.32258064516129,1.3258064516129,1.31290322580645,1.22258064516129,1.11612903225806,1.34193548387097,1.80967741935484,2.52903225806452,2.5741935483871,2.04838709677419,1.70322580645161,1.45806451612903,1.3741935483871,1.34516129032258,1.32903225806452,1.31612903225806,1.31612903225806,1.31290322580645,1.32258064516129,1.31290322580645,1.3258064516129,1.32258064516129,1.33225806451613,1.3258064516129,1.33225806451613,1.33225806451613,1.33870967741935,1.33870967741935,1.35161290322581,1.34516129032258,1.36129032258065,1.36451612903226,1.37096774193548,1.38064516129032,1.39032258064516,1.40967741935484,1.42903225806452,1.45161290322581,1.48709677419355,1.51290322580645,1.53548387096774,1.55161290322581,1.56129032258065,1.56451612903226,1.53870967741935,1.51290322580645,1.47096774193548,1.43870967741935,1.40322580645161,1.38709677419355,1.36451612903226,1.36129032258065,1.34838709677419,1.34838709677419,1.34193548387097,1.34838709677419,1.33870967741935,1.34193548387097,1.33870967741935,1.34516129032258,1.33870967741935,1.33870967741935,1.33870967741935,1.33548387096774,1.34193548387097,1.34516129032258,1.34516129032258,1.34516129032258,1.34838709677419,1.34838709677419,1.35806451612903,1.35161290322581,1.36129032258065,1.36129032258065,1.36451612903226,1.35806451612903,1.36129032258065,1.35161290322581,1.35806451612903,1.35161290322581,1.35806451612903,1.35161290322581,1.35483870967742,1.34838709677419,1.35806451612903,1.35161290322581,1.35483870967742,1.35161290322581,1.35483870967742,1.35161290322581,1.35161290322581,1.34193548387097,1.34193548387097,1.35161290322581,1.34838709677419,1.35483870967742,1.35483870967742,1.36129032258065,1.36774193548387,1.38064516129032,1.39032258064516,1.39032258064516,1.4,1.44516129032258,1.44838709677419,1.44838709677419,1.4258064516129,1.37741935483871,1.35483870967742,1.34516129032258,1.33548387096774,1.33548387096774,1.32903225806452,1.3258064516129,1.3258064516129,1.31935483870968,1.31935483870968,1.21935483870968,1.11612903225806,1.3258064516129,1.80322580645161,2.52258064516129,2.61290322580645,2.06129032258065,1.70967741935484,1.44516129032258,1.38064516129032,1.34193548387097,1.33225806451613,1.31290322580645,1.32258064516129,1.31612903225806,1.32258064516129,1.32258064516129,1.3258064516129,1.32258064516129,1.33225806451613,1.32903225806452,1.33548387096774,1.33548387096774,1.33548387096774,1.33870967741935,1.33870967741935,1.35161290322581,1.34838709677419,1.36451612903226,1.36451612903226,1.37741935483871,1.38709677419355,1.40967741935484,1.4258064516129,1.44838709677419,1.4741935483871,1.50967741935484,1.53870967741935,1.56129032258065,1.56774193548387,1.5741935483871,1.54516129032258,1.52258064516129,1.48064516129032,1.44193548387097,1.40967741935484,1.37741935483871,1.36774193548387,1.35161290322581,1.34838709677419,1.34516129032258,1.34193548387097,1.33548387096774,1.33870967741935,1.33870967741935,1.33870967741935,1.33225806451613,1.33548387096774,1.33225806451613,1.33870967741935,1.33548387096774,1.34516129032258,1.33225806451613,1.34193548387097,1.33870967741935,1.34838709677419,1.34516129032258,1.35806451612903,1.35483870967742,1.35483870967742,1.35483870967742,1.35161290322581,1.35161290322581,1.34838709677419,1.35161290322581,1.34838709677419,1.34838709677419,1.34838709677419,1.35161290322581,1.34516129032258,1.34516129032258,1.34838709677419,1.34838709677419,1.34193548387097,1.35161290322581,1.34193548387097,1.35483870967742,1.34516129032258,1.34516129032258,1.34193548387097,1.35806451612903,1.34838709677419,1.36451612903226,1.35483870967742,1.37096774193548,1.39032258064516,1.37741935483871,1.39354838709677,1.42903225806452,1.44516129032258,1.43870967741935,1.43548387096774,1.38709677419355,1.35161290322581,1.33548387096774,1.33548387096774,1.33225806451613,1.32903225806452,1.32258064516129,1.32903225806452,1.32903225806452,1.32258064516129,1.25806451612903,1.12903225806452,1.22903225806452,1.6741935483871,2.30645161290323,2.60322580645161,2.10322580645161,1.69677419354839,1.42258064516129,1.36129032258065,1.35483870967742,1.33225806451613,1.32903225806452,1.32258064516129,1.32903225806452,1.3258064516129,1.32258064516129,1.33225806451613,1.33548387096774,1.33548387096774,1.33870967741935,1.33870967741935,1.34838709677419,1.33870967741935,1.34516129032258,1.35806451612903,1.36129032258065,1.35483870967742,1.37741935483871,1.37096774193548,1.38387096774194,1.39677419354839,1.41612903225806,1.4258064516129,1.45806451612903,1.48709677419355,1.50645161290323,1.54516129032258,1.55483870967742,1.57096774193548,1.5741935483871,1.56451612903226,1.5258064516129,1.48709677419355,1.44838709677419,1.41935483870968,1.38709677419355,1.38064516129032,1.36129032258065,1.36451612903226,1.33548387096774,1.34838709677419,1.33548387096774,1.34193548387097,1.33225806451613,1.33225806451613,1.34193548387097,1.32903225806452,1.33225806451613,1.33225806451613,1.35161290322581,1.33548387096774,1.34838709677419,1.35483870967742,1.36129032258065,1.36129032258065,1.35483870967742,1.36451612903226,1.36774193548387,1.36451612903226,1.37096774193548,1.35483870967742,1.35161290322581,1.35806451612903,1.36774193548387,1.35161290322581,1.35483870967742,1.34516129032258,1.35161290322581,1.35806451612903,1.35806451612903,1.35161290322581,1.34516129032258,1.35483870967742,1.34516129032258,1.34838709677419,1.34516129032258,1.35483870967742,1.34838709677419,1.35483870967742,1.36129032258065,1.35483870967742,1.37096774193548,1.38387096774194,1.3741935483871,1.38709677419355,1.43225806451613,1.45483870967742,1.42903225806452,1.43548387096774,1.38387096774194,1.36451612903226,1.35806451612903,1.34516129032258,1.33870967741935,1.33225806451613,1.33870967741935,1.33225806451613,1.33870967741935,1.33225806451613,1.28387096774194,1.16451612903226,1.24193548387097,1.6258064516129,2.18387096774194,2.5,2.08387096774194,1.69354838709677,1.42903225806452,1.3741935483871,1.3741935483871,1.35161290322581,1.34193548387097,1.33225806451613,1.34516129032258,1.32903225806452,1.34838709677419,1.33870967741935,1.34193548387097,1.34516129032258,1.34516129032258,1.34838709677419,1.35161290322581,1.35483870967742,1.35161290322581,1.36129032258065,1.36451612903226,1.3741935483871,1.37741935483871,1.38064516129032,1.39677419354839,1.40645161290323,1.41612903225806,1.44193548387097,1.46451612903226,1.48709677419355,1.50967741935484,1.53870967741935,1.54838709677419,1.5741935483871,1.56129032258065,1.56129032258065,1.51612903225806,1.48709677419355,1.44516129032258,1.41290322580645,1.38709677419355,1.36774193548387,1.35806451612903,1.35483870967742,1.34193548387097,1.34516129032258,1.34193548387097,1.33870967741935,1.33225806451613,1.33548387096774,1.33225806451613,1.33548387096774,1.33548387096774,1.33548387096774,1.33870967741935,1.33870967741935,1.35161290322581,1.34193548387097,1.35806451612903,1.34838709677419,1.36129032258065,1.36129032258065,1.36129032258065,1.35806451612903,1.35483870967742,1.35483870967742,1.35483870967742,1.35161290322581,1.35483870967742,1.35483870967742,1.34838709677419,1.34838709677419,1.34838709677419,1.34838709677419,1.34516129032258,1.34516129032258,1.34838709677419,1.34838709677419,1.33870967741935,1.35161290322581,1.34193548387097,1.35161290322581,1.34516129032258,1.35161290322581,1.34516129032258,1.35806451612903,1.35483870967742,1.36129032258065,1.3741935483871,1.3741935483871,1.38064516129032,1.41290322580645,1.43870967741935,1.43548387096774,1.4258064516129,1.40967741935484,1.35483870967742,1.34193548387097,1.33548387096774,1.33548387096774,1.3258064516129,1.3258064516129,1.32258064516129,1.31935483870968,1.32258064516129,1.29677419354839,1.17096774193548,1.15161290322581,1.49354838709677,2.01612903225806,2.61612903225806,2.38064516129032,1.91290322580645,1.59032258064516,1.40967741935484,1.36129032258065,1.33225806451613,1.32258064516129,1.31935483870968,1.31612903225806,1.31935483870968,1.32258064516129,1.31935483870968,1.32258064516129,1.3258064516129,1.33225806451613,1.33225806451613,1.33225806451613,1.33225806451613,1.34193548387097,1.33548387096774,1.35161290322581,1.34838709677419,1.36129032258065,1.35483870967742,1.37096774193548,1.37741935483871,1.39032258064516,1.40645161290323,1.4258064516129,1.45161290322581,1.4741935483871,1.50645161290323,1.5258064516129,1.54838709677419,1.55483870967742,1.55483870967742,1.53225806451613,1.49677419354839,1.46129032258065,1.4258064516129,1.4,1.38064516129032,1.36451612903226,1.36129032258065,1.34838709677419,1.35483870967742,1.34193548387097,1.34838709677419,1.34193548387097,1.34193548387097,1.33548387096774,1.33870967741935,1.33548387096774,1.34193548387097,1.34193548387097,1.34193548387097,1.34193548387097,1.34838709677419,1.34838709677419,1.35161290322581,1.35161290322581,1.35806451612903,1.35806451612903,1.36451612903226,1.36451612903226,1.36451612903226,1.35806451612903,1.36129032258065,1.35806451612903,1.35483870967742,1.36129032258065,1.35161290322581,1.36129032258065,1.35483870967742,1.35483870967742,1.35161290322581,1.35483870967742,1.35483870967742,1.34838709677419,1.35806451612903,1.35483870967742,1.35161290322581,1.35483870967742,1.35161290322581,1.35806451612903,1.35161290322581,1.35483870967742,1.35161290322581,1.36129032258065,1.36451612903226,1.36451612903226,1.3741935483871,1.38709677419355,1.39032258064516,1.39032258064516,1.43225806451613,1.44838709677419,1.44838709677419,1.44193548387097,1.41290322580645,1.36451612903226,1.35161290322581,1.33870967741935,1.33548387096774,1.33225806451613,1.32903225806452,1.33225806451613,1.33225806451613,1.32903225806452,1.28709677419355,1.15161290322581,1.18709677419355,1.55806451612903,2.15806451612903,2.66774193548387,2.35483870967742,1.88709677419355,1.55806451612903,1.40322580645161,1.36451612903226,1.34193548387097,1.32258064516129,1.32258064516129,1.31612903225806,1.32258064516129,1.31935483870968,1.3258064516129,1.3258064516129,1.32903225806452,1.32903225806452,1.33548387096774,1.33548387096774,1.33870967741935,1.34193548387097,1.34838709677419,1.35161290322581,1.35483870967742,1.35806451612903,1.36451612903226,1.38064516129032,1.38387096774194,1.40322580645161,1.41612903225806,1.44193548387097,1.45806451612903,1.49677419354839,1.51612903225806,1.54516129032258,1.55806451612903,1.56774193548387,1.55806451612903,1.53870967741935,1.5,1.46774193548387,1.42903225806452,1.4,1.37741935483871,1.36774193548387,1.35483870967742,1.34838709677419,1.34516129032258,1.33870967741935,1.34193548387097,1.33870967741935,1.33870967741935,1.33548387096774,1.34193548387097,1.33548387096774,1.33870967741935,1.32903225806452,1.34516129032258,1.33548387096774,1.33870967741935,1.33870967741935,1.34516129032258,1.34193548387097,1.35483870967742,1.34838709677419,1.35483870967742,1.35161290322581,1.36129032258065,1.35806451612903,1.35161290322581,1.34838709677419,1.35161290322581,1.34838709677419,1.35161290322581,1.35161290322581,1.34838709677419,1.35161290322581,1.34838709677419,1.34838709677419,1.34838709677419,1.34516129032258,1.34516129032258,1.34516129032258,1.34838709677419,1.34838709677419,1.33870967741935,1.34838709677419,1.34193548387097,1.34516129032258,1.34516129032258,1.35161290322581,1.35806451612903,1.36129032258065,1.37096774193548,1.38709677419355,1.38387096774194,1.39032258064516,1.4258064516129,1.44838709677419,1.44838709677419,1.44193548387097,1.40967741935484,1.36129032258065,1.35161290322581,1.33870967741935,1.33548387096774,1.32903225806452,1.3258064516129,1.32258064516129,1.33870967741935,1.32258064516129,1.28387096774194,1.14838709677419,1.17096774193548,1.55161290322581,2.13548387096774,2.66774193548387,2.31612903225806,1.8258064516129,1.50322580645161,1.38387096774194,1.36774193548387,1.33870967741935,1.33225806451613,1.32903225806452,1.32258064516129,1.33225806451613,1.3258064516129,1.33870967741935,1.33870967741935,1.33548387096774,1.33548387096774,1.33870967741935,1.33548387096774,1.34838709677419,1.34838709677419,1.35483870967742,1.35483870967742,1.35483870967742,1.36129032258065,1.3741935483871,1.38387096774194,1.40322580645161,1.40967741935484,1.43548387096774,1.45161290322581,1.48064516129032,1.5,1.53870967741935,1.55483870967742,1.57096774193548,1.57741935483871,1.57096774193548,1.53870967741935,1.50322580645161,1.46129032258065,1.41935483870968,1.40645161290323,1.37096774193548,1.35806451612903,1.34516129032258,1.34838709677419,1.33548387096774,1.34193548387097,1.34516129032258,1.33870967741935,1.33870967741935,1.33548387096774,1.32903225806452,1.32903225806452,1.33548387096774,1.33225806451613,1.33870967741935,1.34193548387097,1.34838709677419,1.34516129032258,1.35483870967742,1.35161290322581,1.36129032258065,1.34838709677419,1.36129032258065,1.35161290322581,1.35483870967742,1.34838709677419,1.35483870967742,1.35161290322581,1.35161290322581,1.34516129032258,1.35161290322581,1.34193548387097,1.35483870967742,1.34838709677419,1.34838709677419,1.34516129032258,1.34838709677419,1.33870967741935,1.34838709677419,1.35161290322581,1.34193548387097,1.33870967741935,1.34516129032258,1.34838709677419,1.34838709677419,1.35483870967742,1.35161290322581,1.36774193548387,1.37096774193548,1.3741935483871,1.4,1.42903225806452,1.43870967741935,1.42903225806452,1.39354838709677,1.36774193548387,1.34516129032258,1.33870967741935,1.32903225806452,1.32258064516129,1.32903225806452,1.31935483870968,1.32903225806452,1.32258064516129,1.30967741935484,1.17741935483871,1.14193548387097,1.45161290322581,1.93870967741935,2.51290322580645,2.30322580645161,1.81612903225806,1.50967741935484,1.35806451612903,1.36774193548387,1.33870967741935,1.33870967741935,1.32258064516129,1.32903225806452,1.31935483870968,1.33225806451613,1.33225806451613,1.33225806451613,1.33548387096774,1.34838709677419,1.34193548387097,1.34516129032258,1.34516129032258,1.34838709677419,1.35161290322581,1.35806451612903,1.36451612903226,1.37096774193548,1.3741935483871,1.39354838709677,1.39354838709677,1.41290322580645,1.43548387096774,1.44838709677419,1.47096774193548,1.50322580645161,1.53225806451613,1.54838709677419,1.5741935483871,1.57096774193548,1.57096774193548,1.53548387096774,1.50645161290323,1.4741935483871,1.43870967741935,1.40322580645161,1.39032258064516,1.37096774193548,1.36451612903226,1.36129032258065,1.35161290322581,1.35161290322581,1.34838709677419,1.34193548387097,1.34516129032258,1.33548387096774,1.33548387096774,1.34516129032258,1.34193548387097,1.35161290322581,1.34838709677419,1.35806451612903,1.35161290322581,1.36774193548387,1.36774193548387,1.3741935483871,1.37741935483871,1.3741935483871,1.37741935483871,1.38064516129032,1.37741935483871,1.37741935483871,1.37741935483871,1.37741935483871,1.3741935483871,1.37096774193548,1.3741935483871,1.3741935483871,1.37096774193548,1.3741935483871,1.37096774193548,1.3741935483871,1.3741935483871,1.37096774193548,1.38064516129032,1.3741935483871,1.38387096774194,1.37741935483871,1.38709677419355,1.38387096774194,1.4,1.4,1.41290322580645,1.41935483870968,1.41612903225806,1.44193548387097,1.47741935483871,1.48064516129032,1.48064516129032,1.47096774193548,1.42258064516129,1.40322580645161
1.36451612903226,1.36129032258065,1.34838709677419,1.36451612903226,1.35161290322581,1.36129032258065,1.35483870967742,1.35483870967742,1.35806451612903,1.35483870967742,1.35483870967742,1.35806451612903,1.35483870967742,1.36451612903226,1.37096774193548,1.37096774193548,1.37741935483871,1.38387096774194,1.3741935483871,1.41290322580645,1.42903225806452,1.45161290322581,1.43548387096774,1.41935483870968,1.36451612903226,1.35161290322581,1.34193548387097,1.33548387096774,1.33548387096774,1.3258064516129,1.32903225806452,1.3258064516129,1.3258064516129,1.31612903225806,1.21612903225806,1.13870967741935,1.3741935483871,1.82903225806452,2.47741935483871,2.48064516129032,2,1.67096774193548,1.44838709677419,1.37096774193548,1.34838709677419,1.32258064516129,1.3258064516129,1.31612903225806,1.31935483870968,1.31935483870968,1.31612903225806,1.3258064516129,1.32258064516129,1.3258064516129,1.32903225806452,1.3258064516129,1.33548387096774,1.32903225806452,1.33870967741935,1.34516129032258,1.34516129032258,1.35161290322581,1.35806451612903,1.36774193548387,1.36774193548387,1.39032258064516,1.39677419354839,1.4258064516129,1.43548387096774,1.48064516129032,1.48709677419355,1.51935483870968,1.53548387096774,1.54838709677419,1.54838709677419,1.52903225806452,1.5,1.46451612903226,1.43548387096774,1.4,1.38064516129032,1.36774193548387,1.34838709677419,1.34516129032258,1.34193548387097,1.33870967741935,1.34193548387097,1.33870967741935,1.34193548387097,1.33870967741935,1.34193548387097,1.33548387096774,1.34193548387097,1.33225806451613,1.33225806451613,1.33548387096774,1.34516129032258,1.33870967741935,1.33870967741935,1.34516129032258,1.34838709677419,1.34838709677419,1.35483870967742,1.35483870967742,1.36129032258065,1.35483870967742,1.35483870967742,1.35483870967742,1.35483870967742,1.35806451612903,1.35483870967742,1.34838709677419,1.35483870967742,1.35161290322581,1.34838709677419,1.34838709677419,1.34193548387097,1.35161290322581,1.34516129032258,1.35161290322581,1.34516129032258,1.35161290322581,1.34516129032258,1.34838709677419,1.35161290322581,1.34838709677419,1.35161290322581,1.35806451612903,1.36451612903226,1.36451612903226,1.38709677419355,1.38387096774194,1.38709677419355,1.41935483870968,1.44193548387097,1.44193548387097,1.43548387096774,1.40967741935484,1.35806451612903,1.34516129032258,1.34193548387097,1.33548387096774,1.33225806451613,1.31935483870968,1.32903225806452,1.32258064516129,1.32903225806452,1.29032258064516,1.16451612903226,1.16129032258065,1.51935483870968,2.07096774193548,2.65161290322581,2.4,1.92903225806452,1.59677419354839,1.42258064516129,1.37096774193548,1.33870967741935,1.32903225806452,1.32258064516129,1.31935483870968,1.3258064516129,1.32258064516129,1.32258064516129,1.33225806451613,1.32903225806452,1.33548387096774,1.33225806451613,1.34193548387097,1.33548387096774,1.34193548387097,1.33870967741935,1.35161290322581,1.35161290322581,1.35806451612903,1.36451612903226,1.37741935483871,1.38709677419355,1.4,1.41612903225806,1.43548387096774,1.46129032258065,1.49032258064516,1.51935483870968,1.54193548387097,1.56129032258065,1.5741935483871,1.56451612903226,1.54516129032258,1.51612903225806,1.46774193548387,1.43870967741935,1.40322580645161,1.38709677419355,1.36451612903226,1.35806451612903,1.34838709677419,1.35161290322581,1.34193548387097,1.34516129032258,1.34838709677419,1.34516129032258,1.35161290322581,1.34838709677419,1.34193548387097,1.34193548387097,1.34193548387097,1.34838709677419,1.34516129032258,1.34838709677419,1.34516129032258,1.34193548387097,1.34516129032258,1.35161290322581,1.36129032258065,1.35806451612903,1.35806451612903,1.34838709677419,1.36129032258065,1.35483870967742,1.35483870967742,1.34838709677419,1.35483870967742,1.35161290322581,1.34838709677419,1.35483870967742,1.34838709677419,1.34193548387097,1.34516129032258,1.35161290322581,1.34838709677419,1.34193548387097,1.34516129032258,1.34516129032258,1.34193548387097,1.34838709677419,1.34516129032258,1.34516129032258,1.34193548387097,1.35483870967742,1.35483870967742,1.36774193548387,1.3741935483871,1.38064516129032,1.37741935483871,1.4,1.43225806451613,1.44516129032258,1.43548387096774,1.41612903225806,1.35806451612903,1.35161290322581,1.33225806451613,1.33548387096774,1.32258064516129,1.31612903225806,1.31935483870968,1.31935483870968,1.31612903225806,1.31290322580645,1.21612903225806,1.10645161290323,1.33225806451613,1.80967741935484,2.51935483870968,2.59354838709677,2.04193548387097,1.67741935483871,1.42258064516129,1.36451612903226,1.34516129032258,1.3258064516129,1.31612903225806,1.31612903225806,1.32903225806452,1.31612903225806,1.32258064516129,1.32903225806452,1.33225806451613,1.3258064516129,1.3258064516129,1.33548387096774,1.33870967741935,1.34193548387097,1.33870967741935,1.35161290322581,1.35161290322581,1.35806451612903,1.35806451612903,1.36451612903226,1.38387096774194,1.39032258064516,1.40645161290323,1.43225806451613,1.44838709677419,1.48709677419355,1.51290322580645,1.55161290322581,1.55806451612903,1.58064516129032,1.58064516129032,1.55806451612903,1.52903225806452,1.48387096774194,1.44516129032258,1.41935483870968,1.38709677419355,1.37096774193548,1.35483870967742,1.34838709677419,1.34193548387097,1.34193548387097,1.33870967741935,1.34516129032258,1.33225806451613,1.34516129032258,1.34193548387097,1.33870967741935,1.34193548387097,1.3258064516129,1.33870967741935,1.34193548387097,1.34193548387097,1.33548387096774,1.34516129032258,1.34516129032258,1.35483870967742,1.35483870967742,1.35483870967742,1.35806451612903,1.36129032258065,1.36129032258065,1.35483870967742,1.35161290322581,1.35483870967742,1.36451612903226,1.34838709677419,1.35161290322581,1.34516129032258,1.34838709677419,1.34516129032258,1.34516129032258,1.34193548387097,1.34516129032258,1.34838709677419,1.34838709677419,1.34193548387097,1.35161290322581,1.34516129032258,1.35483870967742,1.35806451612903,1.36774193548387,1.38709677419355,1.3741935483871,1.38387096774194,1.4258064516129,1.44516129032258,1.43548387096774,1.43225806451613,1.38387096774194,1.35161290322581,1.34193548387097,1.32903225806452,1.33548387096774,1.32258064516129,1.32903225806452,1.33225806451613,1.31612903225806,1.33225806451613,1.28387096774194,1.15806451612903,1.18064516129032,1.56774193548387,2.10322580645161,2.5258064516129,2.1741935483871,1.73548387096774,1.45483870967742,1.36129032258065,1.36129032258065,1.34516129032258,1.33548387096774,1.32903225806452,1.33870967741935,1.33225806451613,1.33548387096774,1.33548387096774,1.33870967741935,1.34193548387097,1.33870967741935,1.33225806451613,1.34838709677419,1.35161290322581,1.35806451612903,1.35483870967742,1.36451612903226,1.36774193548387,1.37741935483871,1.38709677419355,1.39354838709677,1.40645161290323,1.42258064516129,1.43225806451613,1.46129032258065,1.49354838709677,1.51290322580645,1.53870967741935,1.55161290322581,1.57096774193548,1.57741935483871,1.56129032258065,1.53870967741935,1.5,1.46129032258065,1.4258064516129,1.4,1.38709677419355,1.36774193548387,1.35806451612903,1.35161290322581,1.35483870967742,1.34838709677419,1.35161290322581,1.34193548387097,1.34516129032258,1.34193548387097,1.34193548387097,1.34516129032258,1.34516129032258,1.34838709677419,1.35161290322581,1.34838709677419,1.35161290322581,1.35806451612903,1.35806451612903,1.36129032258065,1.36774193548387,1.36774193548387,1.36774193548387,1.36451612903226,1.36129032258065,1.36129032258065,1.35806451612903,1.36451612903226,1.35161290322581,1.35806451612903,1.35161290322581,1.35483870967742,1.35483870967742,1.35483870967742,1.34838709677419,1.34838709677419,1.35483870967742,1.34516129032258,1.35161290322581,1.34516129032258,1.35483870967742,1.34838709677419,1.35483870967742,1.35806451612903,1.36774193548387,1.38064516129032,1.37096774193548,1.38387096774194,1.41935483870968,1.43225806451613,1.43548387096774,1.41612903225806,1.38064516129032,1.34516129032258,1.34193548387097,1.33225806451613,1.32903225806452,1.3258064516129,1.32258064516129,1.31935483870968,1.32258064516129,1.31935483870968,1.25483870967742,1.14516129032258,1.25806451612903,1.66774193548387,2.28064516129032,2.54838709677419,2.13870967741935,1.74838709677419,1.45806451612903,1.36774193548387,1.35161290322581,1.3258064516129,1.31935483870968,1.31935483870968,1.31290322580645,1.32258064516129,1.31290322580645,1.3258064516129,1.31935483870968,1.3258064516129,1.32903225806452,1.33548387096774,1.32903225806452,1.33870967741935,1.33870967741935,1.34516129032258,1.34516129032258,1.35161290322581,1.36129032258065,1.36451612903226,1.37096774193548,1.38709677419355,1.39677419354839,1.41612903225806,1.43870967741935,1.46774193548387,1.48709677419355,1.51290322580645,1.54838709677419,1.55483870967742,1.56129032258065,1.53870967741935,1.5258064516129,1.48387096774194,1.44838709677419,1.40645161290323,1.39032258064516,1.36451612903226,1.35161290322581,1.35161290322581,1.34516129032258,1.34193548387097,1.34193548387097,1.34193548387097,1.34193548387097,1.34193548387097,1.34193548387097,1.33548387096774,1.34516129032258,1.32903225806452,1.33870967741935,1.33870967741935,1.33870967741935,1.34838709677419,1.33870967741935,1.35483870967742,1.35161290322581,1.35806451612903,1.35483870967742,1.36129032258065,1.35483870967742,1.36129032258065,1.35483870967742,1.35806451612903,1.35483870967742,1.35806451612903,1.35483870967742,1.35483870967742,1.35161290322581,1.34838709677419,1.34838709677419,1.34838709677419,1.34838709677419,1.34838709677419,1.34838709677419,1.34838709677419,1.34838709677419,1.34516129032258,1.35483870967742,1.34516129032258,1.35806451612903,1.35161290322581,1.36774193548387,1.36129032258065,1.38709677419355,1.38064516129032,1.38709677419355,1.40645161290323,1.43870967741935,1.44838709677419,1.44193548387097,1.41935483870968,1.36774193548387,1.34838709677419,1.33870967741935,1.33225806451613,1.32903225806452,1.32258064516129,1.32258064516129,1.32258064516129,1.32258064516129,1.30645161290323,1.18064516129032,1.14193548387097,1.42903225806452,1.92903225806452,2.60322580645161,2.49032258064516,1.97741935483871,1.65806451612903,1.44193548387097,1.37741935483871,1.33870967741935,1.3258064516129,1.3258064516129,1.31612903225806,1.31935483870968,1.31935483870968,1.32258064516129,1.3258064516129,1.3258064516129,1.32903225806452,1.3258064516129,1.33225806451613,1.33548387096774,1.34193548387097,1.34838709677419,1.34193548387097,1.35806451612903,1.35806451612903,1.36774193548387,1.36774193548387,1.38709677419355,1.38709677419355,1.41290322580645,1.4258064516129,1.45161290322581,1.48064516129032,1.50967741935484,1.53870967741935,1.55483870967742,1.56774193548387,1.56451612903226,1.54838709677419,1.51935483870968,1.4741935483871,1.43870967741935,1.40322580645161,1.38387096774194,1.36774193548387,1.35483870967742,1.35483870967742,1.34838709677419,1.35161290322581,1.34193548387097,1.35161290322581,1.33870967741935,1.35161290322581,1.33870967741935,1.34838709677419,1.34193548387097,1.34516129032258,1.34516129032258,1.33870967741935,1.35161290322581,1.34838709677419,1.34516129032258,1.34838709677419,1.34838709677419,1.36129032258065,1.35161290322581,1.35806451612903,1.35483870967742,1.35483870967742,1.35806451612903,1.35483870967742,1.35806451612903,1.35161290322581,1.36129032258065,1.34838709677419,1.35806451612903,1.35161290322581,1.35483870967742,1.35161290322581,1.35161290322581,1.34838709677419,1.35161290322581,1.35161290322581,1.34516129032258,1.35161290322581,1.34838709677419,1.35161290322581,1.34838709677419,1.34838709677419,1.35806451612903,1.36129032258065,1.37741935483871,1.38387096774194,1.37741935483871,1.39677419354839,1.43548387096774,1.45161290322581,1.44193548387097,1.43548387096774,1.37741935483871,1.35806451612903,1.33548387096774,1.33548387096774,1.3258064516129,1.32903225806452,1.31935483870968,1.3258064516129,1.32258064516129,1.3258064516129,1.24193548387097,1.1258064516129,1.26774193548387,1.71290322580645,2.38709677419355,2.64193548387097,2.15806451612903,1.77096774193548,1.47741935483871,1.38064516129032,1.34838709677419,1.3258064516129,1.32258064516129,1.30967741935484,1.31612903225806,1.30967741935484,1.32258064516129,1.31290322580645,1.3258064516129,1.31935483870968,1.3258064516129,1.3258064516129,1.33225806451613,1.32903225806452,1.33225806451613,1.33870967741935,1.35161290322581,1.35161290322581,1.35483870967742,1.35483870967742,1.37096774193548,1.38387096774194,1.4,1.42258064516129,1.45161290322581,1.48387096774194,1.50645161290323,1.52903225806452,1.56129032258065,1.58064516129032,1.57096774193548,1.56451612903226,1.52903225806452,1.49677419354839,1.45161290322581,1.41935483870968,1.38709677419355,1.36774193548387,1.35161290322581,1.35161290322581,1.34193548387097,1.34193548387097,1.33870967741935,1.33548387096774,1.33225806451613,1.33548387096774,1.34193548387097,1.33870967741935,1.33548387096774,1.33870967741935,1.33870967741935,1.34193548387097,1.33870967741935,1.33548387096774,1.34516129032258,1.34838709677419,1.34516129032258,1.34516129032258,1.35161290322581,1.34193548387097,1.36129032258065,1.35483870967742,1.35806451612903,1.35161290322581,1.35483870967742,1.34838709677419,1.34838709677419,1.34193548387097,1.35161290322581,1.34193548387097,1.34516129032258,1.35161290322581,1.33548387096774,1.35161290322581,1.34516129032258,1.34838709677419,1.34193548387097,1.34193548387097,1.33870967741935,1.35161290322581,1.34838709677419,1.36451612903226,1.35806451612903,1.37741935483871,1.3741935483871,1.38387096774194,1.37741935483871,1.41290322580645,1.43548387096774,1.44516129032258,1.43548387096774,1.40645161290323,1.35483870967742,1.34193548387097,1.33225806451613,1.3258064516129,1.32903225806452,1.31935483870968,1.33225806451613,1.3258064516129,1.32258064516129,1.30645161290323,1.18064516129032,1.13225806451613,1.47096774193548,1.98387096774194,2.59032258064516,2.34193548387097,1.84838709677419,1.52903225806452,1.37096774193548,1.36774193548387,1.34838709677419,1.33225806451613,1.3258064516129,1.3258064516129,1.32903225806452,1.31935483870968,1.33870967741935,1.33225806451613,1.33548387096774,1.32903225806452,1.34516129032258,1.33548387096774,1.34193548387097,1.35483870967742,1.35161290322581,1.36129032258065,1.35806451612903,1.36774193548387,1.36129032258065,1.38064516129032,1.38709677419355,1.41290322580645,1.42258064516129,1.44838709677419,1.4741935483871,1.49677419354839,1.52258064516129,1.54838709677419,1.56451612903226,1.58064516129032,1.57096774193548,1.54516129032258,1.51290322580645,1.47096774193548,1.43548387096774,1.40322580645161,1.38064516129032,1.36774193548387,1.35806451612903,1.35483870967742,1.35161290322581,1.33870967741935,1.34838709677419,1.33548387096774,1.34838709677419,1.33870967741935,1.34193548387097,1.34516129032258,1.34516129032258,1.33870967741935,1.34516129032258,1.34516129032258,1.35161290322581,1.35161290322581,1.35806451612903,1.36129032258065,1.36774193548387,1.36451612903226,1.36451612903226,1.36774193548387,1.36451612903226,1.37096774193548,1.36129032258065,1.35483870967742,1.35806451612903,1.35806451612903,1.35483870967742,1.35806451612903,1.34838709677419,1.35483870967742,1.34838709677419,1.35483870967742,1.34838709677419,1.35483870967742,1.34193548387097,1.35483870967742,1.35161290322581,1.35806451612903,1.36129032258065,1.37096774193548,1.38064516129032,1.3741935483871,1.38709677419355,1.42903225806452,1.43870967741935,1.43225806451613,1.42258064516129,1.3741935483871,1.35483870967742,1.34193548387097,1.33870967741935,1.32903225806452,1.33225806451613,1.3258064516129,1.3258064516129,1.31935483870968,1.32903225806452,1.25483870967742,1.14516129032258,1.25161290322581,1.66774193548387,2.25806451612903,2.51935483870968,2.08064516129032,1.70322580645161,1.43225806451613,1.37741935483871,1.35483870967742,1.33548387096774,1.3258064516129,1.3258064516129,1.3258064516129,1.3258064516129,1.3258064516129,1.32903225806452,1.3258064516129,1.3258064516129,1.33870967741935,1.33225806451613,1.33870967741935,1.33548387096774,1.34838709677419,1.34193548387097,1.35806451612903,1.35161290322581,1.36774193548387,1.36129032258065,1.38387096774194,1.38709677419355,1.40645161290323,1.42258064516129,1.45161290322581,1.4741935483871,1.5,1.52903225806452,1.55161290322581,1.56451612903226,1.56774193548387,1.55483870967742,1.5258064516129,1.49032258064516,1.44516129032258,1.42258064516129,1.39032258064516,1.37741935483871,1.35483870967742,1.35483870967742,1.34193548387097,1.34516129032258,1.33548387096774,1.34193548387097,1.33548387096774,1.33870967741935,1.33548387096774,1.33225806451613,1.33225806451613,1.33870967741935,1.33870967741935,1.34193548387097,1.34838709677419,1.34516129032258,1.35161290322581,1.35161290322581,1.35483870967742,1.35806451612903,1.36129032258065,1.36129032258065,1.36451612903226,1.35806451612903,1.36451612903226,1.35806451612903,1.35806451612903,1.35483870967742,1.35806451612903,1.34516129032258,1.35483870967742,1.34516129032258,1.35483870967742,1.34838709677419,1.35161290322581,1.34838709677419,1.35161290322581,1.35161290322581,1.34838709677419,1.35161290322581,1.35161290322581,1.35161290322581,1.35483870967742,1.35483870967742,1.36129032258065,1.37096774193548,1.37741935483871,1.38709677419355,1.37741935483871,1.40645161290323,1.42903225806452,1.44838709677419,1.43225806451613,1.4258064516129,1.37096774193548,1.35483870967742,1.33870967741935,1.33870967741935,1.32903225806452,1.32903225806452,1.33225806451613,1.33225806451613,1.32258064516129,1.31935483870968,1.22258064516129,1.12903225806452,1.34516129032258,1.80322580645161,2.5,2.56451612903226,2.05806451612903,1.72258064516129,1.47741935483871,1.3741935483871,1.35483870967742,1.32258064516129,1.3258064516129,1.30967741935484,1.32258064516129,1.31290322580645,1.32258064516129,1.3258064516129,1.3258064516129,1.32903225806452,1.33225806451613,1.33548387096774,1.33870967741935,1.34193548387097,1.34516129032258,1.34838709677419,1.35161290322581,1.35483870967742,1.35806451612903,1.36774193548387,1.3741935483871,1.39354838709677,1.4,1.42903225806452,1.44516129032258,1.47741935483871,1.49677419354839,1.53870967741935,1.53870967741935,1.57096774193548,1.56129032258065,1.55483870967742,1.51935483870968,1.48387096774194,1.44838709677419,1.40967741935484,1.39032258064516,1.37096774193548,1.35483870967742,1.35161290322581,1.34838709677419,1.34838709677419,1.34516129032258,1.33870967741935,1.34838709677419,1.34193548387097,1.34516129032258,1.33870967741935,1.34193548387097,1.33225806451613,1.34193548387097,1.33548387096774,1.34516129032258,1.33225806451613,1.34516129032258,1.34516129032258,1.35161290322581,1.34838709677419,1.35483870967742,1.35483870967742,1.35483870967742,1.35483870967742,1.35483870967742,1.35806451612903,1.35483870967742,1.35483870967742,1.34838709677419,1.34838709677419,1.34838709677419,1.35161290322581,1.35161290322581,1.34516129032258,1.33870967741935,1.34193548387097,1.33870967741935,1.34838709677419,1.33870967741935,1.34516129032258,1.33225806451613,1.34838709677419,1.33870967741935,1.34838709677419,1.35161290322581,1.35806451612903,1.36129032258065,1.38064516129032,1.38064516129032,1.38387096774194,1.40967741935484,1.43548387096774,1.44193548387097,1.43548387096774,1.40967741935484,1.35483870967742,1.34193548387097,1.33225806451613,1.3258064516129,1.31935483870968,1.32258064516129,1.30967741935484,1.31612903225806,1.30645161290323,1.30322580645161,1.15806451612903,1.1258064516129,1.44516129032258,1.97741935483871,2.65161290322581,2.47096774193548,1.95483870967742,1.60967741935484,1.41612903225806,1.35806451612903,1.32903225806452,1.31290322580645,1.30967741935484,1.31290322580645,1.31290322580645,1.31290322580645,1.31290322580645,1.31935483870968,1.31935483870968,1.31935483870968,1.32258064516129,1.31935483870968,1.33548387096774,1.32258064516129,1.34193548387097,1.33548387096774,1.34516129032258,1.35161290322581,1.35806451612903,1.36774193548387,1.37741935483871,1.39032258064516,1.41290322580645,1.42903225806452,1.45806451612903,1.48709677419355,1.51612903225806,1.54516129032258,1.56129032258065,1.57096774193548,1.57741935483871,1.55483870967742,1.52258064516129,1.48064516129032,1.43870967741935,1.40967741935484,1.37741935483871,1.36451612903226,1.34838709677419,1.35806451612903,1.33870967741935,1.35806451612903,1.34516129032258,1.35161290322581,1.33870967741935,1.35161290322581,1.34838709677419,1.34838709677419,1.34838709677419,1.35161290322581,1.35161290322581,1.35483870967742,1.35483870967742,1.35806451612903,1.35806451612903,1.36451612903226,1.37096774193548,1.3741935483871,1.37096774193548,1.37096774193548,1.38387096774194,1.36774193548387,1.38387096774194,1.3741935483871,1.38387096774194,1.3741935483871,1.38064516129032,1.38064516129032,1.3741935483871,1.3741935483871,1.38709677419355,1.38064516129032,1.38064516129032,1.38387096774194,1.38064516129032,1.37741935483871,1.38387096774194,1.38387096774194,1.38709677419355,1.38709677419355,1.39032258064516,1.4,1.40322580645161,1.41935483870968,1.41290322580645,1.42258064516129,1.44193548387097,1.48387096774194,1.48387096774194,1.49032258064516,1.45806451612903,1.40645161290323,1.39354838709677
1.34193548387097,1.3258064516129,1.34193548387097,1.32258064516129,1.34193548387097,1.32903225806452,1.33548387096774,1.32903225806452,1.33225806451613,1.32903225806452,1.32903225806452,1.33548387096774,1.32903225806452,1.33225806451613,1.33225806451613,1.32903225806452,1.32903225806452,1.32903225806452,1.32903225806452,1.32903225806452,1.33548387096774,1.33870967741935,1.34516129032258,1.36451612903226,1.35806451612903,1.37096774193548,1.38064516129032,1.42258064516129,1.43225806451613,1.43225806451613,1.40645161290323,1.35806451612903,1.33225806451613,1.31935483870968,1.31935483870968,1.31290322580645,1.31290322580645,1.30967741935484,1.31612903225806,1.30645161290323,1.3,1.18709677419355,1.11290322580645,1.37741935483871,1.88064516129032,2.58387096774194,2.5258064516129,1.96129032258065,1.63870967741935,1.4,1.37096774193548,1.33225806451613,1.32903225806452,1.30645161290323,1.32258064516129,1.30967741935484,1.31935483870968,1.31290322580645,1.3258064516129,1.32258064516129,1.32903225806452,1.3258064516129,1.32903225806452,1.33548387096774,1.34193548387097,1.33548387096774,1.34193548387097,1.35806451612903,1.35806451612903,1.36774193548387,1.37096774193548,1.37741935483871,1.39677419354839,1.41290322580645,1.43225806451613,1.46774193548387,1.47741935483871,1.52258064516129,1.53548387096774,1.56129032258065,1.56774193548387,1.56451612903226,1.54516129032258,1.51612903225806,1.46451612903226,1.4258064516129,1.40322580645161,1.38064516129032,1.36451612903226,1.35483870967742,1.34516129032258,1.33870967741935,1.33870967741935,1.34193548387097,1.33548387096774,1.33548387096774,1.34193548387097,1.32903225806452,1.33548387096774,1.33225806451613,1.33548387096774,1.3258064516129,1.34193548387097,1.34193548387097,1.34838709677419,1.34516129032258,1.35161290322581,1.35161290322581,1.36129032258065,1.36129032258065,1.35806451612903,1.36129032258065,1.35483870967742,1.36129032258065,1.35806451612903,1.35161290322581,1.34516129032258,1.34516129032258,1.35161290322581,1.34838709677419,1.34516129032258,1.35483870967742,1.34193548387097,1.36129032258065,1.33870967741935,1.35806451612903,1.35161290322581,1.36129032258065,1.36129032258065,1.38387096774194,1.37096774193548,1.38387096774194,1.41935483870968,1.44193548387097,1.44193548387097,1.43225806451613,1.39677419354839,1.36129032258065,1.34516129032258,1.33225806451613,1.32903225806452,1.33225806451613,1.33225806451613,1.32903225806452,1.3258064516129,1.33548387096774,1.29354838709677,1.15483870967742,1.19032258064516,1.54193548387097,2.08064516129032,2.52258064516129,2.2,1.75161290322581,1.46451612903226,1.36129032258065,1.37096774193548,1.34516129032258,1.34193548387097,1.33225806451613,1.33548387096774,1.33548387096774,1.33870967741935,1.33870967741935,1.34193548387097,1.34516129032258,1.34516129032258,1.34516129032258,1.34516129032258,1.35483870967742,1.35483870967742,1.35483870967742,1.35806451612903,1.37096774193548,1.37096774193548,1.38387096774194,1.38709677419355,1.40967741935484,1.41290322580645,1.43870967741935,1.45806451612903,1.48387096774194,1.50645161290323,1.53548387096774,1.55161290322581,1.56451612903226,1.56774193548387,1.55483870967742,1.5258064516129,1.49032258064516,1.45161290322581,1.41612903225806,1.39032258064516,1.37096774193548,1.36451612903226,1.35483870967742,1.35483870967742,1.34193548387097,1.34838709677419,1.33870967741935,1.34193548387097,1.33548387096774,1.34193548387097,1.33225806451613,1.34193548387097,1.33870967741935,1.34516129032258,1.34516129032258,1.34516129032258,1.35161290322581,1.35161290322581,1.35806451612903,1.36129032258065,1.36129032258065,1.36129032258065,1.36129032258065,1.36129032258065,1.36129032258065,1.35161290322581,1.35483870967742,1.34838709677419,1.35483870967742,1.34516129032258,1.35161290322581,1.34516129032258,1.35161290322581,1.34516129032258,1.35161290322581,1.34193548387097,1.34838709677419,1.34193548387097,1.35161290322581,1.35483870967742,1.36129032258065,1.36451612903226,1.37741935483871,1.3741935483871,1.38064516129032,1.40967741935484,1.43548387096774,1.43548387096774,1.42258064516129,1.40322580645161,1.35161290322581,1.33548387096774,1.33225806451613,1.3258064516129,1.31935483870968,1.32258064516129,1.31612903225806,1.32258064516129,1.31290322580645,1.29032258064516,1.15161290322581,1.17096774193548,1.51935483870968,2.0741935483871,2.59677419354839,2.31935483870968,1.86451612903226,1.53870967741935,1.38709677419355,1.35806451612903,1.33225806451613,1.31612903225806,1.31612903225806,1.30967741935484,1.31290322580645,1.30967741935484,1.31612903225806,1.31612903225806,1.32258064516129,1.32258064516129,1.3258064516129,1.32258064516129,1.33225806451613,1.33225806451613,1.34193548387097,1.33548387096774,1.35161290322581,1.34516129032258,1.36451612903226,1.36451612903226,1.38064516129032,1.39032258064516,1.40967741935484,1.43225806451613,1.45806451612903,1.48387096774194,1.50645161290323,1.52903225806452,1.54193548387097,1.55161290322581,1.53548387096774,1.51935483870968,1.48064516129032,1.44838709677419,1.40967741935484,1.39032258064516,1.36774193548387,1.36451612903226,1.34516129032258,1.34838709677419,1.33870967741935,1.34838709677419,1.33870967741935,1.34516129032258,1.33870967741935,1.33870967741935,1.33548387096774,1.33870967741935,1.33548387096774,1.33870967741935,1.34193548387097,1.34193548387097,1.34516129032258,1.34516129032258,1.35161290322581,1.34838709677419,1.35806451612903,1.35806451612903,1.36129032258065,1.36129032258065,1.36129032258065,1.36129032258065,1.36451612903226,1.35806451612903,1.35806451612903,1.35483870967742,1.35806451612903,1.35161290322581,1.35806451612903,1.35161290322581,1.35161290322581,1.35483870967742,1.35483870967742,1.35161290322581,1.35161290322581,1.34838709677419,1.35161290322581,1.35483870967742,1.35483870967742,1.37096774193548,1.37096774193548,1.38709677419355,1.38387096774194,1.39032258064516,1.42258064516129,1.44838709677419,1.43870967741935,1.44838709677419,1.41612903225806,1.36451612903226,1.34838709677419,1.34516129032258,1.33225806451613,1.33870967741935,1.3258064516129,1.33225806451613,1.3258064516129,1.3258064516129,1.28709677419355,1.15806451612903,1.16451612903226,1.53225806451613,2.11290322580645,2.6741935483871,2.40645161290323,1.9258064516129,1.59032258064516,1.41290322580645,1.37096774193548,1.34193548387097,1.32903225806452,1.31935483870968,1.32258064516129,1.31290322580645,1.32903225806452,1.32258064516129,1.3258064516129,1.3258064516129,1.32903225806452,1.32903225806452,1.33225806451613,1.33870967741935,1.33870967741935,1.34516129032258,1.34516129032258,1.35483870967742,1.35161290322581,1.36451612903226,1.36774193548387,1.37741935483871,1.39354838709677,1.41290322580645,1.43548387096774,1.46129032258065,1.48387096774194,1.51612903225806,1.53548387096774,1.55806451612903,1.55483870967742,1.55806451612903,1.5258064516129,1.49354838709677,1.45161290322581,1.4258064516129,1.38709677419355,1.37096774193548,1.35483870967742,1.34838709677419,1.34193548387097,1.33870967741935,1.33870967741935,1.33870967741935,1.33870967741935,1.33548387096774,1.32903225806452,1.33548387096774,1.33548387096774,1.33225806451613,1.33548387096774,1.33548387096774,1.33548387096774,1.33225806451613,1.33870967741935,1.33548387096774,1.34516129032258,1.33870967741935,1.34838709677419,1.34838709677419,1.35806451612903,1.34838709677419,1.35806451612903,1.34838709677419,1.35483870967742,1.34838709677419,1.34516129032258,1.34838709677419,1.34193548387097,1.34516129032258,1.34193548387097,1.34516129032258,1.33870967741935,1.34516129032258,1.34516129032258,1.35161290322581,1.34516129032258,1.34516129032258,1.34516129032258,1.35483870967742,1.34838709677419,1.36774193548387,1.37096774193548,1.38387096774194,1.38064516129032,1.38709677419355,1.42903225806452,1.44516129032258,1.44516129032258,1.42903225806452,1.39354838709677,1.34516129032258,1.33870967741935,1.32903225806452,1.3258064516129,1.3258064516129,1.3258064516129,1.32258064516129,1.31935483870968,1.32258064516129,1.25483870967742,1.12258064516129,1.23870967741935,1.66774193548387,2.31935483870968,2.61612903225806,2.14193548387097,1.71935483870968,1.43870967741935,1.37741935483871,1.35806451612903,1.33870967741935,1.32903225806452,1.32258064516129,1.32258064516129,1.32258064516129,1.32258064516129,1.33548387096774,1.3258064516129,1.32903225806452,1.33548387096774,1.33870967741935,1.33548387096774,1.34516129032258,1.34516129032258,1.34516129032258,1.35161290322581,1.36129032258065,1.36774193548387,1.38064516129032,1.37741935483871,1.4,1.40322580645161,1.43225806451613,1.45483870967742,1.47741935483871,1.50645161290323,1.53870967741935,1.56451612903226,1.56129032258065,1.56451612903226,1.54516129032258,1.5258064516129,1.48387096774194,1.44516129032258,1.40322580645161,1.38709677419355,1.3741935483871,1.36451612903226,1.35161290322581,1.34516129032258,1.34193548387097,1.34838709677419,1.33548387096774,1.34516129032258,1.33548387096774,1.33225806451613,1.33225806451613,1.34193548387097,1.33870967741935,1.34193548387097,1.34516129032258,1.34516129032258,1.34516129032258,1.35483870967742,1.36129032258065,1.35806451612903,1.36129032258065,1.35806451612903,1.36129032258065,1.37096774193548,1.36129032258065,1.35806451612903,1.35483870967742,1.35483870967742,1.36129032258065,1.34838709677419,1.35806451612903,1.35483870967742,1.35483870967742,1.34516129032258,1.35161290322581,1.34516129032258,1.35161290322581,1.35161290322581,1.35483870967742,1.36129032258065,1.35483870967742,1.36129032258065,1.36774193548387,1.38387096774194,1.37096774193548,1.38709677419355,1.43225806451613,1.44516129032258,1.43225806451613,1.41935483870968,1.3741935483871,1.36129032258065,1.35161290322581,1.34193548387097,1.33548387096774,1.33870967741935,1.32258064516129,1.33548387096774,1.32903225806452,1.33870967741935,1.25161290322581,1.15161290322581,1.28709677419355,1.71612903225806,2.31612903225806,2.47741935483871,2.00967741935484,1.64838709677419,1.41612903225806,1.3741935483871,1.35806451612903,1.34193548387097,1.33548387096774,1.33225806451613,1.32903225806452,1.33225806451613,1.32903225806452,1.33548387096774,1.33870967741935,1.33225806451613,1.33870967741935,1.33548387096774,1.35161290322581,1.34193548387097,1.35161290322581,1.34838709677419,1.35806451612903,1.35806451612903,1.37096774193548,1.3741935483871,1.37741935483871,1.4,1.40967741935484,1.43225806451613,1.45161290322581,1.48387096774194,1.50645161290323,1.5258064516129,1.54193548387097,1.55806451612903,1.55483870967742,1.54193548387097,1.50967741935484,1.47096774193548,1.43225806451613,1.40645161290323,1.3741935483871,1.37096774193548,1.35161290322581,1.35161290322581,1.33548387096774,1.34193548387097,1.33548387096774,1.33870967741935,1.33548387096774,1.33225806451613,1.32903225806452,1.3258064516129,1.33225806451613,1.33225806451613,1.33870967741935,1.34193548387097,1.34193548387097,1.34516129032258,1.34838709677419,1.35483870967742,1.35483870967742,1.36129032258065,1.36129032258065,1.35483870967742,1.36129032258065,1.35483870967742,1.35806451612903,1.35161290322581,1.36129032258065,1.34838709677419,1.34838709677419,1.35161290322581,1.34838709677419,1.34516129032258,1.34516129032258,1.34193548387097,1.34838709677419,1.34516129032258,1.34516129032258,1.34516129032258,1.34838709677419,1.34838709677419,1.36451612903226,1.36129032258065,1.36774193548387,1.38064516129032,1.3741935483871,1.38709677419355,1.4258064516129,1.44193548387097,1.42903225806452,1.42903225806452,1.38064516129032,1.36129032258065,1.33870967741935,1.33870967741935,1.32903225806452,1.3258064516129,1.32258064516129,1.31612903225806,1.3258064516129,1.31935483870968,1.24516129032258,1.12903225806452,1.27741935483871,1.7,2.37096774193548,2.61290322580645,2.15483870967742,1.77741935483871,1.49032258064516,1.37741935483871,1.35483870967742,1.32903225806452,1.32258064516129,1.31612903225806,1.32258064516129,1.30967741935484,1.32903225806452,1.32258064516129,1.3258064516129,1.3258064516129,1.3258064516129,1.33548387096774,1.32903225806452,1.33870967741935,1.34193548387097,1.34193548387097,1.35161290322581,1.35483870967742,1.35806451612903,1.36774193548387,1.37741935483871,1.38709677419355,1.40322580645161,1.4258064516129,1.44193548387097,1.47096774193548,1.49677419354839,1.5258064516129,1.53870967741935,1.56451612903226,1.55806451612903,1.54838709677419,1.51612903225806,1.48064516129032,1.44193548387097,1.41290322580645,1.39032258064516,1.37096774193548,1.35806451612903,1.34838709677419,1.34838709677419,1.35483870967742,1.34838709677419,1.34838709677419,1.34516129032258,1.34516129032258,1.34516129032258,1.34193548387097,1.34516129032258,1.34193548387097,1.34193548387097,1.33870967741935,1.34838709677419,1.34516129032258,1.35161290322581,1.34838709677419,1.35806451612903,1.35483870967742,1.35806451612903,1.36129032258065,1.35806451612903,1.36129032258065,1.35806451612903,1.36451612903226,1.35806451612903,1.35483870967742,1.36129032258065,1.35483870967742,1.35483870967742,1.35483870967742,1.35483870967742,1.35483870967742,1.35483870967742,1.35161290322581,1.35483870967742,1.34838709677419,1.34516129032258,1.35483870967742,1.34838709677419,1.35806451612903,1.35161290322581,1.36774193548387,1.36451612903226,1.3741935483871,1.39032258064516,1.3741935483871,1.38709677419355,1.42258064516129,1.44838709677419,1.43870967741935,1.43870967741935,1.40645161290323,1.35806451612903,1.34193548387097,1.33225806451613,1.32903225806452,1.32903225806452,1.32258064516129,1.31935483870968,1.31612903225806,1.31612903225806,1.26129032258065,1.13548387096774,1.21290322580645,1.63225806451613,2.28064516129032,2.68064516129032,2.26774193548387,1.83225806451613,1.52258064516129,1.38064516129032,1.34516129032258,1.31935483870968,1.31290322580645,1.30967741935484,1.30967741935484,1.31290322580645,1.30645161290323,1.31612903225806,1.31290322580645,1.31935483870968,1.31935483870968,1.32258064516129,1.3258064516129,1.32903225806452,1.33225806451613,1.33225806451613,1.34516129032258,1.34193548387097,1.35806451612903,1.35161290322581,1.37096774193548,1.37741935483871,1.39354838709677,1.41935483870968,1.43548387096774,1.46774193548387,1.49354838709677,1.52258064516129,1.54516129032258,1.56129032258065,1.56774193548387,1.55161290322581,1.52258064516129,1.48709677419355,1.45161290322581,1.41290322580645,1.39032258064516,1.36451612903226,1.34838709677419,1.34516129032258,1.34516129032258,1.34193548387097,1.33225806451613,1.33870967741935,1.32903225806452,1.33548387096774,1.32903225806452,1.33548387096774,1.33225806451613,1.33548387096774,1.33225806451613,1.33870967741935,1.33225806451613,1.33548387096774,1.34193548387097,1.33548387096774,1.34193548387097,1.34838709677419,1.34838709677419,1.35161290322581,1.35806451612903,1.35483870967742,1.35806451612903,1.35483870967742,1.34838709677419,1.34838709677419,1.35161290322581,1.34516129032258,1.34838709677419,1.34193548387097,1.34516129032258,1.34838709677419,1.34516129032258,1.34516129032258,1.34838709677419,1.34516129032258,1.34516129032258,1.34516129032258,1.35161290322581,1.35806451612903,1.35806451612903,1.36451612903226,1.38387096774194,1.3741935483871,1.38387096774194,1.41612903225806,1.44193548387097,1.44838709677419,1.42903225806452,1.40645161290323,1.36451612903226,1.34193548387097,1.33548387096774,1.33548387096774,1.32903225806452,1.3258064516129,1.31935483870968,1.3258064516129,1.3258064516129,1.29677419354839,1.16129032258065,1.17096774193548,1.53548387096774,2.0741935483871,2.5741935483871,2.25483870967742,1.78387096774194,1.48387096774194,1.35806451612903,1.36774193548387,1.33870967741935,1.33548387096774,1.33548387096774,1.32903225806452,1.33548387096774,1.33548387096774,1.33548387096774,1.3258064516129,1.34516129032258,1.33548387096774,1.33870967741935,1.34193548387097,1.34838709677419,1.34838709677419,1.35806451612903,1.35806451612903,1.36451612903226,1.36774193548387,1.3741935483871,1.39032258064516,1.40322580645161,1.41612903225806,1.43548387096774,1.45483870967742,1.49032258064516,1.50967741935484,1.52903225806452,1.55161290322581,1.56774193548387,1.5741935483871,1.55806451612903,1.53870967741935,1.49354838709677,1.45806451612903,1.4258064516129,1.40322580645161,1.38387096774194,1.3741935483871,1.36129032258065,1.36129032258065,1.35161290322581,1.35483870967742,1.35161290322581,1.35161290322581,1.34516129032258,1.35161290322581,1.34516129032258,1.34838709677419,1.35161290322581,1.35483870967742,1.36129032258065,1.36129032258065,1.36451612903226,1.36451612903226,1.3741935483871,1.37096774193548,1.37741935483871,1.3741935483871,1.37741935483871,1.3741935483871,1.37741935483871,1.36451612903226,1.36774193548387,1.36129032258065,1.36774193548387,1.36451612903226,1.36451612903226,1.36129032258065,1.35806451612903,1.35806451612903,1.35806451612903,1.35806451612903,1.35483870967742,1.35806451612903,1.35483870967742,1.35806451612903,1.36129032258065,1.36451612903226,1.36774193548387,1.37741935483871,1.38387096774194,1.37741935483871,1.39354838709677,1.43225806451613,1.43548387096774,1.44193548387097,1.42258064516129,1.37741935483871,1.35161290322581,1.34193548387097,1.33548387096774,1.33225806451613,1.32903225806452,1.32903225806452,1.3258064516129,1.32903225806452,1.31612903225806,1.23548387096774,1.13548387096774,1.31935483870968,1.76774193548387,2.40322580645161,2.5,2.01290322580645,1.66129032258065,1.41612903225806,1.36774193548387,1.34193548387097,1.33548387096774,1.31935483870968,1.31612903225806,1.31612903225806,1.32258064516129,1.31612903225806,1.31612903225806,1.32258064516129,1.32903225806452,1.32903225806452,1.33225806451613,1.32903225806452,1.33548387096774,1.33548387096774,1.33870967741935,1.34193548387097,1.34838709677419,1.35806451612903,1.36129032258065,1.37096774193548,1.38064516129032,1.4,1.41612903225806,1.44516129032258,1.46129032258065,1.49354838709677,1.50967741935484,1.53548387096774,1.53870967741935,1.54516129032258,1.5258064516129,1.49677419354839,1.46129032258065,1.4258064516129,1.39354838709677,1.36774193548387,1.35483870967742,1.34193548387097,1.33225806451613,1.33870967741935,1.33225806451613,1.33225806451613,1.32903225806452,1.32258064516129,1.32258064516129,1.3258064516129,1.32258064516129,1.32258064516129,1.3258064516129,1.31612903225806,1.33225806451613,1.3258064516129,1.33548387096774,1.33225806451613,1.34516129032258,1.34516129032258,1.34516129032258,1.34516129032258,1.34838709677419,1.34516129032258,1.34838709677419,1.34516129032258,1.34838709677419,1.34516129032258,1.34838709677419,1.34193548387097,1.34193548387097,1.34193548387097,1.34193548387097,1.33870967741935,1.33870967741935,1.33870967741935,1.33548387096774,1.34193548387097,1.32903225806452,1.34193548387097,1.33548387096774,1.34838709677419,1.34838709677419,1.35483870967742,1.35806451612903,1.37741935483871,1.3741935483871,1.38064516129032,1.40967741935484,1.43225806451613,1.43548387096774,1.4258064516129,1.41290322580645,1.35806451612903,1.34516129032258,1.33870967741935,1.33225806451613,1.3258064516129,1.32258064516129,1.31935483870968,1.31935483870968,1.31612903225806,1.30645161290323,1.15806451612903,1.14193548387097,1.45483870967742,1.99354838709677,2.64838709677419,2.47096774193548,1.96451612903226,1.63225806451613,1.43870967741935,1.3741935483871,1.33870967741935,1.3258064516129,1.32258064516129,1.32258064516129,1.3258064516129,1.32258064516129,1.32903225806452,1.33225806451613,1.32903225806452,1.33870967741935,1.33548387096774,1.33870967741935,1.34838709677419,1.34516129032258,1.36129032258065,1.35161290322581,1.36774193548387,1.36451612903226,1.37741935483871,1.37741935483871,1.39354838709677,1.40322580645161,1.4258064516129,1.44193548387097,1.4741935483871,1.49677419354839,1.52903225806452,1.55161290322581,1.57096774193548,1.58064516129032,1.57741935483871,1.55806451612903,1.52258064516129,1.48064516129032,1.44838709677419,1.41935483870968,1.39677419354839,1.38709677419355,1.37741935483871,1.37741935483871,1.36451612903226,1.37096774193548,1.36129032258065,1.36774193548387,1.36129032258065,1.36451612903226,1.36129032258065,1.36451612903226,1.36129032258065,1.36129032258065,1.36129032258065,1.36451612903226,1.37096774193548,1.36774193548387,1.37096774193548,1.3741935483871,1.3741935483871,1.37741935483871,1.3741935483871,1.38064516129032,1.37096774193548,1.37741935483871,1.37741935483871,1.3741935483871,1.3741935483871,1.36451612903226,1.3741935483871,1.36129032258065,1.36774193548387,1.36129032258065,1.36451612903226,1.36129032258065,1.36451612903226,1.35483870967742,1.35483870967742,1.35483870967742,1.35806451612903,1.35806451612903,1.34838709677419,1.34838709677419,1.35806451612903,1.36129032258065,1.36774193548387,1.3741935483871,1.38064516129032,1.3741935483871,1.40322580645161,1.43548387096774,1.4258064516129,1.42258064516129,1.39032258064516,1.33870967741935,1.31612903225806,1.31290322580645,1.29677419354839,1.29354838709677,1.29032258064516,1.28064516129032,1.2741935483871,1.26774193548387,1.24193548387097,1.10645161290323,1.07096774193548,1.39677419354839,1.94838709677419,2.60967741935484,2.39032258064516,1.84193548387097,1.49677419354839,1.30322580645161,1.25483870967742,1.22903225806452,1.21612903225806,1.18709677419355,1.19032258064516,1.18064516129032
