0.987096774193548,1.01935483870968,1.02903225806452,1.0258064516129,1.04193548387097,1.05483870967742,1.06129032258065,1.07741935483871,1.07741935483871,1.11290322580645,1.11935483870968,1.14193548387097,1.17096774193548,1.17741935483871,1.19354838709677,1.19354838709677,1.18064516129032,1.16129032258065,1.16129032258065,1.13870967741935,1.15483870967742,1.14516129032258,1.13548387096774,1.13870967741935,1.1258064516129,1.11935483870968,1.11290322580645,1.10322580645161,1.10322580645161,1.09032258064516,1.06774193548387,1.10322580645161,1.08064516129032,1.06774193548387,1.07741935483871,1.09677419354839,1.07741935483871,1.07741935483871,1.09032258064516,1.10322580645161,1.09032258064516,1.10645161290323,1.11612903225806,1.12903225806452,1.14838709677419,1.14838709677419,1.15806451612903,1.17096774193548,1.17096774193548,1.15161290322581,1.18064516129032,1.16774193548387,1.16774193548387,1.16774193548387,1.18387096774194,1.19677419354839,1.22258064516129,1.19677419354839,1.18709677419355,1.19677419354839,1.20645161290323,1.18387096774194,1.18387096774194,1.21612903225806,1.1741935483871,1.14193548387097,1.13870967741935,1.16451612903226,1.1741935483871,1.18064516129032,1.17741935483871,1.18709677419355,1.19677419354839,1.17741935483871,1.18064516129032,1.25483870967742,1.55161290322581,1.95806451612903,2.34516129032258,2.56451612903226,2.16774193548387,1.88387096774194,1.47741935483871,1.2258064516129,1.09032258064516,1.05483870967742,1.0258064516129,1.01935483870968,1.04516129032258,1.11935483870968,1.11290322580645,1.1258064516129,1.12258064516129,1.12258064516129,1.14193548387097,1.13548387096774,1.13870967741935,1.15483870967742,1.15806451612903,1.14838709677419,1.16129032258065,1.17096774193548,1.16451612903226,1.16774193548387,1.18064516129032,1.18709677419355,1.21290322580645,1.20645161290323,1.21612903225806,1.21935483870968,1.25161290322581,1.28064516129032,1.29677419354839,1.31612903225806,1.34193548387097,1.33548387096774,1.33870967741935,1.29677419354839,1.31290322580645,1.28709677419355,1.25483870967742,1.22258064516129,1.2,1.18709677419355,1.19032258064516,1.18387096774194,1.15161290322581,1.14516129032258,1.16129032258065,1.15483870967742,1.17741935483871,1.14193548387097,1.15483870967742,1.15161290322581,1.15806451612903,1.15483870967742,1.17741935483871,1.14193548387097,1.16451612903226,1.16774193548387,1.1741935483871,1.15806451612903,1.17741935483871,1.16129032258065,1.17741935483871,1.18387096774194,1.19032258064516,1.16774193548387,1.17096774193548,1.18709677419355,1.16774193548387,1.17741935483871,1.2,1.19032258064516,1.19354838709677,1.22258064516129,1.21935483870968,1.22903225806452,1.24516129032258,1.24516129032258,1.20645161290323,1.22903225806452,1.25806451612903,1.18709677419355,1.21935483870968,1.25806451612903,1.20967741935484,1.21290322580645,1.17741935483871,1.18064516129032,1.16451612903226,1.15483870967742,1.17741935483871,1.13548387096774,1.15161290322581,1.11935483870968,1.12258064516129,1.30645161290323,1.61612903225806,1.98709677419355,2.43225806451613,2.27096774193548,2.04193548387097,1.80967741935484,1.43548387096774,1.07741935483871,1.09677419354839,1.0741935483871,1.06129032258065,1.04193548387097,1.06129032258065,1.08387096774194,1.07741935483871,1.09354838709677,1.08709677419355,1.07096774193548,1.08387096774194,1.08387096774194,1.08709677419355,1.08387096774194,1.0741935483871,1.09354838709677,1.08064516129032,1.10967741935484,1.11612903225806,1.1,1.10967741935484,1.10322580645161,1.11935483870968,1.11290322580645,1.12903225806452,1.14193548387097,1.15161290322581,1.18064516129032,1.17741935483871,1.18709677419355,1.19677419354839,1.19354838709677,1.19354838709677,1.20322580645161,1.20645161290323,1.2,1.18387096774194,1.17741935483871,1.15161290322581,1.15161290322581,1.15161290322581,1.14838709677419,1.10322580645161,1.14516129032258,1.12258064516129,1.12903225806452,1.13548387096774,1.11290322580645,1.13548387096774,1.13870967741935,1.14516129032258,1.14838709677419,1.16451612903226,1.16774193548387,1.1741935483871,1.17096774193548,1.16774193548387,1.17741935483871,1.19677419354839,1.1741935483871,1.21290322580645,1.20322580645161,1.21290322580645,1.21612903225806,1.20322580645161,1.20967741935484,1.20645161290323,1.19354838709677,1.19677419354839,1.20322580645161,1.20967741935484,1.19032258064516,1.23225806451613,1.23870967741935,1.22903225806452,1.21290322580645,1.23870967741935,1.24516129032258,1.21935483870968,1.21290322580645,1.24838709677419,1.21290322580645,1.19677419354839,1.1741935483871,1.19677419354839,1.17741935483871,1.19354838709677,1.19032258064516,1.20322580645161,1.2,1.17096774193548,1.15483870967742,1.24193548387097,1.5258064516129,1.91612903225806,2.28064516129032,2.48064516129032,2.03870967741935,1.76774193548387,1.39032258064516,1.16129032258065,1.06774193548387,1.02258064516129,0.993548387096774,0.987096774193548,1.02903225806452,1.09032258064516,1.1,1.10967741935484,1.10967741935484,1.11935483870968,1.11290322580645,1.12258064516129,1.11290322580645,1.11612903225806,1.1258064516129,1.13548387096774,1.13870967741935,1.14516129032258,1.15806451612903,1.16774193548387,1.18064516129032,1.20322580645161,1.20645161290323,1.21612903225806,1.23225806451613,1.23870967741935,1.23548387096774,1.28064516129032,1.30322580645161,1.31612903225806,1.33870967741935,1.34193548387097,1.3258064516129,1.31290322580645,1.30322580645161,1.28387096774194,1.26129032258065,1.22258064516129,1.24193548387097,1.19677419354839,1.18387096774194,1.18064516129032,1.14838709677419,1.16774193548387,1.13548387096774,1.16451612903226,1.11290322580645,1.11290322580645,1.11935483870968,1.10967741935484,1.12258064516129,1.11935483870968,1.1,1.14838709677419,1.13870967741935,1.15806451612903,1.15806451612903,1.17741935483871,1.17096774193548,1.18387096774194,1.17741935483871,1.19032258064516,1.17741935483871,1.1741935483871,1.17741935483871,1.17096774193548,1.16451612903226,1.17741935483871,1.16451612903226,1.17096774193548,1.18709677419355,1.16774193548387,1.16451612903226,1.18709677419355,1.18709677419355,1.18709677419355,1.2,1.17741935483871,1.16129032258065,1.16451612903226,1.19677419354839,1.18387096774194,1.13548387096774,1.1,1.10967741935484,1.10645161290323,1.11612903225806,1.12903225806452,1.11290322580645,1.13225806451613,1.13225806451613,1.10967741935484,1.15483870967742,1.36451612903226,1.72258064516129,2.15161290322581,2.62258064516129,2.26774193548387,2.07741935483871,1.7741935483871,1.45483870967742,1.10967741935484,1.06774193548387,1.07096774193548,1.05483870967742,1.03225806451613,1.05161290322581,1.05161290322581,1.03870967741935,1.04516129032258,1.05483870967742,1.05483870967742,1.06129032258065,1.0741935483871,1.07741935483871,1.07741935483871,1.08387096774194,1.09032258064516,1.08387096774194,1.08709677419355,1.09677419354839,1.11935483870968,1.11612903225806,1.14193548387097,1.14193548387097,1.16129032258065,1.16129032258065,1.19032258064516,1.19677419354839,1.20322580645161,1.23548387096774,1.25161290322581,1.26129032258065,1.27741935483871,1.28709677419355,1.28709677419355,1.28387096774194,1.27096774193548,1.27741935483871,1.26774193548387,1.25161290322581,1.24516129032258,1.22258064516129,1.21612903225806,1.21290322580645,1.22258064516129,1.19354838709677,1.19354838709677,1.19677419354839,1.18064516129032,1.17741935483871,1.16774193548387,1.16451612903226,1.18064516129032,1.18064516129032,1.19354838709677,1.2,1.19354838709677,1.21290322580645,1.21612903225806,1.21290322580645,1.20322580645161,1.20322580645161,1.2,1.20967741935484,1.20322580645161,1.24193548387097,1.22903225806452,1.22903225806452,1.21612903225806,1.24838709677419,1.21290322580645,1.18709677419355,1.19354838709677,1.19032258064516,1.19032258064516,1.14838709677419,1.16774193548387,1.18387096774194,1.16774193548387,1.15161290322581,1.21935483870968,1.19677419354839,1.15483870967742,1.16129032258065,1.14193548387097,1.18064516129032,1.15806451612903,1.16774193548387,1.14193548387097,1.15161290322581,1.15806451612903,1.11612903225806,1.12903225806452,1.3258064516129,1.63870967741935,2.09032258064516,2.53548387096774,2.32258064516129,2.00645161290323,1.68064516129032,1.37096774193548,1.05483870967742,0.996774193548387,0.912903225806452,0.896774193548387,0.909677419354839,0.964516129032258,1.03548387096774,1.03225806451613,1.02903225806452,1.0741935483871,1.07741935483871,1.08709677419355,1.0741935483871,1.06774193548387,1.08387096774194,1.08387096774194,1.07741935483871,1.08064516129032,1.10645161290323,1.10967741935484,1.11935483870968,1.14193548387097,1.14838709677419,1.17096774193548,1.16129032258065,1.18709677419355,1.22258064516129,1.21935483870968,1.24838709677419,1.2741935483871,1.28709677419355,1.29354838709677,1.30645161290323,1.3,1.29354838709677,1.29032258064516,1.25161290322581,1.21290322580645,1.20967741935484,1.20967741935484,1.17741935483871,1.16451612903226,1.16451612903226,1.15806451612903,1.13225806451613,1.15161290322581,1.15161290322581,1.14193548387097,1.14516129032258,1.12903225806452,1.12258064516129,1.11290322580645,1.12903225806452,1.13548387096774,1.1258064516129,1.1258064516129,1.14838709677419,1.15483870967742,1.16774193548387,1.15483870967742,1.17096774193548,1.17096774193548,1.16774193548387,1.15806451612903,1.1741935483871,1.18387096774194,1.17741935483871,1.16774193548387,1.21935483870968,1.21290322580645,1.19354838709677,1.20967741935484,1.19354838709677,1.20967741935484,1.20967741935484,1.22258064516129,1.19677419354839,1.20967741935484,1.18709677419355,1.1741935483871,1.19677419354839,1.23225806451613,1.1741935483871,1.19677419354839,1.18064516129032,1.1741935483871,1.19032258064516,1.17741935483871,1.17741935483871,1.18387096774194,1.2,1.14193548387097,1.13870967741935,1.26774193548387,1.56774193548387,1.98709677419355,2.40322580645161,2.5,2.25483870967742,2.02258064516129,1.61935483870968,1.20322580645161,1.12903225806452,1.1258064516129,1.08709677419355,1.10645161290323,1.09677419354839,1.1258064516129,1.12903225806452,1.11612903225806,1.10967741935484,1.12258064516129,1.11612903225806,1.10967741935484,1.10322580645161,1.13548387096774,1.12258064516129,1.1258064516129,1.12258064516129,1.13225806451613,1.12903225806452,1.13548387096774,1.14838709677419,1.14838709677419,1.14838709677419,1.16129032258065,1.18709677419355,1.19354838709677,1.19032258064516,1.19032258064516,1.21935483870968,1.22903225806452,1.24516129032258,1.27096774193548,1.26774193548387,1.26451612903226,1.24838709677419,1.22903225806452,1.22903225806452,1.21612903225806,1.21935483870968,1.21290322580645,1.19677419354839,1.19677419354839,1.19032258064516,1.17096774193548,1.15161290322581,1.14516129032258,1.13870967741935,1.14193548387097,1.13870967741935,1.13870967741935,1.15806451612903,1.15806451612903,1.15483870967742,1.14516129032258,1.14838709677419,1.15483870967742,1.17741935483871,1.17096774193548,1.1741935483871,1.16129032258065,1.16129032258065,1.17741935483871,1.16774193548387,1.17096774193548,1.16451612903226,1.18387096774194,1.16774193548387,1.17741935483871,1.17096774193548,1.17741935483871,1.15806451612903,1.18709677419355,1.19032258064516,1.19677419354839,1.20322580645161,1.19032258064516,1.19354838709677,1.21290322580645,1.17096774193548,1.16451612903226,1.20967741935484,1.17096774193548,1.16451612903226,1.14516129032258,1.13225806451613,1.13870967741935,1.13225806451613,1.14838709677419,1.14838709677419,1.14193548387097,1.13548387096774,1.11612903225806,1.19677419354839,1.42258064516129,1.78064516129032,2.14838709677419,2.4741935483871,2.03548387096774,1.76129032258065,1.38709677419355,1.19032258064516,1.01612903225806,0.97741935483871,0.909677419354839,0.938709677419355,0.974193548387097,1.03225806451613,1.04838709677419,1.0741935483871,1.06774193548387,1.07096774193548,1.05806451612903,1.05161290322581,1.04516129032258,1.05806451612903,1.07096774193548,1.09677419354839,1.09032258064516,1.1,1.12903225806452,1.1258064516129,1.15483870967742,1.15161290322581,1.16774193548387,1.19677419354839,1.20967741935484,1.22258064516129,1.23225806451613,1.24516129032258,1.29032258064516,1.28064516129032,1.31290322580645,1.3258064516129,1.31612903225806,1.32903225806452,1.31290322580645,1.28709677419355,1.29354838709677,1.25483870967742,1.23548387096774,1.21290322580645,1.21290322580645,1.19354838709677,1.17096774193548,1.16774193548387,1.14193548387097,1.15483870967742,1.15806451612903,1.15161290322581,1.13870967741935,1.15806451612903,1.1741935483871,1.14838709677419,1.16774193548387,1.19032258064516,1.18064516129032,1.19677419354839,1.17741935483871,1.20322580645161,1.20322580645161,1.2,1.19677419354839,1.18709677419355,1.20967741935484,1.19354838709677,1.21612903225806,1.19677419354839,1.19354838709677,1.2258064516129,1.20322580645161,1.21612903225806,1.2258064516129,1.19032258064516,1.21935483870968,1.23870967741935,1.23548387096774,1.21612903225806,1.21290322580645,1.22903225806452,1.22258064516129,1.20645161290323,1.25483870967742,1.26774193548387,1.20645161290323,1.21612903225806,1.20967741935484,1.22903225806452,1.21612903225806,1.23870967741935,1.21290322580645,1.21935483870968,1.20322580645161,1.16774193548387,1.22903225806452,1.48387096774194,1.81935483870968,2.23548387096774,2.63870967741935,2.26774193548387,2.07096774193548,1.70645161290323,1.39677419354839,1.09354838709677,1.05806451612903,1.05483870967742,1.03548387096774,1.03870967741935,1.04838709677419,1.05161290322581,1.06774193548387,1.0741935483871,1.06451612903226,1.06451612903226,1.07096774193548,1.0741935483871,1.1,1.08387096774194,1.07096774193548,1.09032258064516,1.09354838709677,1.09354838709677,1.09677419354839,1.10322580645161,1.11612903225806,1.10645161290323,1.10645161290323,1.11612903225806,1.11612903225806,1.14838709677419,1.14193548387097,1.16774193548387,1.20322580645161,1.20645161290323,1.23548387096774,1.23548387096774,1.20322580645161,1.2258064516129,1.21290322580645,1.21290322580645,1.19677419354839,1.19032258064516,1.19032258064516,1.1741935483871,1.16451612903226,1.15806451612903,1.15806451612903,1.13225806451613,1.15483870967742,1.14838709677419,1.15483870967742,1.14838709677419,1.13870967741935,1.13870967741935,1.15806451612903,1.13870967741935,1.14516129032258,1.15483870967742,1.15161290322581,1.15806451612903,1.14516129032258,1.14516129032258,1.16774193548387,1.18387096774194,1.19032258064516,1.1741935483871,1.17741935483871,1.19032258064516,1.18064516129032,1.18064516129032,1.19354838709677,1.19032258064516,1.18709677419355,1.18709677419355,1.19032258064516,1.21290322580645,1.19032258064516,1.19677419354839,1.16451612903226,1.2,1.19354838709677,1.17741935483871,1.17096774193548,1.21612903225806,1.20645161290323,1.18064516129032,1.17741935483871,1.18064516129032,1.18064516129032,1.19677419354839,1.18064516129032,1.18709677419355,1.21935483870968,1.18387096774194,1.16774193548387,1.23225806451613,1.48387096774194,1.83548387096774,2.24838709677419,2.60645161290323,2.16774193548387,1.87096774193548,1.47096774193548,1.23870967741935,1.01290322580645,0.97741935483871,0.916129032258065,0.903225806451613,0.945161290322581,1.00322580645161,1.02903225806452,1.05483870967742,1.06129032258065,1.06774193548387,1.08387096774194,1.08064516129032,1.08064516129032,1.08387096774194,1.08387096774194,1.1,1.10322580645161,1.12258064516129,1.1258064516129,1.14516129032258,1.16451612903226,1.16129032258065,1.16451612903226,1.19354838709677,1.20645161290323,1.23870967741935,1.26774193548387,1.28709677419355,1.3,1.3,1.32258064516129,1.33548387096774,1.34193548387097,1.3258064516129,1.28709677419355,1.28709677419355,1.25806451612903,1.24193548387097,1.2258064516129,1.21612903225806,1.20322580645161,1.18387096774194,1.1741935483871,1.16451612903226,1.16129032258065,1.16451612903226,1.13548387096774,1.14516129032258,1.14193548387097,1.15483870967742,1.14838709677419,1.15161290322581,1.15161290322581,1.15161290322581,1.15483870967742,1.16774193548387,1.1741935483871,1.18709677419355,1.18387096774194,1.20645161290323,1.18387096774194,1.18387096774194,1.21290322580645,1.19677419354839,1.2,1.20967741935484,1.2,1.19032258064516,1.16129032258065,1.1741935483871,1.18064516129032,1.18064516129032,1.18709677419355,1.2,1.17741935483871,1.17096774193548,1.19677419354839,1.18387096774194,1.17096774193548,1.15806451612903,1.19677419354839,1.17096774193548,1.19032258064516,1.16451612903226,1.12258064516129,1.16129032258065,1.15806451612903,1.16451612903226,1.14516129032258,1.15806451612903,1.12258064516129,1.10322580645161,1.20967741935484,1.50645161290323,1.92903225806452,2.30967741935484,2.48709677419355,2.17096774193548,1.98064516129032,1.54838709677419,1.19354838709677,1.03548387096774,1.03870967741935,1.04193548387097,1.03548387096774,1.05483870967742,1.0741935483871,1.09677419354839,1.11612903225806,1.09677419354839,1.1258064516129,1.11612903225806,1.11612903225806,1.1,1.10645161290323,1.10967741935484,1.10645161290323,1.09677419354839,1.11612903225806,1.11290322580645,1.13548387096774,1.13548387096774,1.14193548387097,1.15806451612903,1.15483870967742,1.16451612903226,1.18064516129032,1.2,1.2,1.20322580645161,1.24193548387097,1.23548387096774,1.25483870967742,1.25483870967742,1.23225806451613,1.25483870967742,1.25483870967742,1.24838709677419,1.24193548387097,1.21612903225806,1.20967741935484,1.19677419354839,1.18064516129032,1.17096774193548,1.11935483870968,1.14516129032258,1.14516129032258,1.12258064516129,1.15483870967742,1.14516129032258,1.13548387096774,1.14516129032258,1.13548387096774,1.14193548387097,1.13548387096774,1.1741935483871,1.16451612903226,1.17741935483871,1.18387096774194,1.16774193548387,1.18064516129032,1.20967741935484,1.18709677419355,1.22258064516129,1.20645161290323,1.21290322580645,1.20645161290323,1.19354838709677,1.21290322580645,1.20645161290323,1.2,1.18387096774194,1.19677419354839,1.20322580645161,1.22903225806452,1.23225806451613,1.21935483870968,1.25161290322581,1.23548387096774,1.19677419354839,1.22258064516129,1.22903225806452,1.2,1.21612903225806,1.19677419354839,1.18387096774194,1.19354838709677,1.2,1.18064516129032,1.18709677419355,1.1741935483871,1.12258064516129,1.1741935483871,1.35161290322581,1.66129032258065,2.01935483870968,2.43870967741935,2.09677419354839,1.8,1.50967741935484,1.26451612903226,1.01290322580645,1.01612903225806,0.958064516129032,0.964516129032258,0.987096774193548,1.04838709677419,1.10322580645161,1.10322580645161,1.10967741935484,1.10645161290323,1.1258064516129,1.12258064516129,1.10645161290323,1.12903225806452,1.11612903225806,1.12258064516129,1.14516129032258,1.15483870967742,1.16451612903226,1.15806451612903,1.16451612903226,1.19677419354839,1.20645161290323,1.21290322580645,1.23548387096774,1.24516129032258,1.26451612903226,1.28709677419355,1.30322580645161,1.32903225806452,1.32258064516129,1.34516129032258,1.33870967741935,1.32903225806452,1.31290322580645,1.3,1.29677419354839,1.26129032258065,1.22258064516129,1.23548387096774,1.2,1.18064516129032,1.17096774193548,1.15806451612903,1.14193548387097,1.11612903225806,1.11935483870968,1.10967741935484,1.11612903225806,1.13548387096774,1.11290322580645,1.11612903225806,1.12903225806452,1.12903225806452,1.13225806451613,1.13225806451613,1.15806451612903,1.16451612903226,1.13548387096774,1.14838709677419,1.15161290322581,1.14193548387097,1.16774193548387,1.15483870967742,1.15161290322581,1.16129032258065,1.16774193548387,1.15806451612903,1.15483870967742,1.16451612903226,1.15161290322581,1.15161290322581,1.15483870967742,1.19032258064516,1.16451612903226,1.16451612903226,1.17741935483871,1.21290322580645,1.18064516129032,1.16774193548387,1.22258064516129,1.23225806451613,1.17741935483871,1.19354838709677,1.18064516129032,1.18387096774194,1.16451612903226,1.16451612903226,1.16774193548387,1.16774193548387,1.1258064516129,1.12903225806452,1.24516129032258,1.53548387096774,1.91290322580645,2.29354838709677,2.35483870967742,2.03870967741935,1.81290322580645,1.46129032258065,1.17741935483871,1.04516129032258,0.980645161290323,0.996774193548387,1.04838709677419,1.03870967741935,1.06129032258065,1.06451612903226,1.08709677419355,1.07741935483871,1.07741935483871,1.09032258064516,1.10645161290323,1.09677419354839,1.10322580645161,1.10645161290323,1.1,1.10322580645161,1.12258064516129,1.12258064516129,1.14838709677419,1.15483870967742,1.16774193548387,1.16129032258065,1.16774193548387,1.1741935483871,1.18387096774194,1.19677419354839,1.21290322580645,1.2258064516129,1.24516129032258,1.26129032258065,1.27741935483871,1.28064516129032,1.28387096774194,1.27741935483871,1.27096774193548,1.26774193548387,1.26129032258065,1.25806451612903,1.24193548387097,1.24516129032258,1.23870967741935,1.23548387096774,1.21612903225806,1.22258064516129,1.2258064516129,1.19354838709677,1.21935483870968,1.18709677419355,1.19032258064516,1.21935483870968,1.21612903225806,1.22258064516129,1.22258064516129
1.2741935483871,1.26451612903226,1.29677419354839,1.30967741935484,1.30322580645161,1.31612903225806,1.29677419354839,1.27096774193548,1.28064516129032,1.24193548387097,1.22258064516129,1.2,1.20322580645161,1.18064516129032,1.15806451612903,1.15483870967742,1.13225806451613,1.14193548387097,1.14516129032258,1.14193548387097,1.12903225806452,1.14838709677419,1.16451612903226,1.14193548387097,1.15806451612903,1.18064516129032,1.17096774193548,1.19032258064516,1.16774193548387,1.19354838709677,1.19354838709677,1.19354838709677,1.19032258064516,1.18064516129032,1.2,1.18709677419355,1.20967741935484,1.19032258064516,1.19032258064516,1.21935483870968,1.2,1.20967741935484,1.22258064516129,1.18709677419355,1.21290322580645,1.23548387096774,1.22903225806452,1.21290322580645,1.20645161290323,1.2258064516129,1.21935483870968,1.20322580645161,1.25161290322581,1.26451612903226,1.20322580645161,1.21290322580645,1.20645161290323,1.2258064516129,1.21290322580645,1.23548387096774,1.20967741935484,1.21612903225806,1.2,1.16451612903226,1.2258064516129,1.48064516129032,1.81612903225806,2.23225806451613,2.63548387096774,2.26451612903226,2.06774193548387,1.70645161290323,1.39354838709677,1.09354838709677,1.05483870967742,1.05161290322581,1.03548387096774,1.03870967741935,1.04838709677419,1.04838709677419,1.06774193548387,1.07096774193548,1.06129032258065,1.06451612903226,1.07096774193548,1.0741935483871,1.1,1.08387096774194,1.07096774193548,1.09032258064516,1.09354838709677,1.09354838709677,1.09677419354839,1.10322580645161,1.11612903225806,1.10645161290323,1.10645161290323,1.11612903225806,1.11612903225806,1.14838709677419,1.14516129032258,1.16774193548387,1.20322580645161,1.20645161290323,1.23548387096774,1.23548387096774,1.20322580645161,1.2258064516129,1.21290322580645,1.21290322580645,1.19677419354839,1.19032258064516,1.19032258064516,1.1741935483871,1.16774193548387,1.15806451612903,1.15806451612903,1.13225806451613,1.15483870967742,1.14838709677419,1.15483870967742,1.14838709677419,1.13870967741935,1.13870967741935,1.15806451612903,1.13870967741935,1.14516129032258,1.15483870967742,1.15483870967742,1.15806451612903,1.14516129032258,1.14516129032258,1.16774193548387,1.18387096774194,1.19032258064516,1.1741935483871,1.17741935483871,1.19032258064516,1.18064516129032,1.18064516129032,1.19354838709677,1.19032258064516,1.18709677419355,1.18709677419355,1.19032258064516,1.20967741935484,1.19032258064516,1.19677419354839,1.16451612903226,1.2,1.19354838709677,1.17741935483871,1.17096774193548,1.21612903225806,1.20645161290323,1.18064516129032,1.17741935483871,1.18064516129032,1.17741935483871,1.19677419354839,1.18064516129032,1.18709677419355,1.21935483870968,1.18064516129032,1.16451612903226,1.23225806451613,1.48387096774194,1.83225806451613,2.24516129032258,2.60645161290323,2.16774193548387,1.87096774193548,1.46774193548387,1.23548387096774,1.01290322580645,0.97741935483871,0.916129032258065,0.903225806451613,0.945161290322581,1.00322580645161,1.0258064516129,1.05483870967742,1.06129032258065,1.06774193548387,1.08064516129032,1.08064516129032,1.07741935483871,1.08387096774194,1.08387096774194,1.09677419354839,1.1,1.11935483870968,1.12258064516129,1.14516129032258,1.16451612903226,1.16129032258065,1.16129032258065,1.19354838709677,1.20645161290323,1.23548387096774,1.26451612903226,1.28387096774194,1.29677419354839,1.3,1.32258064516129,1.33548387096774,1.34193548387097,1.3258064516129,1.28709677419355,1.28709677419355,1.25806451612903,1.24193548387097,1.2258064516129,1.21612903225806,1.20322580645161,1.18387096774194,1.1741935483871,1.16451612903226,1.16129032258065,1.16451612903226,1.13548387096774,1.14516129032258,1.14193548387097,1.15161290322581,1.14838709677419,1.15161290322581,1.15161290322581,1.15161290322581,1.15483870967742,1.16774193548387,1.1741935483871,1.18709677419355,1.18387096774194,1.20645161290323,1.18387096774194,1.18387096774194,1.21290322580645,1.19677419354839,1.2,1.20967741935484,1.20322580645161,1.19354838709677,1.16129032258065,1.1741935483871,1.18064516129032,1.18064516129032,1.18709677419355,1.20322580645161,1.17741935483871,1.17096774193548,1.2,1.18387096774194,1.1741935483871,1.15806451612903,1.2,1.17096774193548,1.19354838709677,1.16774193548387,1.1258064516129,1.16129032258065,1.15806451612903,1.16451612903226,1.14516129032258,1.15806451612903,1.1258064516129,1.10322580645161,1.20967741935484,1.50967741935484,1.93225806451613,2.31290322580645,2.49032258064516,2.1741935483871,1.98387096774194,1.54838709677419,1.19677419354839,1.03548387096774,1.03870967741935,1.04193548387097,1.03870967741935,1.05806451612903,1.0741935483871,1.1,1.11935483870968,1.1,1.12903225806452,1.11935483870968,1.11935483870968,1.10322580645161,1.10967741935484,1.10967741935484,1.10967741935484,1.1,1.11935483870968,1.11612903225806,1.13870967741935,1.13870967741935,1.14516129032258,1.16129032258065,1.15806451612903,1.16774193548387,1.18387096774194,1.20322580645161,1.20322580645161,1.20645161290323,1.24516129032258,1.23870967741935,1.25806451612903,1.25806451612903,1.23548387096774,1.25483870967742,1.25806451612903,1.24838709677419,1.24516129032258,1.21935483870968,1.21290322580645,1.2,1.18387096774194,1.1741935483871,1.12258064516129,1.14838709677419,1.14838709677419,1.12258064516129,1.15483870967742,1.14838709677419,1.13870967741935,1.14516129032258,1.13548387096774,1.14193548387097,1.13548387096774,1.1741935483871,1.16774193548387,1.17741935483871,1.18387096774194,1.16774193548387,1.18064516129032,1.21290322580645,1.19032258064516,1.2258064516129,1.20967741935484,1.21612903225806,1.20967741935484,1.19354838709677,1.21290322580645,1.20645161290323,1.20322580645161,1.18709677419355,1.19677419354839,1.20322580645161,1.22903225806452,1.23225806451613,1.22258064516129,1.25161290322581,1.23225806451613,1.19677419354839,1.22258064516129,1.2258064516129,1.2,1.21612903225806,1.19677419354839,1.18387096774194,1.19354838709677,1.2,1.18064516129032,1.18387096774194,1.17096774193548,1.12258064516129,1.1741935483871,1.35161290322581,1.65806451612903,2.01612903225806,2.43548387096774,2.09354838709677,1.79677419354839,1.50645161290323,1.26129032258065,1.00967741935484,1.01290322580645,0.954838709677419,0.961290322580645,0.983870967741935,1.04516129032258,1.1,1.1,1.10645161290323,1.10322580645161,1.12258064516129,1.11612903225806,1.10322580645161,1.12258064516129,1.10967741935484,1.11935483870968,1.13870967741935,1.14838709677419,1.16129032258065,1.15483870967742,1.16129032258065,1.19354838709677,1.20322580645161,1.20967741935484,1.23225806451613,1.23870967741935,1.25806451612903,1.28064516129032,1.3,1.3258064516129,1.31612903225806,1.34193548387097,1.33548387096774,1.32258064516129,1.30645161290323,1.29677419354839,1.29354838709677,1.25806451612903,1.21612903225806,1.22903225806452,1.19354838709677,1.1741935483871,1.16451612903226,1.15161290322581,1.13548387096774,1.10967741935484,1.11290322580645,1.10322580645161,1.10967741935484,1.13225806451613,1.10645161290323,1.11290322580645,1.12258064516129,1.12258064516129,1.12903225806452,1.1258064516129,1.15483870967742,1.16129032258065,1.13225806451613,1.14516129032258,1.14838709677419,1.13870967741935,1.16451612903226,1.15161290322581,1.14838709677419,1.15806451612903,1.16451612903226,1.15483870967742,1.15161290322581,1.16129032258065,1.14838709677419,1.14838709677419,1.15161290322581,1.18709677419355,1.16129032258065,1.16129032258065,1.1741935483871,1.20967741935484,1.17741935483871,1.16774193548387,1.22258064516129,1.23225806451613,1.17741935483871,1.19032258064516,1.18064516129032,1.18387096774194,1.16129032258065,1.16451612903226,1.16774193548387,1.16774193548387,1.12903225806452,1.12903225806452,1.24516129032258,1.53548387096774,1.91612903225806,2.29354838709677,2.35483870967742,2.04193548387097,1.81612903225806,1.46129032258065,1.17741935483871,1.04516129032258,0.983870967741935,0.996774193548387,1.05161290322581,1.04193548387097,1.06451612903226,1.06774193548387,1.09032258064516,1.07741935483871,1.07741935483871,1.09354838709677,1.10967741935484,1.09677419354839,1.10322580645161,1.10967741935484,1.10322580645161,1.10645161290323,1.12258064516129,1.12258064516129,1.14838709677419,1.15483870967742,1.16774193548387,1.16129032258065,1.16451612903226,1.1741935483871,1.18387096774194,1.19354838709677,1.21290322580645,1.22258064516129,1.24193548387097,1.25806451612903,1.2741935483871,1.27741935483871,1.27741935483871,1.27096774193548,1.26451612903226,1.26129032258065,1.25161290322581,1.24516129032258,1.23225806451613,1.23225806451613,1.2258064516129,1.22258064516129,1.2,1.20645161290323,1.20967741935484,1.1741935483871,1.2,1.16451612903226,1.16774193548387,1.19354838709677,1.19032258064516,1.19354838709677,1.19032258064516,1.22258064516129,1.21290322580645,1.19354838709677,1.19354838709677,1.20322580645161,1.21935483870968,1.21290322580645,1.2,1.21290322580645,1.21612903225806,1.21612903225806,1.21612903225806,1.2258064516129,1.22903225806452,1.22903225806452,1.24838709677419,1.24193548387097,1.22258064516129,1.23548387096774,1.24838709677419,1.23548387096774,1.22903225806452,1.23225806451613,1.23548387096774,1.20322580645161,1.23870967741935,1.24516129032258,1.20645161290323,1.18709677419355,1.17096774193548,1.18064516129032,1.17096774193548,1.1741935483871,1.16774193548387,1.17741935483871,1.17096774193548,1.13225806451613,1.13225806451613,1.3,1.62903225806452,2.04193548387097,2.48064516129032,2.28387096774194,1.97741935483871,1.68387096774194,1.36451612903226,1.06774193548387,1.02903225806452,0.967741935483871,0.945161290322581,0.967741935483871,1.01935483870968,1.05483870967742,1.07741935483871,1.08387096774194,1.09677419354839,1.08709677419355,1.10645161290323,1.08709677419355,1.10645161290323,1.11935483870968,1.12258064516129,1.13225806451613,1.14193548387097,1.16129032258065,1.17096774193548,1.18064516129032,1.2,1.18387096774194,1.19032258064516,1.20967741935484,1.19032258064516,1.20967741935484,1.20645161290323,1.23548387096774,1.23225806451613,1.25161290322581,1.24193548387097,1.26774193548387,1.27096774193548,1.25483870967742,1.23548387096774,1.2258064516129,1.19354838709677,1.18387096774194,1.17741935483871,1.16774193548387,1.14838709677419,1.13225806451613,1.1258064516129,1.11290322580645,1.10967741935484,1.11290322580645,1.11290322580645,1.10967741935484,1.10322580645161,1.10967741935484,1.1,1.11935483870968,1.12258064516129,1.12903225806452,1.11612903225806,1.13870967741935,1.15483870967742,1.12258064516129,1.1258064516129,1.15161290322581,1.16129032258065,1.15161290322581,1.14516129032258,1.15483870967742,1.14516129032258,1.16774193548387,1.16451612903226,1.17096774193548,1.15806451612903,1.17741935483871,1.1741935483871,1.18064516129032,1.21290322580645,1.21935483870968,1.21290322580645,1.18709677419355,1.2,1.15806451612903,1.14516129032258,1.19677419354839,1.20967741935484,1.14838709677419,1.15161290322581,1.14193548387097,1.1741935483871,1.1741935483871,1.18387096774194,1.1741935483871,1.17741935483871,1.1741935483871,1.13870967741935,1.15483870967742,1.35806451612903,1.70322580645161,2.13548387096774,2.6,2.29032258064516,1.97741935483871,1.64516129032258,1.36774193548387,1.07741935483871,1.0258064516129,0.954838709677419,0.945161290322581,0.951612903225806,1.00967741935484,1.04838709677419,1.04516129032258,1.0741935483871,1.07741935483871,1.07741935483871,1.09354838709677,1.08709677419355,1.09354838709677,1.08387096774194,1.08709677419355,1.09677419354839,1.09354838709677,1.12258064516129,1.1258064516129,1.14838709677419,1.14838709677419,1.16774193548387,1.18064516129032,1.19677419354839,1.19677419354839,1.19677419354839,1.21290322580645,1.25483870967742,1.27096774193548,1.30645161290323,1.29354838709677,1.27741935483871,1.30645161290323,1.28387096774194,1.28387096774194,1.26774193548387,1.24516129032258,1.24516129032258,1.25161290322581,1.23548387096774,1.22258064516129,1.21290322580645,1.19677419354839,1.2,1.19354838709677,1.18709677419355,1.19677419354839,1.17741935483871,1.2,1.18387096774194,1.1741935483871,1.19354838709677,1.19354838709677,1.21612903225806,1.22903225806452,1.21935483870968,1.23225806451613,1.21935483870968,1.2258064516129,1.22258064516129,1.23870967741935,1.21935483870968,1.21290322580645,1.24193548387097,1.23548387096774,1.24516129032258,1.2258064516129,1.21612903225806,1.21290322580645,1.23225806451613,1.21290322580645,1.21935483870968,1.23548387096774,1.23225806451613,1.22258064516129,1.2258064516129,1.21612903225806,1.19677419354839,1.18387096774194,1.22258064516129,1.21290322580645,1.18387096774194,1.18709677419355,1.18064516129032,1.17741935483871,1.17741935483871,1.16774193548387,1.17741935483871,1.17741935483871,1.15483870967742,1.14516129032258,1.2,1.50645161290323,1.89677419354839,2.27741935483871,2.47741935483871,2.11290322580645,1.85161290322581,1.43870967741935,1.12903225806452,1.02903225806452,1.01612903225806,0.964516129032258,0.958064516129032,1.0258064516129,1.0741935483871,1.08387096774194,1.1,1.08709677419355,1.08064516129032,1.08709677419355,1.06774193548387,1.0741935483871,1.08064516129032,1.0741935483871,1.09677419354839,1.11935483870968,1.11612903225806,1.11290322580645,1.09032258064516,1.13548387096774,1.13225806451613,1.15161290322581,1.16451612903226,1.1741935483871,1.20322580645161,1.21290322580645,1.22258064516129,1.25483870967742,1.26129032258065,1.29032258064516,1.29354838709677,1.26129032258065,1.25483870967742,1.23225806451613,1.24516129032258,1.20645161290323,1.2,1.18387096774194,1.16451612903226,1.16451612903226,1.16451612903226,1.12903225806452,1.16129032258065,1.13225806451613,1.11935483870968,1.13225806451613,1.15806451612903,1.15483870967742,1.15806451612903,1.14838709677419,1.14516129032258,1.13870967741935,1.16451612903226,1.14838709677419,1.14193548387097,1.15806451612903,1.14838709677419,1.15161290322581,1.15161290322581,1.14193548387097,1.14193548387097,1.15161290322581,1.13225806451613,1.15483870967742,1.15806451612903,1.1741935483871,1.15161290322581,1.14838709677419,1.16129032258065,1.16774193548387,1.16774193548387,1.17096774193548,1.17741935483871,1.18064516129032,1.15806451612903,1.2,1.19677419354839,1.17096774193548,1.18387096774194,1.20322580645161,1.19032258064516,1.18064516129032,1.15161290322581,1.16451612903226,1.14838709677419,1.18387096774194,1.16129032258065,1.16451612903226,1.13225806451613,1.14838709677419,1.29032258064516,1.61612903225806,1.99354838709677,2.41935483870968,2.28387096774194,1.97096774193548,1.65483870967742,1.37741935483871,1.10645161290323,1.02903225806452,0.993548387096774,0.97741935483871,0.993548387096774,1.04193548387097,1.1,1.08064516129032,1.10645161290323,1.10967741935484,1.13870967741935,1.1258064516129,1.1258064516129,1.10967741935484,1.09677419354839,1.13548387096774,1.13548387096774,1.13225806451613,1.12258064516129,1.15483870967742,1.15806451612903,1.16774193548387,1.20645161290323,1.2,1.22258064516129,1.23225806451613,1.27096774193548,1.2741935483871,1.26451612903226,1.31935483870968,1.3258064516129,1.33870967741935,1.33870967741935,1.32903225806452,1.34516129032258,1.3,1.29677419354839,1.26451612903226,1.26774193548387,1.25483870967742,1.23548387096774,1.22903225806452,1.21612903225806,1.20322580645161,1.19677419354839,1.18709677419355,1.18064516129032,1.17741935483871,1.16774193548387,1.14838709677419,1.16129032258065,1.14516129032258,1.16451612903226,1.16129032258065,1.1741935483871,1.16129032258065,1.15483870967742,1.17096774193548,1.16774193548387,1.16451612903226,1.18387096774194,1.17741935483871,1.1741935483871,1.19032258064516,1.16451612903226,1.1741935483871,1.15483870967742,1.17096774193548,1.18387096774194,1.13870967741935,1.15806451612903,1.18064516129032,1.17741935483871,1.19354838709677,1.18709677419355,1.16129032258065,1.17096774193548,1.18387096774194,1.1741935483871,1.14516129032258,1.1741935483871,1.18387096774194,1.14193548387097,1.14516129032258,1.1741935483871,1.16451612903226,1.1741935483871,1.18387096774194,1.19677419354839,1.15161290322581,1.15806451612903,1.27741935483871,1.59032258064516,1.94838709677419,2.35161290322581,2.36451612903226,2.0258064516129,1.74516129032258,1.36451612903226,1.10645161290323,1.02903225806452,0.993548387096774,0.945161290322581,0.948387096774194,0.983870967741935,1.03870967741935,1.04193548387097,1.07096774193548,1.08064516129032,1.08709677419355,1.1,1.09032258064516,1.10645161290323,1.12258064516129,1.10645161290323,1.1258064516129,1.1258064516129,1.15161290322581,1.14516129032258,1.15483870967742,1.17741935483871,1.19032258064516,1.19354838709677,1.21612903225806,1.21290322580645,1.23870967741935,1.23548387096774,1.2741935483871,1.29032258064516,1.29677419354839,1.29354838709677,1.29354838709677,1.3,1.30322580645161,1.27096774193548,1.24838709677419,1.25161290322581,1.24516129032258,1.20645161290323,1.19032258064516,1.20967741935484,1.20645161290323,1.17096774193548,1.17096774193548,1.16451612903226,1.17741935483871,1.15483870967742,1.1741935483871,1.14838709677419,1.16774193548387,1.14193548387097,1.13870967741935,1.12903225806452,1.14838709677419,1.14516129032258,1.14516129032258,1.15806451612903,1.16774193548387,1.16129032258065,1.17741935483871,1.16774193548387,1.19032258064516,1.19354838709677,1.20967741935484,1.19032258064516,1.18064516129032,1.18064516129032,1.18709677419355,1.19032258064516,1.18387096774194,1.20322580645161,1.2,1.20967741935484,1.21612903225806,1.2,1.20322580645161,1.20322580645161,1.18387096774194,1.1741935483871,1.21935483870968,1.17741935483871,1.16774193548387,1.17096774193548,1.16451612903226,1.18709677419355,1.18709677419355,1.18064516129032,1.18387096774194,1.17096774193548,1.13548387096774,1.25806451612903,1.5741935483871,1.99354838709677,2.3741935483871,2.5258064516129,2.13225806451613,1.84516129032258,1.46774193548387,1.17741935483871,1.05483870967742,1.00322580645161,0.967741935483871,0.961290322580645,0.970967741935484,1.01935483870968,1.01935483870968,1.03548387096774,1.03225806451613,1.02903225806452,1.05483870967742,1.07096774193548,1.06774193548387,1.05806451612903,1.07096774193548,1.07096774193548,1.07741935483871,1.09677419354839,1.09354838709677,1.10645161290323,1.11290322580645,1.12903225806452,1.13870967741935,1.15483870967742,1.16451612903226,1.18709677419355,1.19354838709677,1.21612903225806,1.24516129032258,1.25161290322581,1.28709677419355,1.28064516129032,1.29354838709677,1.29032258064516,1.27096774193548,1.26129032258065,1.23870967741935,1.23225806451613,1.2,1.18387096774194,1.16451612903226,1.16774193548387,1.13870967741935,1.13548387096774,1.13870967741935,1.10322580645161,1.11612903225806,1.10322580645161,1.1,1.09032258064516,1.11290322580645,1.09677419354839,1.11935483870968,1.11935483870968,1.13548387096774,1.13225806451613,1.12903225806452,1.13870967741935,1.1258064516129,1.13548387096774,1.15161290322581,1.15161290322581,1.15161290322581,1.16774193548387,1.17096774193548,1.16129032258065,1.18064516129032,1.1741935483871,1.1741935483871,1.1741935483871,1.18064516129032,1.18709677419355,1.19677419354839,1.18709677419355,1.17096774193548,1.22258064516129,1.20322580645161,1.18387096774194,1.21290322580645,1.24838709677419,1.20645161290323,1.19032258064516,1.18709677419355,1.1741935483871,1.1741935483871,1.19354838709677,1.18709677419355,1.2,1.19677419354839,1.21935483870968,1.39677419354839,1.75806451612903,2.30967741935484,2.88064516129032,3.18709677419355,2.6,2.16129032258065,1.64838709677419,1.29354838709677,1.16774193548387,1.10645161290323,1.05161290322581,1.0258064516129,1.00322580645161,0.983870967741935,1.00322580645161,1.00322580645161,1.01612903225806,1.0258064516129,1.01612903225806,1.01290322580645,1.01290322580645,0.97741935483871,0.987096774193548,0.967741935483871,0.97741935483871,0.974193548387097,0.964516129032258,0.961290322580645,0.941935483870968,0.954838709677419,0.951612903225806,0.945161290322581,0.970967741935484,0.993548387096774,1.01612903225806,1.04516129032258,1.09677419354839,1.13870967741935,1.17741935483871,1.21290322580645,1.25806451612903,1.27096774193548,1.26129032258065,1.2741935483871,1.25161290322581,1.27741935483871,1.24838709677419,1.25483870967742,1.24516129032258,1.25483870967742,1.25483870967742,1.23870967741935,1.23548387096774,1.23548387096774,1.2258064516129,1.21612903225806,1.21935483870968,1.22258064516129,1.21935483870968,1.23225806451613,1.24193548387097,1.24193548387097,1.24838709677419,1.24838709677419,1.24516129032258,1.24838709677419,1.24516129032258,1.25806451612903,1.24516129032258,1.24838709677419,1.23870967741935,1.22258064516129,1.22903225806452,1.24193548387097,1.23870967741935,1.24516129032258,1.23870967741935,1.24193548387097,1.23548387096774,1.26451612903226,1.24838709677419,1.25161290322581,1.2258064516129
1.18709677419355,1.2,1.2,1.20645161290323,1.2258064516129,1.20967741935484,1.20645161290323,1.21935483870968,1.24516129032258,1.21290322580645,1.21290322580645,1.24838709677419,1.24193548387097,1.21612903225806,1.20967741935484,1.19032258064516,1.20967741935484,1.20967741935484,1.21612903225806,1.19032258064516,1.21290322580645,1.20967741935484,1.27096774193548,1.47096774193548,1.75806451612903,2.11290322580645,2.43548387096774,2.0258064516129,1.71935483870968,1.36451612903226,1.21290322580645,1.06129032258065,1.06451612903226,1.05161290322581,1.06129032258065,1.05483870967742,1.10322580645161,1.14193548387097,1.14838709677419,1.13548387096774,1.15806451612903,1.14193548387097,1.13870967741935,1.12258064516129,1.12903225806452,1.11935483870968,1.13548387096774,1.15161290322581,1.16129032258065,1.16129032258065,1.17741935483871,1.21290322580645,1.21935483870968,1.21935483870968,1.23548387096774,1.24838709677419,1.25483870967742,1.28064516129032,1.31290322580645,1.31612903225806,1.33548387096774,1.37096774193548,1.36451612903226,1.35483870967742,1.34193548387097,1.33548387096774,1.3,1.28709677419355,1.25161290322581,1.24193548387097,1.22258064516129,1.21612903225806,1.20967741935484,1.20322580645161,1.17096774193548,1.1741935483871,1.17096774193548,1.15806451612903,1.13225806451613,1.14193548387097,1.13225806451613,1.16129032258065,1.16774193548387,1.16774193548387,1.17741935483871,1.18064516129032,1.1741935483871,1.1741935483871,1.17741935483871,1.2,1.19354838709677,1.19677419354839,1.16451612903226,1.20322580645161,1.17096774193548,1.1741935483871,1.18064516129032,1.15161290322581,1.15483870967742,1.1741935483871,1.16774193548387,1.15161290322581,1.16774193548387,1.16451612903226,1.14193548387097,1.11290322580645,1.15806451612903,1.13548387096774,1.10967741935484,1.15161290322581,1.15161290322581,1.10967741935484,1.11290322580645,1.1,1.11612903225806,1.13225806451613,1.12258064516129,1.1258064516129,1.1258064516129,1.1258064516129,1.10645161290323,1.13225806451613,1.33225806451613,1.67096774193548,2.01935483870968,2.43870967741935,2.05806451612903,1.74193548387097,1.43548387096774,1.1741935483871,1,0.987096774193548,0.935483870967742,0.951612903225806,0.967741935483871,1.02258064516129,1.08709677419355,1.10967741935484,1.1,1.10967741935484,1.10967741935484,1.1258064516129,1.11290322580645,1.09032258064516,1.09677419354839,1.11290322580645,1.10322580645161,1.10322580645161,1.1258064516129,1.13870967741935,1.14838709677419,1.14516129032258,1.15483870967742,1.1741935483871,1.18064516129032,1.2,1.20645161290323,1.22903225806452,1.25161290322581,1.25806451612903,1.28064516129032,1.29032258064516,1.27741935483871,1.27096774193548,1.25806451612903,1.24516129032258,1.21612903225806,1.21935483870968,1.19032258064516,1.18709677419355,1.19677419354839,1.18064516129032,1.14838709677419,1.13870967741935,1.15161290322581,1.13225806451613,1.14516129032258,1.14516129032258,1.15483870967742,1.12903225806452,1.18387096774194,1.1741935483871,1.19354838709677,1.19032258064516,1.18709677419355,1.19032258064516,1.17741935483871,1.18387096774194,1.17741935483871,1.19032258064516,1.19032258064516,1.16451612903226,1.18064516129032,1.18387096774194,1.18709677419355,1.1741935483871,1.1741935483871,1.18387096774194,1.18709677419355,1.18709677419355,1.20645161290323,1.23225806451613,1.2258064516129,1.21612903225806,1.18709677419355,1.21935483870968,1.19354838709677,1.21612903225806,1.23870967741935,1.25161290322581,1.21935483870968,1.20967741935484,1.21935483870968,1.2258064516129,1.22903225806452,1.23225806451613,1.2258064516129,1.24193548387097,1.23870967741935,1.22258064516129,1.30967741935484,1.52903225806452,1.94193548387097,2.50322580645161,3.01290322580645,2.78387096774194,2.34516129032258,1.93548387096774,1.53548387096774,1.16774193548387,1.18064516129032,1.12258064516129,1.04838709677419,1.0258064516129,1.01290322580645,1.00322580645161,1.04516129032258,1.04838709677419,1.05483870967742,1.03548387096774,1.04516129032258,1.03548387096774,1.0258064516129,1.01935483870968,1.00645161290323,1.03225806451613,1.00967741935484,1.0258064516129,1.02903225806452,1.00645161290323,1.00322580645161,0.990322580645161,0.987096774193548,0.993548387096774,0.980645161290323,1.00322580645161,1.02903225806452,1.08064516129032,1.10967741935484,1.14193548387097,1.18064516129032,1.20645161290323,1.20967741935484,1.23548387096774,1.20967741935484,1.21935483870968,1.20645161290323,1.2258064516129,1.20645161290323,1.19032258064516,1.20645161290323,1.1741935483871,1.19032258064516,1.19032258064516,1.17741935483871,1.17741935483871,1.17741935483871,1.16451612903226,1.17741935483871,1.16774193548387,1.16451612903226,1.17096774193548,1.15806451612903,1.16774193548387,1.16451612903226,1.17096774193548,1.16451612903226,1.18064516129032,1.17096774193548,1.1741935483871,1.18064516129032,1.18387096774194,1.20322580645161,1.18709677419355,1.2,1.19032258064516,1.18064516129032,1.19354838709677,1.16451612903226,1.18064516129032,1.19032258064516,1.20322580645161,1.21290322580645,1.20645161290323,1.18709677419355,1.20322580645161,1.17741935483871,1.16451612903226,1.2,1.19677419354839,1.17741935483871,1.14838709677419,1.13870967741935,1.14516129032258,1.14516129032258,1.14516129032258,1.14193548387097,1.13870967741935,1.15483870967742,1.10322580645161,1.17741935483871,1.41290322580645,1.79677419354839,2.19677419354839,2.56129032258065,2.09677419354839,1.79677419354839,1.41935483870968,1.21612903225806,1.01290322580645,0.970967741935484,0.92258064516129,0.919354838709677,0.941935483870968,0.993548387096774,1.03225806451613,1.02258064516129,1.06451612903226,1.07741935483871,1.0741935483871,1.08387096774194,1.08387096774194,1.08709677419355,1.10645161290323,1.09354838709677,1.12258064516129,1.1258064516129,1.15806451612903,1.15483870967742,1.16129032258065,1.18387096774194,1.18064516129032,1.20645161290323,1.21935483870968,1.2258064516129,1.25806451612903,1.27741935483871,1.30645161290323,1.31290322580645,1.32903225806452,1.33870967741935,1.32903225806452,1.31612903225806,1.30645161290323,1.29354838709677,1.2741935483871,1.26129032258065,1.24838709677419,1.24193548387097,1.23870967741935,1.20645161290323,1.20322580645161,1.19354838709677,1.15806451612903,1.17096774193548,1.17096774193548,1.15161290322581,1.16451612903226,1.15806451612903,1.14838709677419,1.14838709677419,1.16129032258065,1.15806451612903,1.15806451612903,1.16451612903226,1.16774193548387,1.18064516129032,1.18387096774194,1.18709677419355,1.20645161290323,1.22258064516129,1.20322580645161,1.2,1.19354838709677,1.21612903225806,1.21290322580645,1.20967741935484,1.22903225806452,1.22903225806452,1.20967741935484,1.22258064516129,1.2258064516129,1.24193548387097,1.2258064516129,1.2258064516129,1.23870967741935,1.20645161290323,1.18709677419355,1.21612903225806,1.22258064516129,1.20967741935484,1.19032258064516,1.18709677419355,1.20645161290323,1.20967741935484,1.21935483870968,1.19032258064516,1.19032258064516,1.17741935483871,1.13225806451613,1.23225806451613,1.50645161290323,1.89354838709677,2.24193548387097,2.51290322580645,2.13548387096774,1.86451612903226,1.49677419354839,1.21935483870968,1.04193548387097,0.974193548387097,0.987096774193548,1.02258064516129,1.05483870967742,1.06774193548387,1.0741935483871,1.09032258064516,1.07741935483871,1.08387096774194,1.07741935483871,1.08387096774194,1.05806451612903,1.08709677419355,1.08709677419355,1.09677419354839,1.11290322580645,1.10967741935484,1.1258064516129,1.14193548387097,1.15806451612903,1.16451612903226,1.15161290322581,1.17741935483871,1.17096774193548,1.18709677419355,1.20967741935484,1.2258064516129,1.24516129032258,1.26451612903226,1.24838709677419,1.28709677419355,1.27741935483871,1.3,1.27096774193548,1.23548387096774,1.22903225806452,1.2258064516129,1.20322580645161,1.17741935483871,1.2,1.20322580645161,1.17741935483871,1.18387096774194,1.14838709677419,1.14838709677419,1.12903225806452,1.13870967741935,1.15483870967742,1.15806451612903,1.13870967741935,1.16451612903226,1.15483870967742,1.16129032258065,1.14193548387097,1.14838709677419,1.14193548387097,1.16774193548387,1.17096774193548,1.14838709677419,1.15806451612903,1.13870967741935,1.16451612903226,1.17096774193548,1.15806451612903,1.18387096774194,1.1741935483871,1.16451612903226,1.16451612903226,1.15806451612903,1.16129032258065,1.15806451612903,1.18064516129032,1.19032258064516,1.2,1.19677419354839,1.20322580645161,1.19677419354839,1.1741935483871,1.1741935483871,1.1741935483871,1.1741935483871,1.17096774193548,1.15161290322581,1.16451612903226,1.18064516129032,1.1741935483871,1.1741935483871,1.16451612903226,1.16774193548387,1.13548387096774,1.19354838709677,1.41290322580645,1.73870967741935,2.05483870967742,2.45161290322581,2.08709677419355,1.75483870967742,1.40645161290323,1.2258064516129,1.01290322580645,0.990322580645161,0.948387096774194,0.958064516129032,0.987096774193548,1.04193548387097,1.07096774193548,1.07741935483871,1.09354838709677,1.10322580645161,1.1,1.09032258064516,1.11935483870968,1.12258064516129,1.12258064516129,1.14838709677419,1.15161290322581,1.15161290322581,1.15806451612903,1.15806451612903,1.1741935483871,1.20645161290323,1.20967741935484,1.23548387096774,1.23548387096774,1.25483870967742,1.2741935483871,1.28387096774194,1.31290322580645,1.33548387096774,1.35161290322581,1.35483870967742,1.33548387096774,1.33548387096774,1.33225806451613,1.32903225806452,1.30322580645161,1.28064516129032,1.26774193548387,1.25161290322581,1.24193548387097,1.23548387096774,1.21612903225806,1.21290322580645,1.18709677419355,1.16774193548387,1.17741935483871,1.15806451612903,1.15161290322581,1.15161290322581,1.15483870967742,1.15161290322581,1.16451612903226,1.14193548387097,1.13870967741935,1.15161290322581,1.15161290322581,1.15483870967742,1.16451612903226,1.17096774193548,1.17096774193548,1.17096774193548,1.17741935483871,1.19032258064516,1.17741935483871,1.19032258064516,1.18064516129032,1.18064516129032,1.19032258064516,1.19354838709677,1.18709677419355,1.1741935483871,1.18387096774194,1.20645161290323,1.19354838709677,1.19354838709677,1.1741935483871,1.20322580645161,1.17096774193548,1.14838709677419,1.18064516129032,1.20645161290323,1.16129032258065,1.14516129032258,1.13870967741935,1.16774193548387,1.14838709677419,1.12903225806452,1.12258064516129,1.11935483870968,1.09677419354839,1.09677419354839,1.27096774193548,1.57741935483871,1.96774193548387,2.37741935483871,2.19677419354839,1.90322580645161,1.61935483870968,1.31290322580645,1.04516129032258,1.00967741935484,0.961290322580645,0.961290322580645,0.951612903225806,1.01612903225806,1.07096774193548,1.09677419354839,1.10967741935484,1.12903225806452,1.13225806451613,1.14193548387097,1.13225806451613,1.13870967741935,1.14516129032258,1.14516129032258,1.15483870967742,1.1741935483871,1.16129032258065,1.18064516129032,1.20322580645161,1.19032258064516,1.19032258064516,1.19032258064516,1.2,1.22258064516129,1.2258064516129,1.25483870967742,1.25806451612903,1.29354838709677,1.30322580645161,1.31612903225806,1.31935483870968,1.31290322580645,1.3,1.30967741935484,1.28064516129032,1.25806451612903,1.24516129032258,1.22903225806452,1.2258064516129,1.19354838709677,1.19677419354839,1.19677419354839,1.16774193548387,1.19032258064516,1.16774193548387,1.16451612903226,1.15483870967742,1.15806451612903,1.13548387096774,1.14838709677419,1.15806451612903,1.16774193548387,1.1741935483871,1.18064516129032,1.16451612903226,1.18064516129032,1.19032258064516,1.15483870967742,1.18709677419355,1.15806451612903,1.1741935483871,1.18387096774194,1.18064516129032,1.16451612903226,1.15483870967742,1.15806451612903,1.16774193548387,1.16129032258065,1.16774193548387,1.16451612903226,1.17741935483871,1.17741935483871,1.21290322580645,1.20322580645161,1.18064516129032,1.20645161290323,1.19032258064516,1.16129032258065,1.2,1.20967741935484,1.19032258064516,1.17741935483871,1.16774193548387,1.16129032258065,1.18064516129032,1.1741935483871,1.16129032258065,1.16129032258065,1.15806451612903,1.11935483870968,1.19354838709677,1.40645161290323,1.76774193548387,2.19032258064516,2.5741935483871,2.11935483870968,1.85161290322581,1.46774193548387,1.26774193548387,1.03548387096774,0.990322580645161,0.941935483870968,0.941935483870968,0.945161290322581,1.00322580645161,1.03225806451613,1.06129032258065,1.06129032258065,1.08064516129032,1.08064516129032,1.07741935483871,1.09032258064516,1.09677419354839,1.09677419354839,1.09677419354839,1.1258064516129,1.13225806451613,1.15806451612903,1.14838709677419,1.15806451612903,1.17096774193548,1.19677419354839,1.21612903225806,1.2258064516129,1.23548387096774,1.27096774193548,1.28709677419355,1.30322580645161,1.30645161290323,1.31612903225806,1.33870967741935,1.3258064516129,1.31612903225806,1.30322580645161,1.29032258064516,1.26129032258065,1.2258064516129,1.21612903225806,1.20645161290323,1.18387096774194,1.16774193548387,1.15161290322581,1.15483870967742,1.15161290322581,1.14838709677419,1.13548387096774,1.13225806451613,1.13870967741935,1.15483870967742,1.14516129032258,1.16774193548387,1.17741935483871,1.16451612903226,1.1741935483871,1.17741935483871,1.18387096774194,1.19677419354839,1.2,1.20967741935484,1.19677419354839,1.21935483870968,1.19032258064516,1.19677419354839,1.20645161290323,1.18709677419355,1.2,1.19032258064516,1.18064516129032,1.19032258064516,1.19032258064516,1.19677419354839,1.20322580645161,1.21290322580645,1.21935483870968,1.20967741935484,1.19677419354839,1.21612903225806,1.18064516129032,1.18064516129032,1.22258064516129,1.22903225806452,1.17096774193548,1.13870967741935,1.15483870967742,1.15161290322581,1.16451612903226,1.16451612903226,1.15806451612903,1.15161290322581,1.1258064516129,1.11290322580645,1.21612903225806,1.49354838709677,1.89354838709677,2.29677419354839,2.53548387096774,2.10322580645161,1.80645161290323,1.41612903225806,1.15483870967742,1.03225806451613,0.987096774193548,0.945161290322581,0.961290322580645,0.964516129032258,1.02903225806452,1.04193548387097,1.03548387096774,1.06129032258065,1.05806451612903,1.07096774193548,1.07096774193548,1.05483870967742,1.0741935483871,1.0741935483871,1.08709677419355,1.10967741935484,1.11935483870968,1.10645161290323,1.12258064516129,1.13225806451613,1.13548387096774,1.14193548387097,1.15161290322581,1.17096774193548,1.18709677419355,1.19677419354839,1.19677419354839,1.20967741935484,1.23548387096774,1.24193548387097,1.25483870967742,1.24838709677419,1.25806451612903,1.22903225806452,1.21612903225806,1.21290322580645,1.21290322580645,1.18387096774194,1.17741935483871,1.18064516129032,1.16451612903226,1.16129032258065,1.15161290322581,1.13548387096774,1.14193548387097,1.14193548387097,1.12258064516129,1.14838709677419,1.15161290322581,1.16129032258065,1.18064516129032,1.17096774193548,1.2,1.19354838709677,1.20322580645161,1.19677419354839,1.20322580645161,1.21290322580645,1.20967741935484,1.2258064516129,1.22258064516129,1.22258064516129,1.20322580645161,1.21935483870968,1.19032258064516,1.20322580645161,1.2,1.20967741935484,1.23548387096774,1.22258064516129,1.20645161290323,1.20967741935484,1.23870967741935,1.21935483870968,1.21290322580645,1.24516129032258,1.22903225806452,1.20645161290323,1.22258064516129,1.25806451612903,1.23548387096774,1.21935483870968,1.2,1.18387096774194,1.19032258064516,1.21290322580645,1.20967741935484,1.23548387096774,1.32258064516129,1.34838709677419,1.42903225806452,1.77741935483871,2.30967741935484,2.85806451612903,3.1258064516129,2.58709677419355,2.06774193548387,1.76129032258065,1.20967741935484,1.14838709677419,1.12258064516129,1.08064516129032,1.02903225806452,1.01290322580645,1,1.01290322580645,1.0258064516129,1.03870967741935,1.01612903225806,1.01290322580645,1,0.987096774193548,0.97741935483871,0.961290322580645,0.958064516129032,0.916129032258065,0.945161290322581,0.941935483870968,0.92258064516129,0.945161290322581,0.919354838709677,0.919354838709677,0.912903225806452,0.938709677419355,0.948387096774194,0.961290322580645,0.993548387096774,1.06774193548387,1.07096774193548,1.1258064516129,1.13225806451613,1.18709677419355,1.19032258064516,1.2,1.20967741935484,1.18387096774194,1.2,1.18709677419355,1.19032258064516,1.17096774193548,1.18064516129032,1.16451612903226,1.16451612903226,1.15806451612903,1.16451612903226,1.16129032258065,1.15806451612903,1.14193548387097,1.13548387096774,1.13548387096774,1.14838709677419,1.13870967741935,1.14838709677419,1.14838709677419,1.15806451612903,1.19354838709677,1.1741935483871,1.18064516129032,1.16451612903226,1.17096774193548,1.15483870967742,1.17096774193548,1.17096774193548,1.19032258064516,1.20645161290323,1.20322580645161,1.2,1.19354838709677,1.18709677419355,1.2258064516129,1.19677419354839,1.2,1.20967741935484,1.2258064516129,1.21935483870968,1.18709677419355,1.21612903225806,1.21290322580645,1.1741935483871,1.17741935483871,1.22258064516129,1.21290322580645,1.18387096774194,1.18064516129032,1.19354838709677,1.18709677419355,1.2,1.20322580645161,1.18387096774194,1.20322580645161,1.14838709677419,1.19354838709677,1.40645161290323,1.74516129032258,2.11612903225806,2.49677419354839,2.12258064516129,1.82903225806452,1.44193548387097,1.25483870967742,1.03548387096774,1.03870967741935,0.980645161290323,1,1.01290322580645,1.05483870967742,1.12258064516129,1.11290322580645,1.13225806451613,1.11935483870968,1.11935483870968,1.11290322580645,1.11290322580645,1.13225806451613,1.13548387096774,1.14516129032258,1.15161290322581,1.17096774193548,1.16451612903226,1.17741935483871,1.1741935483871,1.18064516129032,1.2,1.21290322580645,1.21612903225806,1.22903225806452,1.26774193548387,1.29354838709677,1.31290322580645,1.33548387096774,1.34516129032258,1.35806451612903,1.35483870967742,1.34516129032258,1.32258064516129,1.30967741935484,1.3,1.28709677419355,1.26774193548387,1.25483870967742,1.23225806451613,1.24193548387097,1.20322580645161,1.2,1.21290322580645,1.18064516129032,1.17741935483871,1.17096774193548,1.16129032258065,1.16451612903226,1.15161290322581,1.17096774193548,1.16451612903226,1.1741935483871,1.18064516129032,1.2,1.18387096774194,1.19354838709677,1.19677419354839,1.19354838709677,1.18709677419355,1.20322580645161,1.20645161290323,1.20645161290323,1.2,1.20967741935484,1.20322580645161,1.20322580645161,1.17741935483871,1.19677419354839,1.2,1.19354838709677,1.19677419354839,1.20967741935484,1.20967741935484,1.18064516129032,1.1741935483871,1.21290322580645,1.19032258064516,1.17096774193548,1.20322580645161,1.22903225806452,1.18064516129032,1.1741935483871,1.18387096774194,1.17741935483871,1.18709677419355,1.17741935483871,1.19032258064516,1.17741935483871,1.15161290322581,1.11612903225806,1.2,1.47096774193548,1.84516129032258,2.23548387096774,2.48709677419355,2.02903225806452,1.73870967741935,1.38709677419355,1.17096774193548,1.00322580645161,0.990322580645161,0.935483870967742,0.938709677419355,0.964516129032258,1.0258064516129,1.04516129032258,1.07096774193548,1.06774193548387,1.07741935483871,1.08064516129032,1.08064516129032,1.0741935483871,1.07741935483871,1.08387096774194,1.08387096774194,1.11290322580645,1.11935483870968,1.12903225806452,1.14516129032258,1.15806451612903,1.16774193548387,1.16774193548387,1.18709677419355,1.1741935483871,1.20322580645161,1.21935483870968,1.23870967741935,1.24193548387097,1.25806451612903,1.28387096774194,1.28064516129032,1.28709677419355,1.28387096774194,1.24516129032258,1.25483870967742,1.21290322580645,1.20322580645161,1.2,1.18064516129032,1.16774193548387,1.16774193548387,1.16451612903226,1.16774193548387,1.14193548387097,1.13548387096774,1.11935483870968,1.11935483870968,1.13870967741935,1.11612903225806,1.13548387096774,1.12903225806452,1.14838709677419,1.13870967741935,1.14516129032258,1.14516129032258,1.15806451612903,1.15806451612903,1.1741935483871,1.19032258064516,1.18387096774194,1.16774193548387,1.17096774193548,1.18064516129032,1.1741935483871,1.17096774193548,1.18387096774194,1.16451612903226,1.17741935483871,1.16451612903226,1.18387096774194,1.20322580645161,1.21612903225806,1.21612903225806,1.22903225806452,1.21290322580645,1.20645161290323,1.20645161290323,1.19032258064516,1.20322580645161,1.24516129032258,1.2258064516129,1.20967741935484,1.19677419354839,1.19354838709677,1.20322580645161,1.21612903225806,1.20322580645161,1.19677419354839,1.19032258064516,1.15806451612903,1.12903225806452,1.2258064516129,1.46774193548387,1.85483870967742,2.25806451612903,2.58387096774194,2.10645161290323,1.84193548387097,1.43870967741935,1.23548387096774,1.03870967741935,0.996774193548387,0.945161290322581,0.925806451612903,0.948387096774194,1.02258064516129,1.01935483870968,1.02903225806452,1.05806451612903,1.05483870967742,1.0741935483871,1.06451612903226,1.07096774193548,1.08387096774194,1.07741935483871,1.06774193548387
0.938709677419355,1.00322580645161,1.02258064516129,1.03548387096774,1.04516129032258,1.04838709677419,1.0741935483871,1.06451612903226,1.06774193548387,1.08064516129032,1.08064516129032,1.10967741935484,1.11612903225806,1.14193548387097,1.1258064516129,1.14193548387097,1.15806451612903,1.16451612903226,1.18064516129032,1.2,1.20645161290323,1.23225806451613,1.25161290322581,1.25161290322581,1.25483870967742,1.29677419354839,1.30967741935484,1.35161290322581,1.33225806451613,1.31935483870968,1.33548387096774,1.30645161290323,1.30967741935484,1.28387096774194,1.24193548387097,1.23870967741935,1.24516129032258,1.20322580645161,1.18709677419355,1.16451612903226,1.1741935483871,1.1741935483871,1.15483870967742,1.15161290322581,1.15161290322581,1.16774193548387,1.13870967741935,1.16129032258065,1.16451612903226,1.19354838709677,1.16774193548387,1.18387096774194,1.17096774193548,1.20645161290323,1.15483870967742,1.18387096774194,1.18064516129032,1.18387096774194,1.19354838709677,1.18709677419355,1.20645161290323,1.18387096774194,1.19677419354839,1.21290322580645,1.21612903225806,1.2,1.19677419354839,1.21290322580645,1.20645161290323,1.21935483870968,1.22903225806452,1.21612903225806,1.2,1.21290322580645,1.20967741935484,1.20322580645161,1.20967741935484,1.24193548387097,1.24193548387097,1.20967741935484,1.20645161290323,1.18709677419355,1.19677419354839,1.21290322580645,1.23225806451613,1.21935483870968,1.23870967741935,1.19354838709677,1.17096774193548,1.29354838709677,1.62903225806452,1.9741935483871,2.37741935483871,2.39677419354839,2.15806451612903,1.90645161290323,1.50322580645161,1.15806451612903,1.10645161290323,1.06774193548387,1.08064516129032,1.03870967741935,1.04516129032258,1.04838709677419,1.08064516129032,1.06451612903226,1.0741935483871,1.06129032258065,1.06774193548387,1.08064516129032,1.08387096774194,1.07741935483871,1.06451612903226,1.09032258064516,1.06451612903226,1.08387096774194,1.08064516129032,1.10967741935484,1.11290322580645,1.10967741935484,1.14193548387097,1.14516129032258,1.10967741935484,1.13870967741935,1.14516129032258,1.15161290322581,1.16451612903226,1.17096774193548,1.19677419354839,1.2258064516129,1.22258064516129,1.20967741935484,1.23548387096774,1.22258064516129,1.20322580645161,1.20322580645161,1.21935483870968,1.19354838709677,1.17741935483871,1.1741935483871,1.15806451612903,1.14838709677419,1.16129032258065,1.16129032258065,1.13870967741935,1.14838709677419,1.14193548387097,1.14838709677419,1.15161290322581,1.13870967741935,1.16774193548387,1.17741935483871,1.16774193548387,1.17741935483871,1.16774193548387,1.19354838709677,1.18387096774194,1.2,1.20645161290323,1.18387096774194,1.19677419354839,1.20967741935484,1.20967741935484,1.20645161290323,1.2,1.23225806451613,1.21612903225806,1.2,1.2,1.20967741935484,1.2258064516129,1.2258064516129,1.23870967741935,1.25483870967742,1.21935483870968,1.24838709677419,1.24516129032258,1.22258064516129,1.26129032258065,1.28709677419355,1.23870967741935,1.22903225806452,1.2258064516129,1.23548387096774,1.22903225806452,1.25161290322581,1.23548387096774,1.23548387096774,1.21935483870968,1.17741935483871,1.19677419354839,1.38387096774194,1.69032258064516,2.07741935483871,2.51290322580645,2.20967741935484,1.89677419354839,1.60967741935484,1.30322580645161,1.03548387096774,1.02903225806452,0.964516129032258,0.970967741935484,0.974193548387097,1.01290322580645,1.05483870967742,1.0741935483871,1.0741935483871,1.10645161290323,1.10645161290323,1.09677419354839,1.09032258064516,1.07741935483871,1.0741935483871,1.0741935483871,1.08064516129032,1.08064516129032,1.1,1.11290322580645,1.10645161290323,1.12258064516129,1.12903225806452,1.11935483870968,1.15161290322581,1.18064516129032,1.19032258064516,1.21290322580645,1.22258064516129,1.23548387096774,1.24838709677419,1.2741935483871,1.28709677419355,1.28064516129032,1.27096774193548,1.26129032258065,1.23870967741935,1.22258064516129,1.20645161290323,1.19032258064516,1.16451612903226,1.18064516129032,1.16129032258065,1.14516129032258,1.13870967741935,1.14838709677419,1.13548387096774,1.14193548387097,1.14838709677419,1.14838709677419,1.13870967741935,1.13548387096774,1.13225806451613,1.13225806451613,1.12258064516129,1.15161290322581,1.14516129032258,1.13548387096774,1.14516129032258,1.15483870967742,1.16129032258065,1.17096774193548,1.1741935483871,1.18064516129032,1.1741935483871,1.17096774193548,1.18064516129032,1.1741935483871,1.17741935483871,1.19354838709677,1.18064516129032,1.18709677419355,1.19032258064516,1.20645161290323,1.2,1.20322580645161,1.18709677419355,1.2,1.19032258064516,1.17741935483871,1.19032258064516,1.20645161290323,1.18709677419355,1.17741935483871,1.16774193548387,1.16774193548387,1.18064516129032,1.18387096774194,1.16774193548387,1.18064516129032,1.16451612903226,1.16451612903226,1.10967741935484,1.15806451612903,1.36451612903226,1.72258064516129,2.17741935483871,2.68064516129032,2.36129032258065,2.15161290322581,1.83870967741935,1.45806451612903,1.15483870967742,1.12258064516129,1.10322580645161,1.08387096774194,1.05806451612903,1.06129032258065,1.07096774193548,1.09354838709677,1.10967741935484,1.10322580645161,1.1,1.09677419354839,1.10322580645161,1.1,1.11612903225806,1.1,1.10645161290323,1.11612903225806,1.10967741935484,1.10322580645161,1.13548387096774,1.13870967741935,1.15806451612903,1.14516129032258,1.16129032258065,1.15483870967742,1.15806451612903,1.18387096774194,1.1741935483871,1.2,1.21935483870968,1.24516129032258,1.24516129032258,1.25483870967742,1.26774193548387,1.24516129032258,1.23870967741935,1.23548387096774,1.22258064516129,1.21935483870968,1.2,1.2,1.18709677419355,1.17096774193548,1.17096774193548,1.15806451612903,1.14193548387097,1.13870967741935,1.1258064516129,1.1258064516129,1.14193548387097,1.13870967741935,1.15161290322581,1.14838709677419,1.16774193548387,1.16451612903226,1.15806451612903,1.16451612903226,1.18064516129032,1.16451612903226,1.17096774193548,1.16451612903226,1.17741935483871,1.18387096774194,1.18064516129032,1.17096774193548,1.18064516129032,1.17741935483871,1.17741935483871,1.18387096774194,1.1741935483871,1.2,1.18387096774194,1.19354838709677,1.22903225806452,1.23870967741935,1.22258064516129,1.21290322580645,1.23870967741935,1.21935483870968,1.19032258064516,1.23870967741935,1.2258064516129,1.20322580645161,1.18064516129032,1.15806451612903,1.17096774193548,1.17741935483871,1.18387096774194,1.18064516129032,1.16451612903226,1.16451612903226,1.12258064516129,1.15161290322581,1.31935483870968,1.66451612903226,2.10967741935484,2.56451612903226,2.30645161290323,1.96774193548387,1.64838709677419,1.37741935483871,1.08064516129032,1.01612903225806,0.948387096774194,0.929032258064516,0.958064516129032,1.01290322580645,1.05806451612903,1.05483870967742,1.05806451612903,1.07096774193548,1.07741935483871,1.06451612903226,1.06129032258065,1.06129032258065,1.07096774193548,1.08709677419355,1.08387096774194,1.09677419354839,1.1,1.12258064516129,1.13870967741935,1.13870967741935,1.13870967741935,1.15806451612903,1.16774193548387,1.17741935483871,1.2,1.24516129032258,1.25483870967742,1.28064516129032,1.3,1.30967741935484,1.31290322580645,1.29677419354839,1.30645161290323,1.29032258064516,1.26774193548387,1.26129032258065,1.22903225806452,1.22903225806452,1.19354838709677,1.17096774193548,1.15806451612903,1.15483870967742,1.16129032258065,1.14193548387097,1.13548387096774,1.13548387096774,1.12903225806452,1.11935483870968,1.13548387096774,1.13870967741935,1.14516129032258,1.15161290322581,1.16129032258065,1.15483870967742,1.16451612903226,1.17096774193548,1.16774193548387,1.19354838709677,1.18064516129032,1.19677419354839,1.18709677419355,1.19354838709677,1.17741935483871,1.17741935483871,1.18387096774194,1.18709677419355,1.18709677419355,1.18709677419355,1.18387096774194,1.20645161290323,1.20967741935484,1.19677419354839,1.21935483870968,1.20967741935484,1.20645161290323,1.19677419354839,1.21935483870968,1.21612903225806,1.18387096774194,1.21612903225806,1.21612903225806,1.19354838709677,1.19032258064516,1.15483870967742,1.17741935483871,1.1741935483871,1.17741935483871,1.17741935483871,1.17096774193548,1.18709677419355,1.15483870967742,1.13548387096774,1.2741935483871,1.60322580645161,2.08387096774194,2.56451612903226,2.55161290322581,2.33870967741935,2.02903225806452,1.61935483870968,1.19677419354839,1.15483870967742,1.13548387096774,1.08064516129032,1.04193548387097,1.0741935483871,1.08064516129032,1.09354838709677,1.07741935483871,1.07096774193548,1.07096774193548,1.06129032258065,1.05806451612903,1.04838709677419,1.05483870967742,1.03870967741935,1.05161290322581,1.0741935483871,1.06774193548387,1.06774193548387,1.07741935483871,1.08387096774194,1.0741935483871,1.04838709677419,1.09354838709677,1.08387096774194,1.09354838709677,1.12903225806452,1.1258064516129,1.15483870967742,1.18064516129032,1.20322580645161,1.23548387096774,1.24193548387097,1.24838709677419,1.24838709677419,1.25161290322581,1.23548387096774,1.22903225806452,1.22258064516129,1.20645161290323,1.2,1.19354838709677,1.16451612903226,1.16774193548387,1.16129032258065,1.15161290322581,1.13870967741935,1.14193548387097,1.14193548387097,1.14193548387097,1.16129032258065,1.16451612903226,1.16129032258065,1.18709677419355,1.18064516129032,1.19354838709677,1.19677419354839,1.19354838709677,1.18387096774194,1.20967741935484,1.21290322580645,1.21290322580645,1.22258064516129,1.21935483870968,1.20322580645161,1.21290322580645,1.20645161290323,1.21290322580645,1.20322580645161,1.19677419354839,1.19354838709677,1.20322580645161,1.19354838709677,1.2,1.22258064516129,1.21612903225806,1.2,1.18387096774194,1.21935483870968,1.18709677419355,1.16451612903226,1.21612903225806,1.22258064516129,1.16451612903226,1.1741935483871,1.17741935483871,1.1741935483871,1.18064516129032,1.1741935483871,1.18387096774194,1.18387096774194,1.19032258064516,1.13548387096774,1.15483870967742,1.37096774193548,1.7,2.11290322580645,2.53225806451613,2.18064516129032,1.88064516129032,1.53548387096774,1.27741935483871,1.01290322580645,0.987096774193548,0.919354838709677,0.916129032258065,0.941935483870968,0.970967741935484,1.04838709677419,1.08064516129032,1.08387096774194,1.08709677419355,1.08387096774194,1.08387096774194,1.09032258064516,1.09354838709677,1.09354838709677,1.08709677419355,1.12258064516129,1.11290322580645,1.12258064516129,1.13225806451613,1.13548387096774,1.15806451612903,1.16774193548387,1.17741935483871,1.18064516129032,1.19032258064516,1.21612903225806,1.25161290322581,1.25161290322581,1.29354838709677,1.29032258064516,1.31290322580645,1.31290322580645,1.31612903225806,1.3,1.28709677419355,1.28064516129032,1.25483870967742,1.22903225806452,1.20645161290323,1.21290322580645,1.20322580645161,1.17741935483871,1.16451612903226,1.16774193548387,1.16774193548387,1.15806451612903,1.15483870967742,1.15161290322581,1.14838709677419,1.15483870967742,1.15161290322581,1.16129032258065,1.14516129032258,1.15483870967742,1.13548387096774,1.16451612903226,1.16129032258065,1.14838709677419,1.14838709677419,1.15483870967742,1.15483870967742,1.1741935483871,1.17741935483871,1.18387096774194,1.17741935483871,1.19032258064516,1.19677419354839,1.20967741935484,1.2,1.19354838709677,1.20322580645161,1.19032258064516,1.1741935483871,1.19677419354839,1.19677419354839,1.20967741935484,1.20322580645161,1.20645161290323,1.23548387096774,1.19032258064516,1.20645161290323,1.25161290322581,1.22903225806452,1.2,1.16451612903226,1.18387096774194,1.18387096774194,1.20322580645161,1.17741935483871,1.21935483870968,1.2,1.18709677419355,1.15806451612903,1.21612903225806,1.42258064516129,1.80967741935484,2.29032258064516,2.8258064516129,2.45806451612903,2.2741935483871,1.86774193548387,1.45483870967742,1.18387096774194,1.12258064516129,1.08064516129032,1.01612903225806,0.996774193548387,0.993548387096774,1.00967741935484,1.00967741935484,1.0258064516129,1.0258064516129,1.03548387096774,1.04516129032258,1.04516129032258,1.03548387096774,1.03225806451613,1.04193548387097,1.07741935483871,1.04838709677419,1.06451612903226,1.07741935483871,1.07741935483871,1.08387096774194,1.10967741935484,1.1,1.09677419354839,1.10322580645161,1.11290322580645,1.12258064516129,1.11935483870968,1.15483870967742,1.18387096774194,1.22903225806452,1.23870967741935,1.25161290322581,1.25806451612903,1.27741935483871,1.26129032258065,1.25806451612903,1.25161290322581,1.23870967741935,1.21290322580645,1.20967741935484,1.18709677419355,1.18709677419355,1.16774193548387,1.15483870967742,1.14193548387097,1.14516129032258,1.14838709677419,1.15483870967742,1.15161290322581,1.16451612903226,1.17096774193548,1.18064516129032,1.20322580645161,1.17741935483871,1.19032258064516,1.19032258064516,1.18709677419355,1.16774193548387,1.18387096774194,1.17096774193548,1.18709677419355,1.19032258064516,1.17096774193548,1.18064516129032,1.19354838709677,1.19677419354839,1.18387096774194,1.18709677419355,1.18387096774194,1.18709677419355,1.19354838709677,1.18709677419355,1.2,1.19354838709677,1.19354838709677,1.19354838709677,1.20645161290323,1.2,1.18709677419355,1.18387096774194,1.20967741935484,1.19354838709677,1.16129032258065,1.16451612903226,1.14838709677419,1.15806451612903,1.15806451612903,1.16129032258065,1.14838709677419,1.15161290322581,1.17741935483871,1.13870967741935,1.12903225806452,1.30322580645161,1.64516129032258,2.09032258064516,2.54516129032258,2.38387096774194,2.04516129032258,1.76451612903226,1.43548387096774,1.11290322580645,1.03870967741935,0.983870967741935,0.932258064516129,0.938709677419355,1.00322580645161,1.04838709677419,1.06451612903226,1.06451612903226,1.08387096774194,1.07741935483871,1.08387096774194,1.06774193548387,1.08064516129032,1.1,1.09677419354839,1.08387096774194,1.08709677419355,1.11935483870968,1.11935483870968,1.12903225806452,1.14193548387097,1.15483870967742,1.15483870967742,1.18064516129032,1.19032258064516,1.20322580645161,1.2258064516129,1.26451612903226,1.27741935483871,1.29354838709677,1.31935483870968,1.30322580645161,1.3,1.29677419354839,1.28387096774194,1.26451612903226,1.24838709677419,1.23870967741935,1.21935483870968,1.19354838709677,1.18064516129032,1.1741935483871,1.13548387096774,1.12903225806452,1.12258064516129,1.10645161290323,1.09032258064516,1.10967741935484,1.08387096774194,1.1,1.09354838709677,1.11290322580645,1.12258064516129,1.11290322580645,1.10322580645161,1.12903225806452,1.14193548387097,1.1258064516129,1.11935483870968,1.1258064516129,1.13548387096774,1.15483870967742,1.15483870967742,1.16129032258065,1.16129032258065,1.14838709677419,1.16451612903226,1.16129032258065,1.17096774193548,1.15483870967742,1.17741935483871,1.2,1.20645161290323,1.18064516129032,1.20322580645161,1.2258064516129,1.22903225806452,1.2,1.24838709677419,1.20967741935484,1.20645161290323,1.26774193548387,1.26774193548387,1.23548387096774,1.21290322580645,1.19032258064516,1.20967741935484,1.20645161290323,1.21290322580645,1.20967741935484,1.2,1.21290322580645,1.17096774193548,1.18387096774194,1.35806451612903,1.71612903225806,2.20967741935484,2.71290322580645,2.60645161290323,2.38387096774194,2.09032258064516,1.65161290322581,1.24838709677419,1.19677419354839,1.16451612903226,1.07741935483871,1.06129032258065,1.06774193548387,1.07096774193548,1.08709677419355,1.08064516129032,1.09354838709677,1.08064516129032,1.07741935483871,1.08387096774194,1.09677419354839,1.08709677419355,1.06774193548387,1.09354838709677,1.08709677419355,1.09032258064516,1.09677419354839,1.11290322580645,1.1,1.11290322580645,1.10645161290323,1.10322580645161,1.13225806451613,1.13870967741935,1.14193548387097,1.14516129032258,1.15161290322581,1.17741935483871,1.20645161290323,1.21935483870968,1.2258064516129,1.2258064516129,1.23548387096774,1.22903225806452,1.22258064516129,1.21612903225806,1.20645161290323,1.19032258064516,1.2,1.17096774193548,1.15161290322581,1.15483870967742,1.14838709677419,1.13225806451613,1.13870967741935,1.14838709677419,1.16774193548387,1.14193548387097,1.13870967741935,1.15161290322581,1.12903225806452,1.17096774193548,1.15161290322581,1.14193548387097,1.14516129032258,1.13870967741935,1.14516129032258,1.14193548387097,1.14838709677419,1.15161290322581,1.15483870967742,1.16129032258065,1.16774193548387,1.15806451612903,1.15806451612903,1.16129032258065,1.16451612903226,1.17096774193548,1.16774193548387,1.14838709677419,1.14838709677419,1.16451612903226,1.1741935483871,1.17741935483871,1.16451612903226,1.15161290322581,1.19677419354839,1.17096774193548,1.15483870967742,1.19677419354839,1.19677419354839,1.14193548387097,1.15161290322581,1.13548387096774,1.15161290322581,1.13225806451613,1.15806451612903,1.15161290322581,1.14193548387097,1.15483870967742,1.11935483870968,1.13225806451613,1.32903225806452,1.67096774193548,2.09032258064516,2.54838709677419,2.25483870967742,1.96774193548387,1.65161290322581,1.34838709677419,1.04838709677419,0.996774193548387,0.935483870967742,0.912903225806452,0.935483870967742,0.980645161290323,1.01935483870968,1.03225806451613,1.04193548387097,1.05806451612903,1.06129032258065,1.08064516129032,1.07741935483871,1.09354838709677,1.10322580645161,1.14193548387097,1.14516129032258,1.15483870967742,1.16451612903226,1.19032258064516,1.19354838709677,1.2,1.20967741935484,1.21612903225806,1.22258064516129,1.24193548387097,1.24838709677419,1.25806451612903,1.28064516129032,1.30322580645161,1.32903225806452,1.35483870967742,1.36451612903226,1.35806451612903,1.34193548387097,1.31290322580645,1.29354838709677,1.25806451612903,1.24838709677419,1.23225806451613,1.21612903225806,1.19354838709677,1.1741935483871,1.15806451612903,1.16451612903226,1.14838709677419,1.14193548387097,1.13548387096774,1.13225806451613,1.12903225806452,1.14516129032258,1.14516129032258,1.15483870967742,1.16774193548387,1.16129032258065,1.16451612903226,1.17096774193548,1.17096774193548,1.18064516129032,1.18387096774194,1.19354838709677,1.19354838709677,1.19677419354839,1.18709677419355,1.20645161290323,1.20645161290323,1.21612903225806,1.20645161290323,1.20645161290323,1.21935483870968,1.20645161290323,1.21290322580645,1.20967741935484,1.21935483870968,1.21935483870968,1.22903225806452,1.23225806451613,1.23548387096774,1.20967741935484,1.23870967741935,1.21290322580645,1.18387096774194,1.23225806451613,1.24193548387097,1.19677419354839,1.19032258064516,1.19032258064516,1.17096774193548,1.16129032258065,1.1741935483871,1.16129032258065,1.17741935483871,1.16129032258065,1.12903225806452,1.13870967741935,1.34193548387097,1.67096774193548,2.13225806451613,2.58709677419355,2.31612903225806,2.00967741935484,1.69032258064516,1.40967741935484,1.11612903225806,1.05806451612903,0.974193548387097,0.970967741935484,0.974193548387097,1.01612903225806,1.07096774193548,1.05483870967742,1.05806451612903,1.08064516129032,1.0741935483871,1.09032258064516,1.09032258064516,1.09032258064516,1.08709677419355,1.1,1.10967741935484,1.12903225806452,1.16129032258065,1.14838709677419,1.14193548387097,1.15806451612903,1.16129032258065,1.20645161290323,1.19354838709677,1.19354838709677,1.23870967741935,1.25161290322581,1.29354838709677,1.3,1.31290322580645,1.3258064516129,1.33225806451613,1.32258064516129,1.3,1.29677419354839,1.25806451612903,1.23225806451613,1.23225806451613,1.20967741935484,1.19677419354839,1.16451612903226,1.13870967741935,1.12903225806452,1.10967741935484,1.11290322580645,1.1,1.10322580645161,1.08387096774194,1.09677419354839,1.10322580645161,1.08709677419355,1.10645161290323,1.10645161290323,1.10322580645161,1.11290322580645,1.12258064516129,1.11935483870968,1.12903225806452,1.10645161290323,1.13870967741935,1.13870967741935,1.13548387096774,1.13870967741935,1.13548387096774,1.15483870967742,1.16129032258065,1.15806451612903,1.16451612903226,1.14516129032258,1.14516129032258,1.15161290322581,1.15806451612903,1.15806451612903,1.16451612903226,1.19032258064516,1.20322580645161,1.19354838709677,1.19032258064516,1.22258064516129,1.19354838709677,1.17741935483871,1.20967741935484,1.21612903225806,1.18387096774194,1.18387096774194,1.17096774193548,1.1741935483871,1.17741935483871,1.19032258064516,1.19677419354839,1.18064516129032,1.18064516129032,1.13225806451613,1.15483870967742,1.33870967741935,1.64193548387097,2.08387096774194,2.49354838709677,2.3,2.01290322580645,1.71612903225806,1.41935483870968,1.08387096774194,1.04838709677419,1.01612903225806,0.97741935483871,0.990322580645161,1.05161290322581,1.08064516129032,1.1,1.09354838709677,1.10322580645161,1.1,1.09032258064516,1.10645161290323,1.10645161290323,1.12258064516129,1.10645161290323,1.12258064516129,1.14193548387097,1.15806451612903,1.14516129032258,1.16129032258065,1.19677419354839,1.20322580645161,1.21612903225806
1.08709677419355,1.09677419354839,1.08064516129032,1.08064516129032,1.08709677419355,1.08387096774194,1.08387096774194,1.09677419354839,1.10645161290323,1.12258064516129,1.13225806451613,1.12903225806452,1.13870967741935,1.15161290322581,1.15161290322581,1.16451612903226,1.15806451612903,1.18709677419355,1.20645161290323,1.2258064516129,1.25161290322581,1.26774193548387,1.28064516129032,1.29354838709677,1.29677419354839,1.2741935483871,1.27741935483871,1.26129032258065,1.24516129032258,1.23225806451613,1.20645161290323,1.2,1.1741935483871,1.1741935483871,1.16451612903226,1.17096774193548,1.14516129032258,1.15161290322581,1.14193548387097,1.14516129032258,1.1741935483871,1.15806451612903,1.16451612903226,1.1741935483871,1.16129032258065,1.15483870967742,1.1741935483871,1.16774193548387,1.16451612903226,1.19032258064516,1.1741935483871,1.16774193548387,1.18709677419355,1.18064516129032,1.18709677419355,1.18387096774194,1.1741935483871,1.16774193548387,1.17096774193548,1.19354838709677,1.18387096774194,1.19032258064516,1.16774193548387,1.16129032258065,1.14516129032258,1.17741935483871,1.18064516129032,1.19677419354839,1.17096774193548,1.19354838709677,1.19677419354839,1.18387096774194,1.20645161290323,1.24193548387097,1.19677419354839,1.19677419354839,1.18709677419355,1.19354838709677,1.18709677419355,1.21290322580645,1.20645161290323,1.21290322580645,1.21612903225806,1.19032258064516,1.17741935483871,1.29032258064516,1.58064516129032,2.03225806451613,2.4741935483871,2.71612903225806,2.38064516129032,2.16774193548387,1.69032258064516,1.29032258064516,1.16451612903226,1.15161290322581,1.1,1.03870967741935,1.02258064516129,1.0258064516129,1.03225806451613,1.03225806451613,1.05483870967742,1.04838709677419,1.05806451612903,1.07741935483871,1.0741935483871,1.05806451612903,1.07096774193548,1.07741935483871,1.05806451612903,1.08064516129032,1.0741935483871,1.0741935483871,1.07741935483871,1.08387096774194,1.09032258064516,1.10645161290323,1.11612903225806,1.13548387096774,1.16129032258065,1.16451612903226,1.19677419354839,1.21935483870968,1.24516129032258,1.27741935483871,1.26451612903226,1.28709677419355,1.28709677419355,1.29032258064516,1.28709677419355,1.26774193548387,1.25161290322581,1.26129032258065,1.24193548387097,1.22258064516129,1.18387096774194,1.15806451612903,1.15806451612903,1.15806451612903,1.15161290322581,1.11612903225806,1.13870967741935,1.13870967741935,1.13225806451613,1.14838709677419,1.13870967741935,1.16129032258065,1.16451612903226,1.18064516129032,1.17741935483871,1.18387096774194,1.18064516129032,1.19677419354839,1.16774193548387,1.2,1.18387096774194,1.19032258064516,1.19354838709677,1.17741935483871,1.1741935483871,1.1741935483871,1.17096774193548,1.15806451612903,1.14516129032258,1.14838709677419,1.13548387096774,1.15483870967742,1.17096774193548,1.17096774193548,1.16451612903226,1.18064516129032,1.16774193548387,1.14516129032258,1.17096774193548,1.19677419354839,1.17096774193548,1.14193548387097,1.14516129032258,1.1258064516129,1.13225806451613,1.13548387096774,1.14838709677419,1.14838709677419,1.15161290322581,1.15161290322581,1.1,1.19677419354839,1.42258064516129,1.8,2.24838709677419,2.63225806451613,2.2,1.93225806451613,1.52903225806452,1.29354838709677,1.05806451612903,1.01612903225806,0.967741935483871,0.967741935483871,1.00322580645161,1.04516129032258,1.07096774193548,1.06451612903226,1.07741935483871,1.08064516129032,1.09677419354839,1.1,1.10322580645161,1.10967741935484,1.10967741935484,1.10322580645161,1.13870967741935,1.13548387096774,1.12903225806452,1.16774193548387,1.16129032258065,1.18064516129032,1.19354838709677,1.20322580645161,1.21612903225806,1.21290322580645,1.21935483870968,1.22903225806452,1.27741935483871,1.30322580645161,1.31290322580645,1.31290322580645,1.31935483870968,1.31290322580645,1.29032258064516,1.2741935483871,1.27741935483871,1.25806451612903,1.2258064516129,1.20322580645161,1.18064516129032,1.18709677419355,1.17741935483871,1.14838709677419,1.15806451612903,1.15483870967742,1.13870967741935,1.12903225806452,1.14193548387097,1.12903225806452,1.13870967741935,1.15806451612903,1.14516129032258,1.13870967741935,1.15161290322581,1.16451612903226,1.15483870967742,1.16451612903226,1.17096774193548,1.19032258064516,1.16774193548387,1.17096774193548,1.18387096774194,1.18709677419355,1.18709677419355,1.17741935483871,1.1741935483871,1.19354838709677,1.19354838709677,1.16451612903226,1.18709677419355,1.17741935483871,1.18387096774194,1.19032258064516,1.2,1.20645161290323,1.20645161290323,1.19032258064516,1.19354838709677,1.17741935483871,1.14838709677419,1.19677419354839,1.21612903225806,1.16129032258065,1.16451612903226,1.12903225806452,1.14516129032258,1.13548387096774,1.15483870967742,1.15161290322581,1.14838709677419,1.15483870967742,1.10967741935484,1.12258064516129,1.32903225806452,1.68709677419355,2.19677419354839,2.68709677419355,2.60645161290323,2.34516129032258,2.05161290322581,1.6258064516129,1.19032258064516,1.16451612903226,1.11290322580645,1.09032258064516,1.05806451612903,1.08709677419355,1.04193548387097,1.06129032258065,1.05806451612903,1.0741935483871,1.05483870967742,1.07096774193548,1.06451612903226,1.04193548387097,1.0741935483871,1.05483870967742,1.0741935483871,1.08064516129032,1.06451612903226,1.06774193548387,1.07096774193548,1.05806451612903,1.04838709677419,1.03548387096774,1.03870967741935,1.04838709677419,1.05483870967742,1.06451612903226,1.06451612903226,1.08709677419355,1.11290322580645,1.13225806451613,1.16774193548387,1.1741935483871,1.19677419354839,1.20645161290323,1.19677419354839,1.18064516129032,1.18709677419355,1.18387096774194,1.18064516129032,1.16451612903226,1.16129032258065,1.15161290322581,1.14193548387097,1.16451612903226,1.16129032258065,1.15161290322581,1.16129032258065,1.15483870967742,1.16129032258065,1.16774193548387,1.18064516129032,1.19032258064516,1.18709677419355,1.19354838709677,1.18709677419355,1.18709677419355,1.18709677419355,1.18709677419355,1.19677419354839,1.18709677419355,1.19677419354839,1.20645161290323,1.21612903225806,1.21612903225806,1.2258064516129,1.22258064516129,1.21935483870968,1.22903225806452,1.22258064516129,1.22903225806452,1.23548387096774,1.22258064516129,1.23225806451613,1.25806451612903,1.24516129032258,1.22258064516129,1.22258064516129,1.23225806451613,1.20645161290323,1.21935483870968,1.22903225806452,1.22258064516129,1.20322580645161,1.18709677419355,1.18709677419355,1.20967741935484,1.20967741935484,1.20967741935484,1.20967741935484,1.19354838709677,1.17741935483871,1.16129032258065,1.27741935483871,1.59032258064516,1.98709677419355,2.36451612903226,2.4,2.07096774193548,1.78387096774194,1.43548387096774,1.1258064516129,1.03870967741935,1.00967741935484,0.961290322580645,0.974193548387097,1.00967741935484,1.05806451612903,1.08387096774194,1.10645161290323,1.08064516129032,1.1,1.10645161290323,1.09354838709677,1.09354838709677,1.10322580645161,1.09032258064516,1.11612903225806,1.11935483870968,1.11612903225806,1.11612903225806,1.14193548387097,1.13548387096774,1.14193548387097,1.15161290322581,1.16451612903226,1.19354838709677,1.19677419354839,1.22903225806452,1.24516129032258,1.26451612903226,1.29032258064516,1.31290322580645,1.30322580645161,1.31935483870968,1.29032258064516,1.27741935483871,1.26451612903226,1.25483870967742,1.23870967741935,1.21290322580645,1.18387096774194,1.1741935483871,1.19354838709677,1.15161290322581,1.14516129032258,1.13870967741935,1.13225806451613,1.13225806451613,1.13870967741935,1.1258064516129,1.10645161290323,1.11935483870968,1.12258064516129,1.11290322580645,1.11290322580645,1.10967741935484,1.1258064516129,1.13548387096774,1.14193548387097,1.12903225806452,1.15483870967742,1.15483870967742,1.14193548387097,1.15161290322581,1.15806451612903,1.17096774193548,1.16774193548387,1.1741935483871,1.16129032258065,1.19032258064516,1.18709677419355,1.1741935483871,1.17741935483871,1.1741935483871,1.19032258064516,1.20645161290323,1.19032258064516,1.18709677419355,1.18709677419355,1.20645161290323,1.19032258064516,1.1741935483871,1.22903225806452,1.24838709677419,1.19354838709677,1.17096774193548,1.2,1.18064516129032,1.18387096774194,1.19354838709677,1.20645161290323,1.21290322580645,1.20322580645161,1.16774193548387,1.21935483870968,1.44838709677419,1.8258064516129,2.30967741935484,2.8258064516129,2.48709677419355,2.31290322580645,1.92258064516129,1.52258064516129,1.21290322580645,1.1741935483871,1.14193548387097,1.07741935483871,1.06774193548387,1.06774193548387,1.04838709677419,1.03870967741935,1.04516129032258,1.04193548387097,1.05161290322581,1.08064516129032,1.07741935483871,1.07096774193548,1.04838709677419,1.04838709677419,1.05483870967742,1.08064516129032,1.1,1.1,1.10967741935484,1.10322580645161,1.09354838709677,1.08709677419355,1.08709677419355,1.06451612903226,1.08387096774194,1.11612903225806,1.12258064516129,1.13225806451613,1.18064516129032,1.2,1.20645161290323,1.21935483870968,1.22903225806452,1.21935483870968,1.2258064516129,1.20967741935484,1.20322580645161,1.19354838709677,1.17096774193548,1.16451612903226,1.17096774193548,1.15161290322581,1.16451612903226,1.15161290322581,1.14838709677419,1.14516129032258,1.13870967741935,1.14516129032258,1.1258064516129,1.12903225806452,1.14516129032258,1.14838709677419,1.14838709677419,1.14838709677419,1.14516129032258,1.14516129032258,1.15161290322581,1.16129032258065,1.15161290322581,1.15483870967742,1.16129032258065,1.16451612903226,1.15161290322581,1.1741935483871,1.17741935483871,1.18387096774194,1.16451612903226,1.1741935483871,1.16774193548387,1.16774193548387,1.16451612903226,1.17741935483871,1.1741935483871,1.18064516129032,1.1741935483871,1.16774193548387,1.19032258064516,1.19354838709677,1.16129032258065,1.19354838709677,1.21612903225806,1.18387096774194,1.16451612903226,1.16451612903226,1.15161290322581,1.15806451612903,1.1741935483871,1.18387096774194,1.17096774193548,1.1741935483871,1.17096774193548,1.16451612903226,1.26129032258065,1.54838709677419,1.96451612903226,2.37741935483871,2.6,2.18064516129032,1.86774193548387,1.46774193548387,1.19677419354839,1.05806451612903,1.01290322580645,0.974193548387097,0.983870967741935,1,1.03870967741935,1.05161290322581,1.07741935483871,1.09032258064516,1.09032258064516,1.08709677419355,1.1,1.10645161290323,1.11290322580645,1.10967741935484,1.10322580645161,1.10645161290323,1.10967741935484,1.13548387096774,1.16129032258065,1.15806451612903,1.15806451612903,1.16774193548387,1.16774193548387,1.20322580645161,1.21290322580645,1.2258064516129,1.26129032258065,1.29677419354839,1.29677419354839,1.33225806451613,1.34193548387097,1.34193548387097,1.33225806451613,1.31612903225806,1.29032258064516,1.27096774193548,1.24193548387097,1.21935483870968,1.2,1.19032258064516,1.18387096774194,1.15806451612903,1.14838709677419,1.12903225806452,1.11290322580645,1.10967741935484,1.11935483870968,1.12903225806452,1.12903225806452,1.12903225806452,1.12903225806452,1.13548387096774,1.1258064516129,1.12903225806452,1.12258064516129,1.15483870967742,1.13225806451613,1.15161290322581,1.15806451612903,1.16451612903226,1.15483870967742,1.14838709677419,1.17096774193548,1.16129032258065,1.15806451612903,1.16129032258065,1.13870967741935,1.14838709677419,1.16129032258065,1.15806451612903,1.17741935483871,1.18709677419355,1.18709677419355,1.19677419354839,1.19032258064516,1.19032258064516,1.18064516129032,1.19677419354839,1.19354838709677,1.16774193548387,1.19354838709677,1.21290322580645,1.19677419354839,1.16451612903226,1.14838709677419,1.14516129032258,1.15483870967742,1.16129032258065,1.16129032258065,1.19032258064516,1.19032258064516,1.18387096774194,1.15161290322581,1.28064516129032,1.56129032258065,2.02903225806452,2.5,2.9258064516129,2.58387096774194,2.35161290322581,1.78064516129032,1.46451612903226,1.20322580645161,1.13870967741935,1.09354838709677,1.02258064516129,1.04516129032258,1.07096774193548,1.06451612903226,1.06774193548387,1.07096774193548,1.04516129032258,1.05483870967742,1.04193548387097,1.06129032258065,1.05806451612903,1.06451612903226,1.08064516129032,1.07741935483871,1.0741935483871,1.08709677419355,1.08709677419355,1.08709677419355,1.10322580645161,1.07741935483871,1.08387096774194,1.07741935483871,1.05806451612903,1.08709677419355,1.10967741935484,1.1258064516129,1.15161290322581,1.1741935483871,1.21612903225806,1.23870967741935,1.24516129032258,1.25161290322581,1.23548387096774,1.24838709677419,1.24516129032258,1.2258064516129,1.20645161290323,1.20645161290323,1.17741935483871,1.18064516129032,1.15806451612903,1.16451612903226,1.14838709677419,1.14516129032258,1.14516129032258,1.13870967741935,1.15161290322581,1.14193548387097,1.14516129032258,1.15161290322581,1.14516129032258,1.16129032258065,1.16129032258065,1.15806451612903,1.16451612903226,1.16129032258065,1.16774193548387,1.18387096774194,1.18064516129032,1.16451612903226,1.18387096774194,1.17096774193548,1.19677419354839,1.17096774193548,1.16774193548387,1.17741935483871,1.16129032258065,1.16451612903226,1.15483870967742,1.16129032258065,1.16774193548387,1.16129032258065,1.17096774193548,1.18387096774194,1.18387096774194,1.14193548387097,1.18709677419355,1.17096774193548,1.16129032258065,1.21290322580645,1.23225806451613,1.19354838709677,1.18709677419355,1.18709677419355,1.18064516129032,1.18387096774194,1.18387096774194,1.1741935483871,1.1741935483871,1.16774193548387,1.13870967741935,1.19354838709677,1.40322580645161,1.74193548387097,2.15483870967742,2.55806451612903,2.17741935483871,1.88387096774194,1.51290322580645,1.3,1.04838709677419,1.02258064516129,0.951612903225806,0.948387096774194,0.983870967741935,1.0258064516129,1.06451612903226,1.08387096774194,1.0741935483871,1.08709677419355,1.08064516129032,1.07741935483871,1.08387096774194,1.07741935483871,1.08387096774194,1.07741935483871,1.08709677419355,1.10645161290323,1.13225806451613,1.1258064516129,1.13548387096774,1.15161290322581,1.16774193548387,1.17096774193548,1.1741935483871,1.20967741935484,1.21612903225806,1.26774193548387,1.25806451612903,1.30645161290323,1.31290322580645,1.32903225806452,1.31935483870968,1.31935483870968,1.30645161290323,1.27741935483871,1.24193548387097,1.23870967741935,1.22258064516129,1.21612903225806,1.2,1.17096774193548,1.17096774193548,1.14516129032258,1.14516129032258,1.15483870967742,1.11290322580645,1.1258064516129,1.11935483870968,1.10322580645161,1.14838709677419,1.14838709677419,1.16129032258065,1.14193548387097,1.14838709677419,1.13870967741935,1.14516129032258,1.13870967741935,1.14516129032258,1.16451612903226,1.17741935483871,1.15806451612903,1.19032258064516,1.19032258064516,1.18064516129032,1.19354838709677,1.2,1.21935483870968,1.19354838709677,1.20322580645161,1.20322580645161,1.19677419354839,1.19677419354839,1.21290322580645,1.20322580645161,1.21612903225806,1.21935483870968,1.22258064516129,1.20645161290323,1.21290322580645,1.20645161290323,1.19032258064516,1.21290322580645,1.24516129032258,1.20967741935484,1.2,1.17741935483871,1.20322580645161,1.20322580645161,1.21935483870968,1.20322580645161,1.22903225806452,1.23225806451613,1.18387096774194,1.19677419354839,1.31290322580645,1.65161290322581,2.10322580645161,2.57096774193548,2.72903225806452,2.45806451612903,2.20322580645161,1.75806451612903,1.3258064516129,1.21290322580645,1.17741935483871,1.10967741935484,1.07096774193548,1.06451612903226,1.05806451612903,1.06451612903226,1.07096774193548,1.08387096774194,1.08387096774194,1.08709677419355,1.10322580645161,1.09032258064516,1.06451612903226,1.04838709677419,1.06451612903226,1.05483870967742,1.06129032258065,1.08709677419355,1.06129032258065,1.06129032258065,1.05806451612903,1.05483870967742,1.06774193548387,1.06129032258065,1.07741935483871,1.08709677419355,1.10322580645161,1.12258064516129,1.13870967741935,1.16774193548387,1.19032258064516,1.2,1.21290322580645,1.20967741935484,1.20967741935484,1.20645161290323,1.18387096774194,1.2,1.17741935483871,1.16451612903226,1.14838709677419,1.15806451612903,1.14838709677419,1.13548387096774,1.13870967741935,1.13225806451613,1.12903225806452,1.13870967741935,1.13225806451613,1.1258064516129,1.13870967741935,1.14516129032258,1.14838709677419,1.14516129032258,1.14838709677419,1.16129032258065,1.16451612903226,1.18064516129032,1.17741935483871,1.18064516129032,1.18387096774194,1.17096774193548,1.1741935483871,1.16129032258065,1.15161290322581,1.15483870967742,1.14193548387097,1.15161290322581,1.14838709677419,1.14193548387097,1.13870967741935,1.14193548387097,1.13870967741935,1.14193548387097,1.17096774193548,1.17096774193548,1.15161290322581,1.15483870967742,1.15806451612903,1.13870967741935,1.16451612903226,1.18387096774194,1.19354838709677,1.15483870967742,1.15161290322581,1.14838709677419,1.16774193548387,1.16774193548387,1.1741935483871,1.16774193548387,1.17741935483871,1.16774193548387,1.12903225806452,1.19032258064516,1.41290322580645,1.76451612903226,2.19677419354839,2.64838709677419,2.2258064516129,1.96451612903226,1.57096774193548,1.3258064516129,1.06451612903226,1.00967741935484,0.964516129032258,0.958064516129032,0.967741935483871,1.01935483870968,1.03870967741935,1.04516129032258,1.08064516129032,1.08064516129032,1.09032258064516,1.09677419354839,1.09677419354839,1.09032258064516,1.0741935483871,1.09354838709677,1.09354838709677,1.1258064516129,1.14193548387097,1.16451612903226,1.18064516129032,1.18064516129032,1.18387096774194,1.18709677419355,1.21612903225806,1.22258064516129,1.24516129032258,1.26129032258065,1.29354838709677,1.30322580645161,1.34193548387097,1.35806451612903,1.36451612903226,1.35483870967742,1.34193548387097,1.32258064516129,1.30645161290323,1.29354838709677,1.29354838709677,1.27096774193548,1.25161290322581,1.23548387096774,1.22903225806452,1.2,1.19032258064516,1.18387096774194,1.16774193548387,1.1741935483871,1.17096774193548,1.14516129032258,1.14193548387097,1.16451612903226,1.16774193548387,1.1741935483871,1.16129032258065,1.16774193548387,1.17096774193548,1.1741935483871,1.17096774193548,1.18064516129032,1.19032258064516,1.17096774193548,1.2,1.19032258064516,1.20645161290323,1.2,1.2,1.20967741935484,1.20645161290323,1.19677419354839,1.2,1.17741935483871,1.18709677419355,1.19677419354839,1.19354838709677,1.2,1.19354838709677,1.16774193548387,1.18387096774194,1.21290322580645,1.16451612903226,1.1741935483871,1.20967741935484,1.18064516129032,1.16129032258065,1.17096774193548,1.16451612903226,1.15483870967742,1.17741935483871,1.18709677419355,1.1741935483871,1.16774193548387,1.14838709677419,1.13870967741935,1.2258064516129,1.48064516129032,1.91612903225806,2.31290322580645,2.6,2.18709677419355,1.90645161290323,1.4741935483871,1.21935483870968,1.03225806451613,1.00322580645161,0.951612903225806,0.941935483870968,0.964516129032258,1.0258064516129,1.04838709677419,1.06451612903226,1.06451612903226,1.07096774193548,1.08064516129032,1.06451612903226,1.08387096774194,1.08064516129032,1.07741935483871,1.09677419354839,1.08387096774194,1.09354838709677,1.10967741935484,1.13225806451613,1.12258064516129,1.16129032258065,1.15483870967742,1.17096774193548,1.19354838709677,1.20645161290323,1.22258064516129,1.24838709677419,1.27096774193548,1.29354838709677,1.30322580645161,1.29354838709677,1.30645161290323,1.31612903225806,1.29677419354839,1.27096774193548,1.28709677419355,1.25161290322581,1.23870967741935,1.21612903225806,1.20967741935484,1.21290322580645,1.19354838709677,1.19677419354839,1.16451612903226,1.14838709677419,1.14193548387097,1.13225806451613,1.13548387096774,1.13548387096774,1.12903225806452,1.14838709677419,1.13870967741935,1.12258064516129,1.15806451612903,1.13870967741935,1.14838709677419,1.14838709677419,1.14516129032258,1.17096774193548,1.14838709677419,1.16451612903226,1.19032258064516,1.17096774193548,1.18064516129032,1.18709677419355,1.18064516129032,1.18064516129032,1.16451612903226,1.1741935483871,1.16774193548387,1.17096774193548,1.16774193548387,1.19032258064516,1.16774193548387,1.16774193548387,1.17741935483871,1.15806451612903,1.2,1.18387096774194,1.15806451612903,1.18064516129032,1.18709677419355,1.1741935483871,1.16774193548387,1.13548387096774,1.13548387096774,1.12903225806452,1.11935483870968,1.15161290322581,1.12903225806452,1.13225806451613,1.10322580645161,1.15161290322581,1.34516129032258,1.6741935483871,2.06774193548387,2.49677419354839,2.20967741935484,1.90967741935484,1.58387096774194,1.36129032258065,1.08387096774194,1.05806451612903,1.01290322580645,1.00322580645161,1.00967741935484,1.05806451612903,1.09677419354839,1.10967741935484,1.10967741935484,1.10645161290323,1.11290322580645,1.11612903225806,1.1258064516129,1.13548387096774,1.14516129032258,1.13548387096774,1.14193548387097,1.17096774193548,1.16451612903226,1.16451612903226,1.17096774193548,1.18387096774194,1.21290322580645,1.2258064516129,1.2258064516129,1.22903225806452
