1.22903225806452,1.25806451612903,1.23225806451613,1.21612903225806,1.19677419354839,1.22258064516129,1.23870967741935,1.24193548387097,1.22903225806452,1.2258064516129,1.2258064516129,1.2741935483871,1.22258064516129,1.21612903225806,1.26774193548387,1.26129032258065,1.27741935483871,1.54516129032258,2.1,2.84838709677419,2.30645161290323,0.874193548387097,0.490322580645161,0.848387096774194,1.05161290322581,1.1258064516129,1.18387096774194,1.16451612903226,1.16451612903226,1.16774193548387,1.15806451612903,1.19677419354839,1.16451612903226,1.19032258064516,1.21290322580645,1.20322580645161,1.19677419354839,1.21290322580645,1.26451612903226,1.24516129032258,1.23225806451613,1.25483870967742,1.25483870967742,1.29354838709677,1.29032258064516,1.30967741935484,1.31290322580645,1.35161290322581,1.3741935483871,1.39354838709677,1.42258064516129,1.42258064516129,1.4,1.38387096774194,1.36774193548387,1.3258064516129,1.30645161290323,1.29677419354839,1.26774193548387,1.27741935483871,1.27096774193548,1.29354838709677,1.27741935483871,1.28709677419355,1.29354838709677,1.3,1.30645161290323,1.30645161290323,1.31290322580645,1.32258064516129,1.35483870967742,1.32258064516129,1.32258064516129,1.34516129032258,1.30322580645161,1.3,1.31290322580645,1.3258064516129,1.30645161290323,1.27741935483871,1.28709677419355,1.3,1.28709677419355,1.28064516129032,1.27741935483871,1.27741935483871,1.28064516129032,1.27096774193548,1.26774193548387,1.26129032258065,1.25806451612903,1.25806451612903,1.2741935483871,1.26451612903226,1.25483870967742,1.27741935483871,1.27741935483871,1.25161290322581,1.24516129032258,1.26451612903226,1.26451612903226,1.26129032258065,1.26774193548387,1.27741935483871,1.27096774193548,1.26451612903226,1.27741935483871,1.27096774193548,1.23870967741935,1.2741935483871,1.24838709677419,1.25806451612903,1.2741935483871,1.25161290322581,1.25161290322581,1.28064516129032,1.39677419354839,1.83870967741935,2.63225806451613,2.77741935483871,1.47096774193548,0.441935483870968,0.625806451612903,0.961290322580645,1.08064516129032,1.17096774193548,1.20967741935484,1.20645161290323,1.22258064516129,1.2258064516129,1.23548387096774,1.20322580645161,1.19677419354839,1.23225806451613,1.24838709677419,1.24516129032258,1.21935483870968,1.25483870967742,1.2741935483871,1.26774193548387,1.27741935483871,1.2741935483871,1.28387096774194,1.31612903225806,1.30322580645161,1.31290322580645,1.31612903225806,1.35161290322581,1.3741935483871,1.43870967741935,1.39032258064516,1.37096774193548,1.36774193548387,1.35483870967742,1.33225806451613,1.30645161290323,1.2741935483871,1.26774193548387,1.28387096774194,1.28387096774194,1.28709677419355,1.28064516129032,1.28387096774194,1.28387096774194,1.2741935483871,1.28064516129032,1.28387096774194,1.29032258064516,1.29354838709677,1.33225806451613,1.30645161290323,1.30967741935484,1.31612903225806,1.34838709677419,1.28064516129032,1.28709677419355,1.29677419354839,1.30645161290323,1.30645161290323,1.25483870967742,1.26451612903226,1.29354838709677,1.31290322580645,1.26451612903226,1.28387096774194,1.27096774193548,1.26774193548387,1.3,1.31612903225806,1.26451612903226,1.26129032258065,1.26451612903226,1.30322580645161,1.30645161290323,1.28709677419355,1.25161290322581,1.27096774193548,1.2741935483871,1.25161290322581,1.2741935483871,1.26451612903226,1.26451612903226,1.27741935483871,1.27096774193548,1.26774193548387,1.26129032258065,1.27096774193548,1.29677419354839,1.44193548387097,1.91612903225806,2.82258064516129,2.79677419354839,1.32903225806452,0.419354838709677,0.7,1.02258064516129,1.12258064516129,1.17741935483871,1.23870967741935,1.21935483870968,1.20645161290323,1.2258064516129,1.23870967741935,1.23225806451613,1.22258064516129,1.23548387096774,1.23870967741935,1.3,1.25483870967742,1.26129032258065,1.29354838709677,1.28709677419355,1.3,1.3258064516129,1.34838709677419,1.34193548387097,1.3258064516129,1.34516129032258,1.37096774193548,1.36129032258065,1.40322580645161,1.40645161290323,1.38709677419355,1.38387096774194,1.35483870967742,1.33225806451613,1.3258064516129,1.29354838709677,1.28709677419355,1.30322580645161,1.26774193548387,1.27096774193548,1.28709677419355,1.26774193548387,1.25806451612903,1.25806451612903,1.26129032258065,1.28064516129032,1.28387096774194,1.29354838709677,1.31290322580645,1.31290322580645,1.29032258064516,1.30645161290323,1.29677419354839,1.30967741935484,1.30322580645161,1.27741935483871,1.27741935483871,1.29677419354839,1.3,1.28387096774194,1.24838709677419,1.26774193548387,1.29354838709677,1.25483870967742,1.24193548387097,1.25483870967742,1.25806451612903,1.28709677419355,1.25483870967742,1.25483870967742,1.27741935483871,1.26451612903226,1.26129032258065,1.25806451612903,1.2741935483871,1.28387096774194,1.23225806451613,1.24193548387097,1.26451612903226,1.28387096774194,1.2741935483871,1.22258064516129,1.25161290322581,1.26451612903226,1.23548387096774,1.27096774193548,1.24516129032258,1.25806451612903,1.25806451612903,1.27741935483871,1.27096774193548,1.24193548387097,1.25483870967742,1.2741935483871,1.28064516129032,1.26129032258065,1.22903225806452,1.24838709677419,1.2741935483871,1.25483870967742,1.2741935483871,1.36451612903226,1.74193548387097,2.5741935483871,2.92903225806452,1.75161290322581,0.503225806451613,0.612903225806452,0.919354838709677,1.04516129032258,1.15483870967742,1.2,1.23548387096774,1.22258064516129,1.22258064516129,1.21290322580645,1.22258064516129,1.20967741935484,1.21612903225806,1.2258064516129,1.2258064516129,1.23870967741935,1.23870967741935,1.25806451612903,1.28064516129032,1.29677419354839,1.31612903225806,1.3,1.34193548387097,1.35161290322581,1.3258064516129,1.38064516129032,1.38064516129032,1.39032258064516,1.4258064516129,1.40967741935484,1.41290322580645,1.36451612903226,1.35806451612903,1.34516129032258,1.29354838709677,1.3,1.29354838709677,1.2741935483871,1.25806451612903,1.26451612903226,1.24838709677419,1.28709677419355,1.25483870967742,1.27096774193548,1.28064516129032,1.26774193548387,1.28064516129032,1.29354838709677,1.31612903225806,1.30645161290323,1.3,1.29677419354839,1.31290322580645,1.30967741935484,1.30322580645161,1.28709677419355,1.29354838709677,1.28064516129032,1.28387096774194,1.28387096774194,1.29354838709677,1.29677419354839,1.26774193548387,1.28709677419355,1.25483870967742,1.24516129032258,1.23548387096774,1.24193548387097,1.27741935483871,1.24193548387097,1.26129032258065,1.24516129032258,1.26129032258065,1.26774193548387,1.27741935483871,1.26129032258065,1.2741935483871,1.25806451612903,1.24516129032258,1.24516129032258,1.26451612903226,1.26129032258065,1.23870967741935,1.24838709677419,1.24193548387097,1.26774193548387,1.25806451612903,1.3,1.41612903225806,1.93225806451613,2.78387096774194,2.87096774193548,1.33870967741935,0.487096774193548,0.806451612903226,1.04838709677419,1.11935483870968,1.16451612903226,1.21290322580645,1.20645161290323,1.1741935483871,1.19354838709677,1.21290322580645,1.17741935483871,1.22258064516129,1.21612903225806,1.19354838709677,1.21612903225806,1.23548387096774,1.25806451612903,1.25806451612903,1.2741935483871,1.30645161290323,1.33870967741935,1.33548387096774,1.34838709677419,1.38064516129032,1.38387096774194,1.43548387096774,1.44193548387097,1.44838709677419,1.40645161290323,1.4,1.35806451612903,1.34838709677419,1.31935483870968,1.2741935483871,1.28064516129032,1.27096774193548,1.24838709677419,1.24516129032258,1.26129032258065,1.26774193548387,1.28064516129032,1.25806451612903,1.23548387096774,1.26774193548387,1.2741935483871,1.25806451612903,1.26774193548387,1.27096774193548,1.27741935483871,1.29032258064516,1.25483870967742,1.27741935483871,1.26129032258065,1.28064516129032,1.28709677419355,1.26451612903226,1.26451612903226,1.25806451612903,1.26129032258065,1.29354838709677,1.2741935483871,1.23870967741935,1.26774193548387,1.26129032258065,1.26451612903226,1.23870967741935,1.26451612903226,1.27096774193548,1.26451612903226,1.27096774193548,1.24838709677419,1.24838709677419,1.2258064516129,1.23870967741935,1.24193548387097,1.23225806451613,1.25806451612903,1.24193548387097,1.23548387096774,1.25483870967742,1.34838709677419,1.66774193548387,2.36451612903226,2.99677419354839,2.18387096774194,0.670967741935484,0.703225806451613,0.993548387096774,1.09032258064516,1.16129032258065,1.21612903225806,1.23225806451613,1.2258064516129,1.22903225806452,1.21935483870968,1.20645161290323,1.21935483870968,1.19677419354839,1.20967741935484,1.23225806451613,1.21935483870968,1.2258064516129,1.23870967741935,1.26774193548387,1.28709677419355,1.31935483870968,1.34516129032258,1.33548387096774,1.35806451612903,1.42258064516129,1.43870967741935,1.44193548387097,1.46451612903226,1.45483870967742,1.43870967741935,1.38387096774194,1.36774193548387,1.34193548387097,1.33548387096774,1.28709677419355,1.26451612903226,1.27096774193548,1.2741935483871,1.26451612903226,1.23225806451613,1.26451612903226,1.27096774193548,1.26451612903226,1.25161290322581,1.26451612903226,1.24838709677419,1.27741935483871,1.26451612903226,1.2741935483871,1.26774193548387,1.27741935483871,1.30322580645161,1.29032258064516,1.29354838709677,1.27741935483871,1.28064516129032,1.27096774193548,1.27096774193548,1.26451612903226,1.29677419354839,1.26451612903226,1.25483870967742,1.2741935483871,1.27096774193548,1.26774193548387,1.24516129032258,1.25806451612903,1.25161290322581,1.24516129032258,1.26129032258065,1.23225806451613,1.26451612903226,1.24838709677419,1.24838709677419,1.26129032258065,1.2741935483871,1.28064516129032,1.24838709677419,1.22903225806452,1.25806451612903,1.26451612903226,1.24516129032258,1.23548387096774,1.24838709677419,1.26451612903226,1.25806451612903,1.23225806451613,1.25806451612903,1.25483870967742,1.25483870967742,1.25483870967742,1.26451612903226,1.24516129032258,1.25806451612903,1.25806451612903,1.26129032258065,1.3,1.48064516129032,1.93548387096774,2.75161290322581,2.73870967741935,1.26774193548387,0.458064516129032,0.751612903225806,1.02258064516129,1.11612903225806,1.1741935483871,1.20645161290323,1.20322580645161,1.20967741935484,1.21612903225806,1.22903225806452,1.21935483870968,1.21612903225806,1.20645161290323,1.22258064516129,1.24193548387097,1.25806451612903,1.23548387096774,1.26451612903226,1.27096774193548,1.29354838709677,1.33870967741935,1.30967741935484,1.32903225806452,1.36774193548387,1.37096774193548,1.40967741935484,1.42258064516129,1.43870967741935,1.44193548387097,1.41612903225806,1.40322580645161,1.39032258064516,1.33870967741935,1.31290322580645,1.3,1.31612903225806,1.29032258064516,1.29354838709677,1.3,1.30967741935484,1.26451612903226,1.2741935483871,1.30322580645161,1.29354838709677,1.26774193548387,1.25161290322581,1.27741935483871,1.25806451612903,1.26129032258065,1.27741935483871,1.29677419354839,1.27741935483871,1.2741935483871,1.28064516129032,1.31290322580645,1.28709677419355,1.28064516129032,1.3,1.2741935483871,1.26451612903226,1.3,1.25161290322581,1.26774193548387,1.24838709677419,1.23225806451613,1.24516129032258,1.24838709677419,1.23225806451613,1.24516129032258,1.23870967741935,1.24516129032258,1.24516129032258,1.22903225806452,1.24838709677419,1.25161290322581,1.24193548387097,1.25161290322581,1.24838709677419,1.25483870967742,1.25806451612903,1.27096774193548,1.45161290322581,1.95806451612903,2.83225806451613,2.71612903225806,1.13225806451613,0.445161290322581,0.796774193548387,1.04838709677419,1.09677419354839,1.15806451612903,1.19354838709677,1.20322580645161,1.21935483870968,1.21290322580645,1.21612903225806,1.21612903225806,1.19677419354839,1.21290322580645,1.21290322580645,1.23225806451613,1.25161290322581,1.24516129032258,1.22903225806452,1.27741935483871,1.26774193548387,1.28064516129032,1.30967741935484,1.32903225806452,1.35161290322581,1.3741935483871,1.40967741935484,1.41612903225806,1.43225806451613,1.40967741935484,1.39032258064516,1.35483870967742,1.3258064516129,1.32258064516129,1.29032258064516,1.28064516129032,1.28064516129032,1.24838709677419,1.24838709677419,1.24838709677419,1.24838709677419,1.24193548387097,1.25806451612903,1.2741935483871,1.26129032258065,1.26774193548387,1.25483870967742,1.25806451612903,1.26774193548387,1.29354838709677,1.25483870967742,1.26451612903226,1.28064516129032,1.30322580645161,1.3,1.29032258064516,1.28064516129032,1.39677419354839,1.8258064516129,2.63548387096774,2.83870967741935,1.57741935483871,0.42258064516129,0.683870967741935,0.993548387096774,1.08709677419355,1.18064516129032,1.22258064516129,1.25161290322581,1.21935483870968,1.21290322580645,1.21290322580645,1.21612903225806,1.22903225806452,1.21290322580645,1.24516129032258,1.2258064516129,1.24516129032258,1.24516129032258,1.27741935483871,1.2741935483871,1.29354838709677,1.33548387096774,1.34193548387097,1.36774193548387,1.37096774193548,1.41290322580645,1.44193548387097,1.45806451612903,1.43548387096774,1.41290322580645,1.38064516129032,1.35483870967742,1.31935483870968,1.31290322580645,1.28709677419355,1.2741935483871,1.23548387096774,1.26451612903226,1.22258064516129,1.24516129032258,1.23870967741935,1.22903225806452,1.21612903225806,1.24193548387097,1.26774193548387,1.25806451612903,1.25483870967742,1.28709677419355,1.2741935483871,1.26129032258065,1.27741935483871,1.2741935483871,1.2741935483871,1.2741935483871,1.2741935483871,1.28064516129032,1.26129032258065,1.25806451612903,1.25483870967742,1.27096774193548,1.26129032258065,1.27096774193548,1.27741935483871,1.25806451612903,1.25806451612903,1.24838709677419,1.23548387096774,1.26774193548387,1.24838709677419,1.25483870967742,1.23870967741935,1.22903225806452,1.25161290322581,1.25483870967742,1.24516129032258,1.25806451612903,1.23225806451613,1.26451612903226,1.25806451612903,1.23870967741935,1.26129032258065,1.25161290322581,1.24193548387097,1.24193548387097,1.24193548387097,1.24193548387097,1.25161290322581,1.25483870967742,1.24516129032258,1.23870967741935,1.24838709677419,1.26129032258065,1.28064516129032,1.28064516129032,1.3258064516129,1.5741935483871,2.1258064516129,2.94838709677419,2.46451612903226,0.938709677419355,0.483870967741935,0.838709677419355,1.03870967741935,1.12258064516129,1.18064516129032,1.19677419354839,1.19677419354839,1.2,1.20322580645161,1.19677419354839,1.20967741935484,1.20322580645161,1.21612903225806,1.22903225806452,1.23548387096774,1.21612903225806,1.23870967741935,1.27096774193548,1.2741935483871,1.29354838709677,1.30967741935484,1.30645161290323,1.3258064516129,1.33870967741935,1.36774193548387,1.38064516129032,1.40322580645161,1.45161290322581,1.43548387096774,1.42903225806452,1.4,1.37741935483871,1.35483870967742,1.33870967741935,1.31290322580645,1.29677419354839,1.3,1.28064516129032,1.29032258064516,1.29032258064516,1.28387096774194,1.29032258064516,1.30645161290323,1.28709677419355,1.31935483870968,1.29354838709677,1.30645161290323,1.30322580645161,1.3258064516129,1.30645161290323,1.31935483870968,1.30322580645161,1.3258064516129,1.30967741935484,1.3,1.31290322580645,1.29677419354839,1.28709677419355,1.27741935483871,1.2741935483871,1.30645161290323,1.27096774193548,1.25806451612903,1.25806451612903,1.27741935483871,1.2741935483871,1.24838709677419,1.25483870967742,1.28064516129032,1.23870967741935,1.22258064516129,1.26774193548387,1.2741935483871,1.25806451612903,1.25806451612903,1.40967741935484,1.79032258064516,2.55161290322581,2.91612903225806,1.65161290322581,0.512903225806452,0.72258064516129,1.01612903225806,1.11935483870968,1.15161290322581,1.19677419354839,1.18709677419355,1.18709677419355,1.2,1.17096774193548,1.20322580645161,1.19354838709677,1.2,1.22258064516129,1.20967741935484,1.2258064516129,1.2258064516129,1.24193548387097,1.27741935483871,1.26129032258065,1.26774193548387,1.3,1.32903225806452,1.34516129032258,1.33870967741935,1.36774193548387,1.40645161290323,1.39354838709677,1.36774193548387,1.36129032258065,1.32258064516129,1.28387096774194,1.27096774193548,1.25806451612903,1.25161290322581,1.25806451612903,1.24193548387097,1.23870967741935,1.24193548387097,1.24193548387097,1.23225806451613,1.24193548387097,1.24193548387097,1.26129032258065,1.23548387096774,1.25483870967742,1.26774193548387,1.24516129032258,1.25483870967742,1.26129032258065,1.24516129032258,1.29677419354839,1.57096774193548,2.04516129032258,2.71612903225806,2.18709677419355,0.62258064516129,0.580645161290323,0.941935483870968,1.10967741935484,1.17741935483871,1.20322580645161,1.21612903225806,1.19354838709677,1.19677419354839,1.18064516129032,1.19354838709677,1.20645161290323,1.20967741935484,1.19032258064516,1.21935483870968,1.23548387096774,1.23548387096774,1.24838709677419,1.25161290322581,1.28064516129032,1.30967741935484,1.32258064516129,1.34516129032258,1.35161290322581,1.38387096774194,1.40645161290323,1.42258064516129,1.43225806451613,1.41612903225806,1.36451612903226,1.32903225806452,1.33225806451613,1.30322580645161,1.2741935483871,1.27096774193548,1.28064516129032,1.25483870967742,1.24838709677419,1.26129032258065,1.25483870967742,1.26129032258065,1.26774193548387,1.27096774193548,1.28709677419355,1.26129032258065,1.28064516129032,1.27096774193548,1.29677419354839,1.3,1.27096774193548,1.28709677419355,1.30967741935484,1.26451612903226,1.25161290322581,1.27096774193548,1.25806451612903,1.26774193548387,1.2741935483871,1.26451612903226,1.23870967741935,1.28064516129032,1.36129032258065,1.73225806451613,2.38387096774194,2.61935483870968,1.51290322580645,0.435483870967742,0.661290322580645,0.993548387096774,1.09032258064516,1.16129032258065,1.19354838709677,1.18387096774194,1.20322580645161,1.20322580645161,1.18064516129032,1.2,1.19032258064516,1.21290322580645,1.23225806451613,1.19677419354839,1.22903225806452,1.23870967741935,1.25483870967742,1.27096774193548,1.28064516129032,1.29677419354839,1.32258064516129,1.35161290322581,1.34193548387097,1.3741935483871,1.41290322580645,1.4258064516129,1.43870967741935,1.4258064516129,1.39677419354839,1.36774193548387,1.33870967741935,1.3,1.31290322580645,1.27741935483871,1.3,1.30322580645161,1.3,1.30645161290323,1.30322580645161,1.31935483870968,1.29677419354839,1.30645161290323,1.31290322580645,1.30322580645161,1.3,1.30967741935484,1.32903225806452,1.31612903225806,1.30322580645161,1.3,1.3,1.31290322580645,1.30322580645161,1.29354838709677,1.3,1.30967741935484,1.30322580645161,1.29032258064516,1.28709677419355,1.28064516129032,1.28064516129032,1.28387096774194,1.25483870967742,1.26774193548387,1.28064516129032,1.28387096774194,1.28064516129032,1.24838709677419,1.26129032258065,1.26129032258065,1.26129032258065,1.25483870967742,1.25806451612903,1.26129032258065,1.25161290322581,1.25483870967742,1.2741935483871,1.2741935483871,1.25483870967742,1.26129032258065,1.28387096774194,1.31290322580645,1.60645161290323,2.18064516129032,2.92258064516129,2.34838709677419,0.835483870967742,0.545161290322581,0.916129032258065,1.07741935483871,1.14516129032258,1.19677419354839,1.21612903225806,1.21612903225806,1.2,1.18709677419355,1.19677419354839,1.20645161290323,1.19677419354839,1.21935483870968,1.2258064516129,1.21612903225806,1.22258064516129,1.22903225806452,1.25161290322581,1.25806451612903,1.27096774193548,1.27741935483871,1.29032258064516,1.28064516129032,1.30322580645161,1.31612903225806,1.34193548387097,1.3741935483871,1.40645161290323,1.37741935483871,1.39354838709677,1.36451612903226,1.36451612903226,1.31612903225806,1.30967741935484,1.2741935483871,1.28387096774194,1.27741935483871,1.28387096774194,1.3,1.28709677419355,1.28709677419355,1.29354838709677,1.29032258064516,1.27741935483871,1.31290322580645,1.30322580645161,1.30967741935484,1.30967741935484,1.31612903225806,1.31612903225806,1.30967741935484,1.3,1.33225806451613,1.32258064516129,1.30322580645161,1.30322580645161,1.30322580645161,1.27741935483871,1.3,1.26451612903226,1.28064516129032,1.26129032258065,1.25806451612903,1.26774193548387,1.25806451612903,1.24193548387097,1.25161290322581,1.26774193548387,1.25806451612903,1.25483870967742,1.24516129032258,1.23870967741935,1.25483870967742,1.27096774193548,1.24838709677419,1.26129032258065,1.25161290322581,1.28387096774194,1.26451612903226,1.26451612903226,1.25483870967742,1.25483870967742,1.25806451612903,1.28064516129032,1.26129032258065,1.25483870967742,1.25483870967742,1.26774193548387,1.26129032258065,1.25483870967742,1.26129032258065,1.26451612903226,1.26774193548387,1.29354838709677,1.29032258064516,1.30967741935484,1.59354838709677,2.19677419354839,2.9258064516129,2.27096774193548,0.838709677419355,0.490322580645161,0.858064516129032,1.0741935483871,1.16774193548387,1.22903225806452,1.24193548387097,1.26774193548387,1.26129032258065,1.24516129032258,1.23870967741935,1.25483870967742,1.24516129032258,1.26774193548387,1.25161290322581,1.26129032258065
1.28064516129032,1.2741935483871,1.27741935483871,1.29032258064516,1.29032258064516,1.28387096774194,1.29354838709677,1.28709677419355,1.31290322580645,1.29677419354839,1.32258064516129,1.32258064516129,1.31935483870968,1.31935483870968,1.30645161290323,1.32903225806452,1.33548387096774,1.31935483870968,1.3,1.29677419354839,1.29032258064516,1.28064516129032,1.28709677419355,1.28064516129032,1.26774193548387,1.2741935483871,1.28709677419355,1.33225806451613,1.55161290322581,2.13548387096774,2.88387096774194,2.29677419354839,0.825806451612903,0.619354838709677,0.951612903225806,1.0741935483871,1.14193548387097,1.20322580645161,1.2,1.20322580645161,1.20967741935484,1.20967741935484,1.21290322580645,1.18709677419355,1.19032258064516,1.18387096774194,1.20645161290323,1.21935483870968,1.23548387096774,1.2258064516129,1.25483870967742,1.25806451612903,1.29677419354839,1.3,1.3258064516129,1.3258064516129,1.35161290322581,1.36451612903226,1.39354838709677,1.39677419354839,1.40967741935484,1.39032258064516,1.35161290322581,1.3258064516129,1.29032258064516,1.28064516129032,1.26774193548387,1.25806451612903,1.26129032258065,1.27096774193548,1.24516129032258,1.25161290322581,1.23225806451613,1.25806451612903,1.26129032258065,1.26451612903226,1.24838709677419,1.26451612903226,1.26774193548387,1.26774193548387,1.26451612903226,1.26129032258065,1.26451612903226,1.26451612903226,1.24838709677419,1.26774193548387,1.26451612903226,1.26774193548387,1.27096774193548,1.26451612903226,1.25806451612903,1.25161290322581,1.26129032258065,1.2741935483871,1.28064516129032,1.25483870967742,1.26129032258065,1.25806451612903,1.24516129032258,1.26129032258065,1.26451612903226,1.26129032258065,1.25483870967742,1.24838709677419,1.26451612903226,1.26451612903226,1.26774193548387,1.26129032258065,1.26129032258065,1.24838709677419,1.26451612903226,1.24838709677419,1.25161290322581,1.25161290322581,1.26451612903226,1.25806451612903,1.25806451612903,1.26774193548387,1.27741935483871,1.34838709677419,1.67096774193548,2.34516129032258,3.07741935483871,2.2741935483871,0.774193548387097,0.567741935483871,0.887096774193548,1.05161290322581,1.1258064516129,1.19032258064516,1.20322580645161,1.2,1.21935483870968,1.21612903225806,1.20645161290323,1.20322580645161,1.20645161290323,1.20967741935484,1.21290322580645,1.2258064516129,1.2258064516129,1.25806451612903,1.25483870967742,1.28064516129032,1.27096774193548,1.28387096774194,1.30967741935484,1.3,1.3258064516129,1.35806451612903,1.38387096774194,1.39354838709677,1.44193548387097,1.44838709677419,1.42903225806452,1.40967741935484,1.39032258064516,1.35806451612903,1.34516129032258,1.30322580645161,1.3,1.3,1.3,1.29032258064516,1.29032258064516,1.28709677419355,1.30322580645161,1.30645161290323,1.2741935483871,1.27741935483871,1.3,1.31612903225806,1.31612903225806,1.3258064516129,1.33548387096774,1.32258064516129,1.33225806451613,1.33870967741935,1.33225806451613,1.30967741935484,1.29032258064516,1.3258064516129,1.30322580645161,1.30322580645161,1.29354838709677,1.29032258064516,1.29677419354839,1.27741935483871,1.2741935483871,1.29032258064516,1.27741935483871,1.28064516129032,1.27741935483871,1.26129032258065,1.27096774193548,1.26451612903226,1.28387096774194,1.25806451612903,1.26774193548387,1.25161290322581,1.26451612903226,1.27741935483871,1.28387096774194,1.26451612903226,1.26774193548387,1.27096774193548,1.26451612903226,1.26451612903226,1.2741935483871,1.26774193548387,1.25806451612903,1.26451612903226,1.26774193548387,1.26451612903226,1.27741935483871,1.25483870967742,1.25161290322581,1.25806451612903,1.25806451612903,1.23870967741935,1.25806451612903,1.25161290322581,1.26129032258065,1.26451612903226,1.26129032258065,1.25161290322581,1.25161290322581,1.24516129032258,1.25806451612903,1.24516129032258,1.26774193548387,1.25806451612903,1.26774193548387,1.27741935483871,1.26129032258065,1.25483870967742,1.28064516129032,1.36451612903226,1.71290322580645,2.38064516129032,2.99354838709677,2.13548387096774,0.674193548387097,0.709677419354839,0.961290322580645,1.07741935483871,1.12903225806452,1.16774193548387,1.18387096774194,1.19032258064516,1.20322580645161,1.1741935483871,1.18387096774194,1.18709677419355,1.20322580645161,1.23225806451613,1.21612903225806,1.20967741935484,1.21612903225806,1.23548387096774,1.25161290322581,1.26129032258065,1.26774193548387,1.29032258064516,1.29677419354839,1.29032258064516,1.32903225806452,1.34193548387097,1.33870967741935,1.38387096774194,1.42258064516129,1.42903225806452,1.40967741935484,1.39354838709677,1.3741935483871,1.35806451612903,1.32903225806452,1.31290322580645,1.28064516129032,1.28064516129032,1.27741935483871,1.28709677419355,1.27741935483871,1.27741935483871,1.27741935483871,1.27096774193548,1.26451612903226,1.27096774193548,1.27741935483871,1.29354838709677,1.2741935483871,1.27741935483871,1.28387096774194,1.28387096774194,1.30322580645161,1.28709677419355,1.3,1.30967741935484,1.2741935483871,1.28064516129032,1.29032258064516,1.27741935483871,1.29032258064516,1.2741935483871,1.29032258064516,1.28064516129032,1.26451612903226,1.25483870967742,1.27096774193548,1.27096774193548,1.26774193548387,1.26129032258065,1.27741935483871,1.25806451612903,1.23870967741935,1.24516129032258,1.24838709677419,1.25483870967742,1.24838709677419,1.25483870967742,1.27096774193548,1.25806451612903,1.27096774193548,1.2741935483871,1.3741935483871,1.78709677419355,2.53225806451613,3.03225806451613,1.93225806451613,0.593548387096774,0.754838709677419,1.05483870967742,1.10322580645161,1.15483870967742,1.19677419354839,1.20967741935484,1.20645161290323,1.19677419354839,1.21290322580645,1.21612903225806,1.21290322580645,1.21290322580645,1.21290322580645,1.2258064516129,1.23548387096774,1.23870967741935,1.25806451612903,1.2741935483871,1.30322580645161,1.32258064516129,1.33548387096774,1.34193548387097,1.3741935483871,1.39677419354839,1.41290322580645,1.44516129032258,1.43548387096774,1.43548387096774,1.43548387096774,1.37741935483871,1.35806451612903,1.3258064516129,1.3258064516129,1.29354838709677,1.2741935483871,1.26774193548387,1.2741935483871,1.26774193548387,1.28064516129032,1.28387096774194,1.25161290322581,1.25161290322581,1.26774193548387,1.27741935483871,1.26451612903226,1.24838709677419,1.25483870967742,1.26774193548387,1.26774193548387,1.27741935483871,1.26451612903226,1.25483870967742,1.25806451612903,1.2741935483871,1.25806451612903,1.24516129032258,1.24838709677419,1.27096774193548,1.26451612903226,1.26451612903226,1.26129032258065,1.26129032258065,1.26129032258065,1.26451612903226,1.27096774193548,1.26774193548387,1.26774193548387,1.25483870967742,1.24516129032258,1.27096774193548,1.28064516129032,1.26774193548387,1.25161290322581,1.25483870967742,1.26774193548387,1.2741935483871,1.28064516129032,1.26129032258065,1.2741935483871,1.25483870967742,1.26774193548387,1.25806451612903,1.27096774193548,1.25806451612903,1.25806451612903,1.27096774193548,1.24838709677419,1.26129032258065,1.25161290322581,1.23870967741935,1.24838709677419,1.26129032258065,1.25806451612903,1.25806451612903,1.26451612903226,1.26129032258065,1.24838709677419,1.25161290322581,1.25483870967742,1.28064516129032,1.26129032258065,1.27096774193548,1.26451612903226,1.27096774193548,1.26774193548387,1.26129032258065,1.26774193548387,1.2741935483871,1.27096774193548,1.27741935483871,1.35483870967742,1.71935483870968,2.41290322580645,2.94516129032258,2.00645161290323,0.62258064516129,0.629032258064516,0.951612903225806,1.06774193548387,1.15806451612903,1.20967741935484,1.21290322580645,1.19677419354839,1.19677419354839,1.2,1.19677419354839,1.2,1.20645161290323,1.23548387096774,1.20645161290323,1.21290322580645,1.23870967741935,1.25483870967742,1.27096774193548,1.27741935483871,1.28709677419355,1.29677419354839,1.31612903225806,1.34193548387097,1.34838709677419,1.36129032258065,1.39032258064516,1.4,1.43225806451613,1.43225806451613,1.43548387096774,1.40322580645161,1.37096774193548,1.34838709677419,1.33548387096774,1.30322580645161,1.30967741935484,1.28709677419355,1.28064516129032,1.28387096774194,1.29354838709677,1.28064516129032,1.27741935483871,1.28064516129032,1.28387096774194,1.3,1.28064516129032,1.28387096774194,1.28064516129032,1.28709677419355,1.28387096774194,1.29354838709677,1.30322580645161,1.3,1.28064516129032,1.29032258064516,1.29032258064516,1.3,1.29677419354839,1.4258064516129,1.85806451612903,2.6258064516129,2.74193548387097,1.37096774193548,0.409677419354839,0.693548387096774,1.01935483870968,1.1,1.16774193548387,1.20645161290323,1.22903225806452,1.21612903225806,1.18709677419355,1.17741935483871,1.19677419354839,1.21290322580645,1.21612903225806,1.2,1.20645161290323,1.23548387096774,1.23548387096774,1.25161290322581,1.26451612903226,1.29032258064516,1.31290322580645,1.32258064516129,1.34193548387097,1.36774193548387,1.38387096774194,1.41612903225806,1.4258064516129,1.41290322580645,1.4,1.38709677419355,1.35483870967742,1.31612903225806,1.28709677419355,1.28064516129032,1.26451612903226,1.24838709677419,1.23225806451613,1.24193548387097,1.24516129032258,1.25806451612903,1.23870967741935,1.25806451612903,1.26129032258065,1.27096774193548,1.24838709677419,1.26129032258065,1.26451612903226,1.2741935483871,1.26774193548387,1.26451612903226,1.26451612903226,1.28064516129032,1.27096774193548,1.25161290322581,1.25483870967742,1.27096774193548,1.25483870967742,1.26129032258065,1.24193548387097,1.24838709677419,1.25806451612903,1.24516129032258,1.23548387096774,1.24838709677419,1.21290322580645,1.23870967741935,1.23870967741935,1.22903225806452,1.23870967741935,1.25483870967742,1.25161290322581,1.24838709677419,1.24193548387097,1.24838709677419,1.26451612903226,1.24516129032258,1.25483870967742,1.25483870967742,1.28064516129032,1.43870967741935,1.95483870967742,2.78709677419355,2.88387096774194,1.33225806451613,0.509677419354839,0.812903225806452,1.0258064516129,1.10967741935484,1.14193548387097,1.20967741935484,1.19677419354839,1.20322580645161,1.20645161290323,1.21290322580645,1.20645161290323,1.21935483870968,1.23225806451613,1.21935483870968,1.20322580645161,1.23225806451613,1.23548387096774,1.25483870967742,1.26451612903226,1.28709677419355,1.31612903225806,1.3258064516129,1.34516129032258,1.36129032258065,1.37741935483871,1.41935483870968,1.44193548387097,1.46129032258065,1.46129032258065,1.44516129032258,1.41612903225806,1.36774193548387,1.36451612903226,1.33225806451613,1.33225806451613,1.30967741935484,1.32903225806452,1.30322580645161,1.29677419354839,1.29354838709677,1.3,1.3,1.29032258064516,1.2741935483871,1.29677419354839,1.3,1.29677419354839,1.3,1.30967741935484,1.29354838709677,1.31290322580645,1.30322580645161,1.3,1.30967741935484,1.29354838709677,1.30322580645161,1.29032258064516,1.29032258064516,1.29032258064516,1.3,1.28064516129032,1.29354838709677,1.2741935483871,1.27741935483871,1.27741935483871,1.26451612903226,1.26774193548387,1.26774193548387,1.24516129032258,1.26451612903226,1.25806451612903,1.25483870967742,1.25483870967742,1.25806451612903,1.26129032258065,1.25806451612903,1.24516129032258,1.25483870967742,1.26451612903226,1.25483870967742,1.24516129032258,1.27096774193548,1.25806451612903,1.26451612903226,1.25483870967742,1.26774193548387,1.2741935483871,1.26129032258065,1.24516129032258,1.25483870967742,1.26129032258065,1.26451612903226,1.25483870967742,1.26129032258065,1.25806451612903,1.25483870967742,1.24838709677419,1.25806451612903,1.25806451612903,1.25483870967742,1.25806451612903,1.25806451612903,1.25806451612903,1.25806451612903,1.26774193548387,1.28387096774194,1.26129032258065,1.2741935483871,1.25483870967742,1.24516129032258,1.26129032258065,1.27096774193548,1.26129032258065,1.27096774193548,1.29354838709677,1.34516129032258,1.67096774193548,2.38064516129032,2.96774193548387,2.0741935483871,0.645161290322581,0.658064516129032,0.954838709677419,1.08064516129032,1.15806451612903,1.17096774193548,1.17741935483871,1.2,1.20967741935484,1.2,1.21612903225806,1.21290322580645,1.22258064516129,1.20322580645161,1.21612903225806,1.21612903225806,1.22258064516129,1.23225806451613,1.25161290322581,1.27741935483871,1.28064516129032,1.28064516129032,1.29354838709677,1.30967741935484,1.33870967741935,1.32903225806452,1.35161290322581,1.39677419354839,1.40967741935484,1.43548387096774,1.43548387096774,1.41290322580645,1.40322580645161,1.3741935483871,1.33225806451613,1.3258064516129,1.30967741935484,1.30967741935484,1.3,1.28709677419355,1.28709677419355,1.27096774193548,1.25806451612903,1.26774193548387,1.28709677419355,1.29354838709677,1.28709677419355,1.28387096774194,1.29354838709677,1.29354838709677,1.30322580645161,1.3,1.30322580645161,1.30322580645161,1.30967741935484,1.29032258064516,1.29677419354839,1.29032258064516,1.29354838709677,1.29354838709677,1.28387096774194,1.28064516129032,1.27741935483871,1.25483870967742,1.28064516129032,1.28064516129032,1.26129032258065,1.24838709677419,1.25806451612903,1.26129032258065,1.26129032258065,1.27096774193548,1.3,1.5258064516129,2.03548387096774,2.87741935483871,2.62903225806452,1.0741935483871,0.603225806451613,0.932258064516129,1.10322580645161,1.15483870967742,1.20322580645161,1.20645161290323,1.2,1.2,1.20645161290323,1.2,1.19677419354839,1.20322580645161,1.20967741935484,1.21935483870968,1.20645161290323,1.20645161290323,1.24193548387097,1.25161290322581,1.25806451612903,1.28709677419355,1.30967741935484,1.33548387096774,1.34516129032258,1.36129032258065,1.39032258064516,1.41612903225806,1.43225806451613,1.43225806451613,1.40967741935484,1.39032258064516,1.35483870967742,1.33548387096774,1.3,1.29032258064516,1.28709677419355,1.25483870967742,1.26451612903226,1.25161290322581,1.23548387096774,1.23548387096774,1.23225806451613,1.24193548387097,1.24193548387097,1.24516129032258,1.24838709677419,1.24838709677419,1.27096774193548,1.27096774193548,1.24516129032258,1.25161290322581,1.27096774193548,1.25806451612903,1.25483870967742,1.26129032258065,1.2741935483871,1.25806451612903,1.26451612903226,1.25161290322581,1.25806451612903,1.26129032258065,1.25806451612903,1.25161290322581,1.25806451612903,1.24838709677419,1.26451612903226,1.26451612903226,1.26451612903226,1.24838709677419,1.25161290322581,1.25806451612903,1.26451612903226,1.26774193548387,1.26129032258065,1.24193548387097,1.24516129032258,1.23225806451613,1.24516129032258,1.25161290322581,1.25483870967742,1.24838709677419,1.24838709677419,1.22903225806452,1.23870967741935,1.24193548387097,1.25483870967742,1.24838709677419,1.25806451612903,1.25161290322581,1.2741935483871,1.25161290322581,1.26451612903226,1.25806451612903,1.27096774193548,1.26451612903226,1.26774193548387,1.27741935483871,1.31612903225806,1.60322580645161,2.16451612903226,2.93548387096774,2.45483870967742,0.941935483870968,0.551612903225806,0.883870967741936,1.05483870967742,1.13548387096774,1.18064516129032,1.2,1.18709677419355,1.18387096774194,1.20322580645161,1.20967741935484,1.18387096774194,1.19354838709677,1.20322580645161,1.20645161290323,1.22903225806452,1.27096774193548,1.22258064516129,1.24838709677419,1.26451612903226,1.29354838709677,1.3,1.33548387096774,1.34838709677419,1.34516129032258,1.38064516129032,1.40322580645161,1.43870967741935,1.45161290322581,1.45806451612903,1.45161290322581,1.43870967741935,1.39677419354839,1.36774193548387,1.3258064516129,1.31935483870968,1.31612903225806,1.29677419354839,1.30322580645161,1.2741935483871,1.28709677419355,1.29354838709677,1.3,1.28387096774194,1.2741935483871,1.29354838709677,1.31290322580645,1.30645161290323,1.29677419354839,1.29677419354839,1.30645161290323,1.30967741935484,1.31290322580645,1.31612903225806,1.32258064516129,1.31290322580645,1.32258064516129,1.29354838709677,1.29677419354839,1.28709677419355,1.29677419354839,1.28709677419355,1.28387096774194,1.2741935483871,1.28387096774194,1.2741935483871,1.26451612903226,1.26774193548387,1.27741935483871,1.28387096774194,1.26129032258065,1.25483870967742,1.26129032258065,1.26129032258065,1.25161290322581,1.26129032258065,1.27741935483871,1.27096774193548,1.26774193548387,1.26129032258065,1.26774193548387,1.2741935483871,1.2741935483871,1.27741935483871,1.25806451612903,1.25483870967742,1.26451612903226,1.25161290322581,1.25806451612903,1.26129032258065,1.25483870967742,1.26129032258065,1.27096774193548,1.26451612903226,1.24838709677419,1.26451612903226,1.29032258064516,1.29354838709677,1.43870967741935,1.9258064516129,2.77096774193548,2.78064516129032,1.31935483870968,0.445161290322581,0.748387096774194,1.02903225806452,1.11935483870968,1.18387096774194,1.21612903225806,1.21935483870968,1.23548387096774,1.21935483870968,1.21612903225806,1.21612903225806,1.21612903225806,1.2,1.22258064516129,1.24516129032258,1.22258064516129,1.23548387096774,1.26129032258065,1.2741935483871,1.3,1.3,1.31935483870968,1.32903225806452,1.33870967741935,1.36129032258065,1.38387096774194,1.39677419354839,1.41935483870968,1.42258064516129,1.42258064516129,1.39354838709677,1.3741935483871,1.35806451612903,1.33548387096774,1.30645161290323,1.3,1.27741935483871,1.27741935483871,1.2741935483871,1.26774193548387,1.27096774193548,1.27741935483871,1.28387096774194,1.2741935483871,1.29354838709677,1.29677419354839,1.28709677419355,1.29032258064516,1.30967741935484,1.29677419354839,1.28387096774194,1.30645161290323,1.3,1.30967741935484,1.30645161290323,1.30322580645161,1.30645161290323,1.29677419354839,1.28709677419355,1.29354838709677,1.28709677419355,1.28709677419355,1.28709677419355,1.27741935483871,1.27096774193548,1.2741935483871,1.2741935483871,1.26451612903226,1.2741935483871,1.27741935483871,1.26774193548387,1.27741935483871,1.29032258064516,1.29032258064516,1.28064516129032,1.27096774193548,1.27096774193548,1.26774193548387,1.25483870967742,1.26451612903226,1.26774193548387,1.26129032258065,1.26451612903226,1.27741935483871,1.2741935483871,1.2741935483871,1.26451612903226,1.26774193548387,1.28064516129032,1.28064516129032,1.27096774193548,1.27096774193548,1.27096774193548,1.28064516129032,1.28709677419355,1.28064516129032,1.28387096774194,1.28709677419355,1.28064516129032,1.27741935483871,1.27741935483871,1.27096774193548,1.27741935483871,1.28387096774194,1.28064516129032,1.28064516129032,1.26451612903226,1.29032258064516,1.29032258064516,1.28709677419355,1.28064516129032,1.29354838709677,1.29032258064516,1.28387096774194,1.28064516129032,1.29032258064516,1.28709677419355,1.2741935483871,1.29354838709677,1.29677419354839,1.29354838709677,1.28387096774194,1.28064516129032,1.29354838709677,1.28709677419355,1.28709677419355,1.3,1.29354838709677,1.27741935483871,1.30322580645161,1.29677419354839,1.30645161290323,1.38064516129032,1.71935483870968,2.41612903225806,2.94838709677419,2.02258064516129,0.648387096774194,0.693548387096774,0.993548387096774,1.10645161290323,1.18064516129032,1.20322580645161,1.22258064516129,1.21612903225806,1.20322580645161,1.2,1.20967741935484,1.21290322580645,1.21290322580645,1.20967741935484,1.20967741935484,1.2258064516129,1.22903225806452,1.24516129032258,1.24838709677419,1.25806451612903,1.29354838709677,1.28709677419355,1.29677419354839,1.31290322580645,1.31290322580645,1.33548387096774,1.34838709677419,1.36774193548387,1.40322580645161,1.41290322580645,1.43225806451613,1.41612903225806,1.40322580645161,1.37741935483871,1.33548387096774,1.3258064516129,1.29677419354839,1.29354838709677,1.27096774193548,1.25483870967742,1.26129032258065,1.27096774193548,1.28387096774194,1.29032258064516,1.28064516129032,1.28387096774194,1.28387096774194,1.29677419354839,1.29354838709677,1.29032258064516,1.28709677419355,1.29677419354839,1.30645161290323,1.29032258064516,1.28387096774194,1.29354838709677,1.29032258064516,1.28064516129032,1.29677419354839,1.26774193548387,1.25806451612903,1.25806451612903,1.2741935483871,1.26774193548387,1.26129032258065,1.25161290322581,1.26129032258065,1.25483870967742,1.26451612903226,1.26451612903226,1.26451612903226,1.24838709677419,1.24838709677419,1.26451612903226,1.26129032258065,1.24193548387097,1.23870967741935,1.24193548387097,1.25161290322581,1.25483870967742,1.23870967741935,1.23548387096774,1.24516129032258,1.23870967741935,1.24516129032258,1.24193548387097,1.24516129032258,1.25161290322581,1.24193548387097,1.25483870967742,1.26129032258065,1.25161290322581,1.26451612903226,1.28387096774194,1.3258064516129,1.66129032258065,2.32903225806452,2.95161290322581,2.0741935483871,0.641935483870968,0.635483870967742,0.964516129032258,1.1,1.19032258064516,1.2258064516129,1.23225806451613,1.24193548387097,1.24516129032258,1.25161290322581,1.24838709677419,1.25161290322581,1.24838709677419,1.26129032258065,1.28064516129032,1.27741935483871,1.27741935483871,1.3,1.32903225806452
1.30967741935484,1.3,1.26774193548387,1.27741935483871,1.30645161290323,1.27096774193548,1.29032258064516,1.27741935483871,1.2741935483871,1.2741935483871,1.29032258064516,1.29032258064516,1.26129032258065,1.28709677419355,1.28709677419355,1.29354838709677,1.26129032258065,1.30322580645161,1.2741935483871,1.28064516129032,1.2741935483871,1.30645161290323,1.28387096774194,1.26774193548387,1.26129032258065,1.26451612903226,1.28064516129032,1.26774193548387,1.24193548387097,1.28387096774194,1.28709677419355,1.25806451612903,1.25483870967742,1.26129032258065,1.28064516129032,1.28387096774194,1.26451612903226,1.2741935483871,1.25483870967742,1.26129032258065,1.27741935483871,1.25161290322581,1.25161290322581,1.27096774193548,1.38709677419355,1.74838709677419,2.40322580645161,3.01290322580645,2.10967741935484,0.654838709677419,0.648387096774194,0.951612903225806,1.08387096774194,1.15806451612903,1.18709677419355,1.19032258064516,1.18064516129032,1.19032258064516,1.19032258064516,1.14838709677419,1.16451612903226,1.16129032258065,1.18387096774194,1.1741935483871,1.18709677419355,1.19677419354839,1.20645161290323,1.20645161290323,1.21290322580645,1.2258064516129,1.23225806451613,1.22903225806452,1.22903225806452,1.26129032258065,1.2741935483871,1.31290322580645,1.35161290322581,1.34838709677419,1.39354838709677,1.4258064516129,1.41935483870968,1.36774193548387,1.34193548387097,1.33870967741935,1.33225806451613,1.30967741935484,1.30645161290323,1.31612903225806,1.30322580645161,1.28064516129032,1.29677419354839,1.29677419354839,1.30967741935484,1.31612903225806,1.32903225806452,1.33225806451613,1.34838709677419,1.34838709677419,1.35161290322581,1.33225806451613,1.36451612903226,1.32903225806452,1.33225806451613,1.32258064516129,1.31290322580645,1.28709677419355,1.32258064516129,1.30645161290323,1.27741935483871,1.29354838709677,1.26129032258065,1.26451612903226,1.27096774193548,1.27741935483871,1.27096774193548,1.2741935483871,1.26774193548387,1.27096774193548,1.26451612903226,1.28709677419355,1.28064516129032,1.26129032258065,1.26129032258065,1.27096774193548,1.2741935483871,1.28064516129032,1.26129032258065,1.25483870967742,1.28387096774194,1.38709677419355,1.74516129032258,2.53225806451613,3.05483870967742,2.01935483870968,0.593548387096774,0.583870967741935,0.919354838709677,1.05161290322581,1.14516129032258,1.1741935483871,1.2,1.19677419354839,1.20322580645161,1.21290322580645,1.21612903225806,1.21935483870968,1.20967741935484,1.23225806451613,1.21612903225806,1.19677419354839,1.23870967741935,1.26129032258065,1.24838709677419,1.24193548387097,1.26774193548387,1.2741935483871,1.27741935483871,1.29032258064516,1.29677419354839,1.29032258064516,1.33870967741935,1.38064516129032,1.40322580645161,1.39032258064516,1.37741935483871,1.34516129032258,1.35161290322581,1.34193548387097,1.3,1.32903225806452,1.28387096774194,1.24193548387097,1.25161290322581,1.26774193548387,1.26129032258065,1.26774193548387,1.26451612903226,1.27741935483871,1.27741935483871,1.26129032258065,1.25483870967742,1.28709677419355,1.25161290322581,1.29354838709677,1.29354838709677,1.3,1.27741935483871,1.28064516129032,1.29677419354839,1.28064516129032,1.26774193548387,1.2741935483871,1.2741935483871,1.27096774193548,1.2741935483871,1.25806451612903,1.30322580645161,1.26774193548387,1.27096774193548,1.26451612903226,1.26774193548387,1.26774193548387,1.28387096774194,1.28709677419355,1.27096774193548,1.25161290322581,1.25806451612903,1.26129032258065,1.27096774193548,1.24838709677419,1.24838709677419,1.23870967741935,1.25483870967742,1.25806451612903,1.24193548387097,1.25483870967742,1.23225806451613,1.24516129032258,1.24516129032258,1.23548387096774,1.25161290322581,1.21612903225806,1.22903225806452,1.24193548387097,1.3,1.4,1.84516129032258,2.66129032258065,2.86774193548387,1.58387096774194,0.474193548387097,0.651612903225806,0.929032258064516,1.05161290322581,1.13548387096774,1.21612903225806,1.20322580645161,1.20322580645161,1.21290322580645,1.19032258064516,1.19032258064516,1.21290322580645,1.23225806451613,1.20967741935484,1.2,1.21935483870968,1.20967741935484,1.20645161290323,1.2258064516129,1.26451612903226,1.26451612903226,1.29354838709677,1.30645161290323,1.3,1.32258064516129,1.33870967741935,1.38387096774194,1.41935483870968,1.44193548387097,1.41290322580645,1.38709677419355,1.39032258064516,1.3741935483871,1.31935483870968,1.31612903225806,1.28709677419355,1.29354838709677,1.26774193548387,1.26774193548387,1.2741935483871,1.25483870967742,1.28387096774194,1.27096774193548,1.25483870967742,1.25806451612903,1.26774193548387,1.27741935483871,1.28709677419355,1.29677419354839,1.30322580645161,1.28709677419355,1.3,1.33870967741935,1.39677419354839,1.72258064516129,2.41290322580645,2.96451612903226,2.12258064516129,0.606451612903226,0.661290322580645,0.967741935483871,1.08387096774194,1.16451612903226,1.20967741935484,1.22258064516129,1.21290322580645,1.22903225806452,1.25161290322581,1.20967741935484,1.17741935483871,1.19354838709677,1.23225806451613,1.24516129032258,1.23870967741935,1.21935483870968,1.24838709677419,1.27741935483871,1.28709677419355,1.29354838709677,1.33225806451613,1.34838709677419,1.34838709677419,1.37096774193548,1.41612903225806,1.40967741935484,1.41290322580645,1.39354838709677,1.34838709677419,1.3258064516129,1.31612903225806,1.28709677419355,1.26451612903226,1.21612903225806,1.25483870967742,1.25161290322581,1.24193548387097,1.23225806451613,1.23225806451613,1.24838709677419,1.27096774193548,1.24193548387097,1.25161290322581,1.24838709677419,1.27741935483871,1.27741935483871,1.26774193548387,1.24516129032258,1.25161290322581,1.23870967741935,1.25806451612903,1.24838709677419,1.24193548387097,1.24516129032258,1.25483870967742,1.23548387096774,1.22903225806452,1.24193548387097,1.23225806451613,1.22903225806452,1.22903225806452,1.24193548387097,1.23548387096774,1.24516129032258,1.24838709677419,1.25161290322581,1.23225806451613,1.24838709677419,1.23870967741935,1.24516129032258,1.23225806451613,1.24516129032258,1.23548387096774,1.27096774193548,1.26129032258065,1.23548387096774,1.26451612903226,1.24516129032258,1.23870967741935,1.35161290322581,1.72903225806452,2.32258064516129,2.97096774193548,2.27741935483871,0.767741935483871,0.716129032258065,0.987096774193548,1.08064516129032,1.13225806451613,1.14516129032258,1.20645161290323,1.18387096774194,1.19032258064516,1.17096774193548,1.18064516129032,1.17741935483871,1.17096774193548,1.18387096774194,1.18387096774194,1.1741935483871,1.19677419354839,1.21290322580645,1.22903225806452,1.23225806451613,1.25806451612903,1.2741935483871,1.29677419354839,1.30967741935484,1.35483870967742,1.34193548387097,1.3741935483871,1.4258064516129,1.45806451612903,1.45161290322581,1.41290322580645,1.39032258064516,1.35161290322581,1.32903225806452,1.30645161290323,1.29677419354839,1.28387096774194,1.26451612903226,1.25483870967742,1.25806451612903,1.25806451612903,1.26451612903226,1.25806451612903,1.26774193548387,1.26451612903226,1.26451612903226,1.28709677419355,1.27741935483871,1.29677419354839,1.27741935483871,1.28709677419355,1.29677419354839,1.30322580645161,1.28387096774194,1.28709677419355,1.29354838709677,1.29354838709677,1.26451612903226,1.26774193548387,1.27096774193548,1.29354838709677,1.34193548387097,1.49677419354839,2,2.75483870967742,2.52903225806452,0.993548387096774,0.561290322580645,0.912903225806452,1.08709677419355,1.13548387096774,1.20645161290323,1.20645161290323,1.21290322580645,1.23225806451613,1.22903225806452,1.21290322580645,1.21290322580645,1.2,1.23548387096774,1.20645161290323,1.20967741935484,1.21935483870968,1.23548387096774,1.24838709677419,1.26774193548387,1.28709677419355,1.30322580645161,1.29354838709677,1.34838709677419,1.33225806451613,1.36774193548387,1.40967741935484,1.39677419354839,1.40967741935484,1.39032258064516,1.32903225806452,1.31612903225806,1.30967741935484,1.27741935483871,1.26774193548387,1.25806451612903,1.26451612903226,1.25161290322581,1.23548387096774,1.23225806451613,1.22258064516129,1.22903225806452,1.23870967741935,1.25483870967742,1.24516129032258,1.23870967741935,1.22258064516129,1.23225806451613,1.25483870967742,1.25806451612903,1.24193548387097,1.25483870967742,1.25161290322581,1.26129032258065,1.25161290322581,1.25806451612903,1.24516129032258,1.26774193548387,1.24838709677419,1.26451612903226,1.3258064516129,1.60967741935484,2.16451612903226,2.80645161290323,2.17096774193548,0.754838709677419,0.561290322580645,0.92258064516129,1.06451612903226,1.14838709677419,1.19354838709677,1.20967741935484,1.17741935483871,1.2,1.21612903225806,1.21935483870968,1.21612903225806,1.20967741935484,1.21612903225806,1.20967741935484,1.24516129032258,1.24516129032258,1.26129032258065,1.28064516129032,1.29032258064516,1.31290322580645,1.31935483870968,1.31612903225806,1.36774193548387,1.39032258064516,1.40967741935484,1.43870967741935,1.45483870967742,1.44193548387097,1.42903225806452,1.42258064516129,1.38709677419355,1.33225806451613,1.31935483870968,1.30322580645161,1.28709677419355,1.28709677419355,1.27096774193548,1.28709677419355,1.26129032258065,1.2741935483871,1.28709677419355,1.28064516129032,1.27741935483871,1.3,1.3,1.28709677419355,1.27741935483871,1.30322580645161,1.26451612903226,1.29354838709677,1.28709677419355,1.31612903225806,1.29354838709677,1.27741935483871,1.29032258064516,1.28709677419355,1.27741935483871,1.26774193548387,1.2741935483871,1.25483870967742,1.25806451612903,1.25806451612903,1.2741935483871,1.24516129032258,1.26129032258065,1.26451612903226,1.25161290322581,1.27096774193548,1.26774193548387,1.24838709677419,1.28064516129032,1.26774193548387,1.26129032258065,1.26129032258065,1.25806451612903,1.26451612903226,1.28709677419355,1.23225806451613,1.25483870967742,1.23870967741935,1.25483870967742,1.26129032258065,1.24516129032258,1.2258064516129,1.25161290322581,1.26451612903226,1.24193548387097,1.26774193548387,1.23225806451613,1.24516129032258,1.26774193548387,1.41612903225806,1.86774193548387,2.68387096774194,2.85806451612903,1.56774193548387,0.458064516129032,0.664516129032258,0.970967741935484,1.08064516129032,1.14193548387097,1.18709677419355,1.19032258064516,1.21612903225806,1.20967741935484,1.20967741935484,1.19032258064516,1.18709677419355,1.17741935483871,1.20322580645161,1.2,1.20645161290323,1.21290322580645,1.19677419354839,1.21935483870968,1.20967741935484,1.24838709677419,1.23225806451613,1.24838709677419,1.25806451612903,1.29032258064516,1.2741935483871,1.33225806451613,1.36129032258065,1.41290322580645,1.39032258064516,1.39677419354839,1.36129032258065,1.37741935483871,1.34193548387097,1.3258064516129,1.30645161290323,1.31290322580645,1.29032258064516,1.29677419354839,1.29354838709677,1.29677419354839,1.30322580645161,1.28387096774194,1.30645161290323,1.31290322580645,1.31935483870968,1.34193548387097,1.33548387096774,1.33870967741935,1.32258064516129,1.34516129032258,1.32903225806452,1.3258064516129,1.32258064516129,1.33870967741935,1.32903225806452,1.31612903225806,1.31290322580645,1.28709677419355,1.28387096774194,1.2741935483871,1.28064516129032,1.28709677419355,1.28709677419355,1.28387096774194,1.28064516129032,1.35161290322581,1.65806451612903,2.33225806451613,2.99677419354839,2.10967741935484,0.696774193548387,0.632258064516129,0.941935483870968,1.0741935483871,1.16129032258065,1.2258064516129,1.20967741935484,1.22258064516129,1.23548387096774,1.24193548387097,1.2,1.20967741935484,1.20645161290323,1.21935483870968,1.22903225806452,1.20967741935484,1.24193548387097,1.25806451612903,1.25806451612903,1.26451612903226,1.29032258064516,1.29677419354839,1.3258064516129,1.30645161290323,1.32903225806452,1.36451612903226,1.38064516129032,1.39354838709677,1.40322580645161,1.37096774193548,1.36129032258065,1.33225806451613,1.30645161290323,1.29677419354839,1.29032258064516,1.24193548387097,1.24516129032258,1.24516129032258,1.25161290322581,1.24516129032258,1.23225806451613,1.2258064516129,1.26129032258065,1.25483870967742,1.26451612903226,1.25161290322581,1.22903225806452,1.28387096774194,1.26774193548387,1.27741935483871,1.28064516129032,1.26774193548387,1.28387096774194,1.26774193548387,1.26129032258065,1.26451612903226,1.26451612903226,1.25483870967742,1.25806451612903,1.26451612903226,1.26129032258065,1.27096774193548,1.25483870967742,1.2741935483871,1.25161290322581,1.23225806451613,1.25806451612903,1.24516129032258,1.23548387096774,1.25483870967742,1.25161290322581,1.23225806451613,1.24516129032258,1.24193548387097,1.24193548387097,1.26129032258065,1.23548387096774,1.23548387096774,1.25483870967742,1.23225806451613,1.26129032258065,1.25161290322581,1.32903225806452,1.66129032258065,2.3,3.01612903225806,2.38709677419355,0.8,0.62258064516129,0.938709677419355,1.05483870967742,1.13548387096774,1.19677419354839,1.20645161290323,1.2,1.20322580645161,1.23225806451613,1.2,1.17741935483871,1.18709677419355,1.20322580645161,1.23225806451613,1.20645161290323,1.23225806451613,1.23870967741935,1.25806451612903,1.25483870967742,1.24516129032258,1.27741935483871,1.27096774193548,1.30322580645161,1.31612903225806,1.34838709677419,1.37741935483871,1.40645161290323,1.42903225806452,1.43548387096774,1.42258064516129,1.38709677419355,1.35161290322581,1.34193548387097,1.30967741935484,1.28387096774194,1.29032258064516,1.28709677419355,1.2741935483871,1.28387096774194,1.28064516129032,1.26451612903226,1.26129032258065,1.26129032258065,1.28387096774194,1.29354838709677,1.28064516129032,1.28387096774194,1.28387096774194,1.29032258064516,1.28387096774194,1.28387096774194,1.30967741935484,1.30322580645161,1.29032258064516,1.2741935483871,1.27096774193548,1.26451612903226,1.27741935483871,1.28064516129032,1.25483870967742,1.25483870967742,1.26129032258065,1.26774193548387,1.26774193548387,1.26129032258065,1.25483870967742,1.2741935483871,1.27096774193548,1.26129032258065,1.24193548387097,1.26451612903226,1.25483870967742,1.25161290322581,1.25483870967742,1.26129032258065,1.23870967741935,1.23225806451613,1.24193548387097,1.23225806451613,1.24838709677419,1.24516129032258,1.23870967741935,1.24838709677419,1.24516129032258,1.24838709677419,1.27096774193548,1.25806451612903,1.26129032258065,1.23870967741935,1.26774193548387,1.40322580645161,1.85806451612903,2.60322580645161,2.95806451612903,1.65161290322581,0.574193548387097,0.809677419354839,1.04516129032258,1.11290322580645,1.16774193548387,1.22258064516129,1.20645161290323,1.18387096774194,1.19677419354839,1.20322580645161,1.19677419354839,1.18064516129032,1.22903225806452,1.21290322580645,1.19032258064516,1.22903225806452,1.21935483870968,1.22903225806452,1.24193548387097,1.26129032258065,1.28709677419355,1.28387096774194,1.29677419354839,1.29354838709677,1.33225806451613,1.36774193548387,1.38709677419355,1.4,1.41290322580645,1.40645161290323,1.38387096774194,1.35806451612903,1.30645161290323,1.28387096774194,1.3,1.2741935483871,1.27096774193548,1.26129032258065,1.26129032258065,1.25806451612903,1.24516129032258,1.24193548387097,1.23870967741935,1.23548387096774,1.24838709677419,1.24516129032258,1.25806451612903,1.26774193548387,1.26129032258065,1.25161290322581,1.26129032258065,1.28064516129032,1.28064516129032,1.28387096774194,1.2741935483871,1.27741935483871,1.30322580645161,1.41290322580645,1.92258064516129,2.61612903225806,2.87741935483871,1.44838709677419,0.6,0.848387096774194,1.09677419354839,1.14193548387097,1.16774193548387,1.2258064516129,1.20645161290323,1.20967741935484,1.21935483870968,1.21290322580645,1.22258064516129,1.23548387096774,1.22903225806452,1.21612903225806,1.22258064516129,1.25806451612903,1.28064516129032,1.26451612903226,1.2741935483871,1.29677419354839,1.29032258064516,1.34838709677419,1.36451612903226,1.4,1.43225806451613,1.45806451612903,1.45161290322581,1.44838709677419,1.41935483870968,1.38064516129032,1.36451612903226,1.31290322580645,1.29677419354839,1.30645161290323,1.28387096774194,1.26129032258065,1.23870967741935,1.27096774193548,1.25806451612903,1.25161290322581,1.26129032258065,1.25161290322581,1.24193548387097,1.23548387096774,1.25806451612903,1.26774193548387,1.26129032258065,1.27096774193548,1.29032258064516,1.26451612903226,1.27096774193548,1.28709677419355,1.26774193548387,1.27741935483871,1.26451612903226,1.26774193548387,1.26451612903226,1.28064516129032,1.2741935483871,1.27741935483871,1.27741935483871,1.26129032258065,1.28387096774194,1.28387096774194,1.26129032258065,1.26451612903226,1.25806451612903,1.26774193548387,1.28387096774194,1.28387096774194,1.2741935483871,1.27741935483871,1.25806451612903,1.30322580645161,1.27741935483871,1.26129032258065,1.25483870967742,1.26129032258065,1.25806451612903,1.25483870967742,1.27741935483871,1.26774193548387,1.26451612903226,1.25806451612903,1.25483870967742,1.2741935483871,1.2741935483871,1.27096774193548,1.26451612903226,1.26774193548387,1.26774193548387,1.23870967741935,1.2741935483871,1.28709677419355,1.25806451612903,1.25806451612903,1.2741935483871,1.25483870967742,1.27096774193548,1.27096774193548,1.27741935483871,1.25483870967742,1.25483870967742,1.24193548387097,1.26129032258065,1.25161290322581,1.25483870967742,1.24838709677419,1.32258064516129,1.61290322580645,2.13548387096774,2.84838709677419,2.44193548387097,0.906451612903226,0.654838709677419,0.967741935483871,1.0741935483871,1.14516129032258,1.17096774193548,1.18709677419355,1.19354838709677,1.19354838709677,1.20645161290323,1.19354838709677,1.19677419354839,1.2,1.18387096774194,1.2,1.21290322580645,1.19677419354839,1.19677419354839,1.21935483870968,1.24193548387097,1.22903225806452,1.25161290322581,1.28064516129032,1.27741935483871,1.29354838709677,1.30322580645161,1.31935483870968,1.35806451612903,1.4,1.45161290322581,1.45806451612903,1.45161290322581,1.43225806451613,1.40645161290323,1.36129032258065,1.35161290322581,1.32903225806452,1.3,1.3,1.30322580645161,1.28064516129032,1.28387096774194,1.28709677419355,1.28387096774194,1.30322580645161,1.30967741935484,1.29677419354839,1.30645161290323,1.31612903225806,1.31935483870968,1.32903225806452,1.30967741935484,1.32903225806452,1.33225806451613,1.3258064516129,1.30967741935484,1.31935483870968,1.30322580645161,1.29354838709677,1.30322580645161,1.28387096774194,1.25483870967742,1.26774193548387,1.25806451612903,1.26129032258065,1.28064516129032,1.27096774193548,1.27741935483871,1.27741935483871,1.28709677419355,1.26774193548387,1.27096774193548,1.25161290322581,1.26451612903226,1.26129032258065,1.25161290322581,1.24193548387097,1.25483870967742,1.24838709677419,1.25483870967742,1.23870967741935,1.24516129032258,1.25806451612903,1.26774193548387,1.24516129032258,1.24516129032258,1.26129032258065,1.27741935483871,1.38064516129032,1.78387096774194,2.5,2.85806451612903,1.67096774193548,0.545161290322581,0.764516129032258,1.02903225806452,1.13548387096774,1.19677419354839,1.23225806451613,1.20322580645161,1.20645161290323,1.18709677419355,1.20645161290323,1.20645161290323,1.22903225806452,1.20322580645161,1.20645161290323,1.22258064516129,1.23225806451613,1.22903225806452,1.24838709677419,1.25806451612903,1.25806451612903,1.2741935483871,1.30967741935484,1.30967741935484,1.30967741935484,1.34193548387097,1.32258064516129,1.36451612903226,1.38387096774194,1.39354838709677,1.39032258064516,1.38387096774194,1.34516129032258,1.34193548387097,1.32258064516129,1.29032258064516,1.26451612903226,1.26774193548387,1.27741935483871,1.2741935483871,1.26129032258065,1.26774193548387,1.27096774193548,1.2741935483871,1.30322580645161,1.30967741935484,1.30645161290323,1.31290322580645,1.28709677419355,1.29032258064516,1.30322580645161,1.29032258064516,1.30967741935484,1.30645161290323,1.3,1.30967741935484,1.30967741935484,1.31290322580645,1.29354838709677,1.31935483870968,1.32258064516129,1.27096774193548,1.29032258064516,1.29354838709677,1.28387096774194,1.28709677419355,1.28064516129032,1.2741935483871,1.28709677419355,1.29354838709677,1.30967741935484,1.28709677419355,1.29354838709677,1.30645161290323,1.30645161290323,1.30645161290323,1.3,1.28709677419355,1.30645161290323,1.28064516129032,1.30967741935484,1.29677419354839,1.3,1.30322580645161,1.30967741935484,1.30322580645161,1.30322580645161,1.3,1.28709677419355,1.30967741935484,1.28709677419355,1.28387096774194,1.29032258064516,1.30967741935484,1.3,1.31290322580645,1.30322580645161,1.3258064516129,1.30645161290323,1.30645161290323,1.30967741935484,1.31612903225806,1.31290322580645,1.31935483870968,1.31935483870968,1.30322580645161,1.30967741935484,1.29354838709677,1.29677419354839,1.29677419354839,1.31290322580645,1.28709677419355,1.28387096774194,1.30322580645161,1.3,1.29677419354839,1.31935483870968,1.29032258064516,1.28387096774194,1.29354838709677,1.29032258064516,1.28387096774194,1.28709677419355,1.3,1.29032258064516,1.29354838709677,1.30322580645161,1.38064516129032
1.28387096774194,1.28709677419355,1.28064516129032,1.29032258064516,1.27741935483871,1.28387096774194,1.26129032258065,1.29677419354839,1.2741935483871,1.26129032258065,1.29032258064516,1.30322580645161,1.28064516129032,1.30967741935484,1.23870967741935,1.25161290322581,1.28387096774194,1.25806451612903,1.25483870967742,1.26774193548387,1.2741935483871,1.26451612903226,1.2741935483871,1.27741935483871,1.28064516129032,1.28387096774194,1.2741935483871,1.28064516129032,1.2741935483871,1.28064516129032,1.28064516129032,1.26129032258065,1.27096774193548,1.26451612903226,1.26774193548387,1.28064516129032,1.30322580645161,1.25483870967742,1.2741935483871,1.2741935483871,1.27096774193548,1.28064516129032,1.31935483870968,1.46774193548387,1.96774193548387,2.78064516129032,2.7,1.22258064516129,0.470967741935484,0.764516129032258,1.03870967741935,1.14193548387097,1.19677419354839,1.21935483870968,1.24516129032258,1.22258064516129,1.21935483870968,1.22903225806452,1.2258064516129,1.23225806451613,1.2258064516129,1.2258064516129,1.24838709677419,1.24838709677419,1.25806451612903,1.2741935483871,1.29032258064516,1.3,1.30967741935484,1.32258064516129,1.32903225806452,1.34838709677419,1.36129032258065,1.37096774193548,1.37741935483871,1.39354838709677,1.41612903225806,1.42258064516129,1.41612903225806,1.3741935483871,1.36451612903226,1.35161290322581,1.33548387096774,1.29354838709677,1.28709677419355,1.26451612903226,1.27741935483871,1.27741935483871,1.28064516129032,1.28064516129032,1.27741935483871,1.28387096774194,1.29354838709677,1.27741935483871,1.28709677419355,1.29354838709677,1.28064516129032,1.2741935483871,1.29354838709677,1.29354838709677,1.30967741935484,1.30645161290323,1.28387096774194,1.28064516129032,1.28387096774194,1.29354838709677,1.28709677419355,1.27096774193548,1.27741935483871,1.27741935483871,1.28709677419355,1.27741935483871,1.26451612903226,1.26774193548387,1.25483870967742,1.26129032258065,1.25806451612903,1.25483870967742,1.25483870967742,1.24516129032258,1.26129032258065,1.24516129032258,1.25483870967742,1.23870967741935,1.25806451612903,1.24838709677419,1.25483870967742,1.25806451612903,1.27096774193548,1.26129032258065,1.25161290322581,1.26451612903226,1.24838709677419,1.26129032258065,1.25483870967742,1.23870967741935,1.25161290322581,1.25161290322581,1.25483870967742,1.27741935483871,1.40967741935484,1.85161290322581,2.66774193548387,2.83225806451613,1.49032258064516,0.42258064516129,0.667741935483871,0.996774193548387,1.10322580645161,1.18387096774194,1.20645161290323,1.2258064516129,1.23870967741935,1.20645161290323,1.20322580645161,1.22903225806452,1.23548387096774,1.22258064516129,1.20967741935484,1.24193548387097,1.24193548387097,1.26129032258065,1.29032258064516,1.30645161290323,1.30645161290323,1.30645161290323,1.29677419354839,1.31290322580645,1.34838709677419,1.36129032258065,1.36774193548387,1.39677419354839,1.44193548387097,1.41935483870968,1.40645161290323,1.38387096774194,1.3741935483871,1.34838709677419,1.31612903225806,1.29354838709677,1.29032258064516,1.28709677419355,1.28387096774194,1.28709677419355,1.28709677419355,1.25806451612903,1.26774193548387,1.26774193548387,1.28064516129032,1.28387096774194,1.28709677419355,1.27096774193548,1.28387096774194,1.3,1.30967741935484,1.29677419354839,1.27741935483871,1.28387096774194,1.3,1.29677419354839,1.28709677419355,1.3,1.30322580645161,1.30967741935484,1.32258064516129,1.27096774193548,1.27741935483871,1.25161290322581,1.26451612903226,1.25806451612903,1.25483870967742,1.26129032258065,1.25161290322581,1.25806451612903,1.25161290322581,1.26129032258065,1.25806451612903,1.26129032258065,1.25483870967742,1.24516129032258,1.26774193548387,1.25806451612903,1.23870967741935,1.25483870967742,1.26774193548387,1.25483870967742,1.24516129032258,1.24838709677419,1.25483870967742,1.24193548387097,1.24193548387097,1.25806451612903,1.27741935483871,1.25161290322581,1.26774193548387,1.36774193548387,1.79032258064516,2.61612903225806,2.85161290322581,1.53548387096774,0.412903225806452,0.619354838709677,0.970967741935484,1.1,1.16774193548387,1.20645161290323,1.21935483870968,1.21612903225806,1.19354838709677,1.2,1.21290322580645,1.22903225806452,1.21935483870968,1.22258064516129,1.21290322580645,1.23870967741935,1.25483870967742,1.25483870967742,1.25806451612903,1.29032258064516,1.31935483870968,1.32903225806452,1.31290322580645,1.34838709677419,1.37741935483871,1.40322580645161,1.41935483870968,1.42903225806452,1.43548387096774,1.41612903225806,1.40645161290323,1.38387096774194,1.33548387096774,1.30322580645161,1.3,1.29032258064516,1.28064516129032,1.27096774193548,1.25483870967742,1.26451612903226,1.27096774193548,1.24838709677419,1.27096774193548,1.27741935483871,1.2741935483871,1.26451612903226,1.28709677419355,1.29354838709677,1.30645161290323,1.3,1.29354838709677,1.28387096774194,1.30967741935484,1.30645161290323,1.29032258064516,1.3,1.27741935483871,1.26451612903226,1.2741935483871,1.28709677419355,1.2741935483871,1.26129032258065,1.26774193548387,1.27096774193548,1.2741935483871,1.27096774193548,1.25483870967742,1.25483870967742,1.25806451612903,1.27096774193548,1.26451612903226,1.25806451612903,1.26129032258065,1.28064516129032,1.24838709677419,1.25161290322581,1.24838709677419,1.24516129032258,1.24838709677419,1.25806451612903,1.25806451612903,1.29677419354839,1.55161290322581,2.11290322580645,2.96451612903226,2.59354838709677,0.990322580645161,0.509677419354839,0.887096774193548,1.10322580645161,1.18709677419355,1.1741935483871,1.2,1.20322580645161,1.22903225806452,1.23225806451613,1.21290322580645,1.21290322580645,1.22903225806452,1.22903225806452,1.23225806451613,1.23548387096774,1.2258064516129,1.25806451612903,1.28387096774194,1.27741935483871,1.28387096774194,1.31935483870968,1.33225806451613,1.34193548387097,1.37741935483871,1.37096774193548,1.43548387096774,1.43870967741935,1.44193548387097,1.44516129032258,1.40645161290323,1.3741935483871,1.33548387096774,1.30967741935484,1.29032258064516,1.28064516129032,1.26774193548387,1.26129032258065,1.26451612903226,1.29032258064516,1.2741935483871,1.26451612903226,1.27741935483871,1.24516129032258,1.26774193548387,1.27096774193548,1.28709677419355,1.28387096774194,1.27741935483871,1.26774193548387,1.29354838709677,1.29032258064516,1.28064516129032,1.28064516129032,1.28064516129032,1.26774193548387,1.26129032258065,1.28064516129032,1.28064516129032,1.27741935483871,1.28709677419355,1.28387096774194,1.27096774193548,1.2741935483871,1.24838709677419,1.24838709677419,1.25806451612903,1.25806451612903,1.26451612903226,1.26129032258065,1.25806451612903,1.25483870967742,1.24193548387097,1.24516129032258,1.23548387096774,1.28064516129032,1.24838709677419,1.25483870967742,1.24516129032258,1.23870967741935,1.26129032258065,1.25806451612903,1.25806451612903,1.25483870967742,1.25161290322581,1.27096774193548,1.25161290322581,1.24838709677419,1.25161290322581,1.25161290322581,1.25483870967742,1.24193548387097,1.24193548387097,1.24516129032258,1.26129032258065,1.25483870967742,1.25161290322581,1.26451612903226,1.36451612903226,1.8,2.53225806451613,2.90645161290323,1.75806451612903,0.483870967741935,0.651612903225806,0.980645161290323,1.08709677419355,1.15161290322581,1.2,1.18064516129032,1.20645161290323,1.19032258064516,1.19677419354839,1.19032258064516,1.2,1.20645161290323,1.22258064516129,1.20967741935484,1.21612903225806,1.23870967741935,1.25483870967742,1.26451612903226,1.2741935483871,1.29354838709677,1.32258064516129,1.34193548387097,1.33870967741935,1.34838709677419,1.3741935483871,1.39677419354839,1.42258064516129,1.44193548387097,1.43225806451613,1.41612903225806,1.38387096774194,1.35161290322581,1.32903225806452,1.31290322580645,1.29032258064516,1.2741935483871,1.28709677419355,1.29032258064516,1.28709677419355,1.2741935483871,1.26774193548387,1.28387096774194,1.27741935483871,1.26774193548387,1.27096774193548,1.28064516129032,1.28709677419355,1.26774193548387,1.2741935483871,1.29032258064516,1.27741935483871,1.28064516129032,1.28387096774194,1.27096774193548,1.28064516129032,1.28387096774194,1.30967741935484,1.27741935483871,1.28709677419355,1.28064516129032,1.29032258064516,1.28709677419355,1.27741935483871,1.28064516129032,1.27096774193548,1.27096774193548,1.29032258064516,1.25483870967742,1.27096774193548,1.37741935483871,1.79032258064516,2.54193548387097,2.8258064516129,1.56451612903226,0.5,0.748387096774194,1.03870967741935,1.13548387096774,1.17096774193548,1.21290322580645,1.21935483870968,1.2,1.19677419354839,1.22258064516129,1.21290322580645,1.27096774193548,1.20322580645161,1.23870967741935,1.23870967741935,1.19677419354839,1.20967741935484,1.23225806451613,1.23548387096774,1.28064516129032,1.30967741935484,1.33225806451613,1.35483870967742,1.36774193548387,1.39032258064516,1.42258064516129,1.43548387096774,1.44193548387097,1.43870967741935,1.40645161290323,1.37741935483871,1.35161290322581,1.30967741935484,1.31612903225806,1.2741935483871,1.29032258064516,1.2741935483871,1.21935483870968,1.23548387096774,1.25483870967742,1.27096774193548,1.26451612903226,1.24838709677419,1.25483870967742,1.25483870967742,1.25806451612903,1.25806451612903,1.26129032258065,1.26451612903226,1.28064516129032,1.26774193548387,1.2741935483871,1.27096774193548,1.28387096774194,1.29032258064516,1.26774193548387,1.29354838709677,1.26451612903226,1.27096774193548,1.29354838709677,1.28387096774194,1.26774193548387,1.25161290322581,1.26129032258065,1.24193548387097,1.24838709677419,1.21612903225806,1.25161290322581,1.25806451612903,1.24516129032258,1.25161290322581,1.25161290322581,1.25161290322581,1.24193548387097,1.2741935483871,1.22903225806452,1.24516129032258,1.25161290322581,1.25161290322581,1.27096774193548,1.27096774193548,1.2741935483871,1.27096774193548,1.27741935483871,1.25161290322581,1.2741935483871,1.26774193548387,1.28064516129032,1.26129032258065,1.26129032258065,1.25161290322581,1.24516129032258,1.28064516129032,1.36774193548387,1.81612903225806,2.59032258064516,2.89354838709677,1.68709677419355,0.458064516129032,0.658064516129032,1,1.09677419354839,1.16129032258065,1.2,1.20967741935484,1.2258064516129,1.20645161290323,1.21290322580645,1.22903225806452,1.22258064516129,1.23548387096774,1.22903225806452,1.23870967741935,1.25161290322581,1.27096774193548,1.26129032258065,1.25161290322581,1.29032258064516,1.30967741935484,1.32903225806452,1.33225806451613,1.36451612903226,1.38709677419355,1.39032258064516,1.43870967741935,1.46129032258065,1.46129032258065,1.4741935483871,1.45161290322581,1.43870967741935,1.36774193548387,1.33225806451613,1.33548387096774,1.31612903225806,1.30645161290323,1.28709677419355,1.27096774193548,1.29354838709677,1.30645161290323,1.27741935483871,1.2741935483871,1.28387096774194,1.29677419354839,1.32258064516129,1.29032258064516,1.30645161290323,1.28064516129032,1.28709677419355,1.30967741935484,1.30645161290323,1.29677419354839,1.30645161290323,1.30322580645161,1.31612903225806,1.3,1.33870967741935,1.28064516129032,1.27741935483871,1.27096774193548,1.29677419354839,1.3,1.28709677419355,1.30322580645161,1.2741935483871,1.27096774193548,1.27741935483871,1.2741935483871,1.26451612903226,1.26774193548387,1.28387096774194,1.25806451612903,1.25806451612903,1.25483870967742,1.25483870967742,1.25806451612903,1.24516129032258,1.24838709677419,1.24838709677419,1.25806451612903,1.25161290322581,1.28387096774194,1.26451612903226,1.25483870967742,1.26774193548387,1.25161290322581,1.25806451612903,1.28064516129032,1.24193548387097,1.23225806451613,1.24516129032258,1.25161290322581,1.26129032258065,1.24838709677419,1.23548387096774,1.25161290322581,1.25483870967742,1.24516129032258,1.27096774193548,1.26774193548387,1.25806451612903,1.28064516129032,1.30967741935484,1.5258064516129,2.0741935483871,2.89032258064516,2.55483870967742,1.05483870967742,0.438709677419355,0.787096774193548,1.02258064516129,1.12903225806452,1.2,1.18064516129032,1.19032258064516,1.21290322580645,1.19032258064516,1.19677419354839,1.19677419354839,1.21290322580645,1.20967741935484,1.21935483870968,1.21935483870968,1.22903225806452,1.24516129032258,1.25806451612903,1.25806451612903,1.27741935483871,1.3,1.28387096774194,1.30322580645161,1.33870967741935,1.33225806451613,1.33548387096774,1.35806451612903,1.39354838709677,1.41612903225806,1.39354838709677,1.38064516129032,1.35806451612903,1.32903225806452,1.3258064516129,1.30967741935484,1.3,1.27096774193548,1.26774193548387,1.26774193548387,1.28387096774194,1.25806451612903,1.25483870967742,1.28064516129032,1.28064516129032,1.28064516129032,1.28387096774194,1.28064516129032,1.29032258064516,1.29354838709677,1.30645161290323,1.31612903225806,1.28387096774194,1.29677419354839,1.29032258064516,1.27741935483871,1.30645161290323,1.3,1.30645161290323,1.27096774193548,1.2741935483871,1.28064516129032,1.27741935483871,1.28064516129032,1.28387096774194,1.28064516129032,1.28387096774194,1.27741935483871,1.28387096774194,1.2741935483871,1.28064516129032,1.29677419354839,1.26774193548387,1.25806451612903,1.25806451612903,1.27096774193548,1.26451612903226,1.26129032258065,1.26451612903226,1.26451612903226,1.26451612903226,1.26451612903226,1.2741935483871,1.26129032258065,1.25806451612903,1.25483870967742,1.25806451612903,1.28064516129032,1.2741935483871,1.27741935483871,1.33225806451613,1.58387096774194,2.17741935483871,2.97741935483871,2.49677419354839,0.951612903225806,0.551612903225806,0.929032258064516,1.09354838709677,1.14838709677419,1.19032258064516,1.22903225806452,1.21290322580645,1.2258064516129,1.21290322580645,1.20322580645161,1.21612903225806,1.23548387096774,1.22258064516129,1.23225806451613,1.24193548387097,1.24838709677419,1.27096774193548,1.28064516129032,1.28064516129032,1.3,1.31935483870968,1.36129032258065,1.34838709677419,1.36129032258065,1.38387096774194,1.4,1.42903225806452,1.46129032258065,1.43548387096774,1.39677419354839,1.3741935483871,1.33870967741935,1.31935483870968,1.29354838709677,1.29032258064516,1.28064516129032,1.27741935483871,1.28064516129032,1.26451612903226,1.26774193548387,1.26129032258065,1.27741935483871,1.26774193548387,1.27741935483871,1.27741935483871,1.28709677419355,1.28709677419355,1.28387096774194,1.28709677419355,1.3,1.30322580645161,1.30645161290323,1.3,1.30967741935484,1.33225806451613,1.31612903225806,1.29677419354839,1.33225806451613,1.29354838709677,1.25806451612903,1.26129032258065,1.28064516129032,1.26129032258065,1.26774193548387,1.26451612903226,1.26451612903226,1.27096774193548,1.2741935483871,1.26774193548387,1.26451612903226,1.26774193548387,1.27096774193548,1.26774193548387,1.27741935483871,1.30322580645161,1.28387096774194,1.25161290322581,1.23225806451613,1.24193548387097,1.26451612903226,1.27096774193548,1.27096774193548,1.25806451612903,1.27096774193548,1.25483870967742,1.27096774193548,1.28709677419355,1.27741935483871,1.25161290322581,1.25483870967742,1.26129032258065,1.26129032258065,1.26774193548387,1.27741935483871,1.29354838709677,1.26451612903226,1.24193548387097,1.2741935483871,1.25806451612903,1.27096774193548,1.26774193548387,1.26774193548387,1.27096774193548,1.25806451612903,1.25806451612903,1.26774193548387,1.27741935483871,1.2741935483871,1.28064516129032,1.27741935483871,1.25161290322581,1.25806451612903,1.29677419354839,1.3,1.25483870967742,1.23870967741935,1.24516129032258,1.26129032258065,1.26451612903226,1.28064516129032,1.27096774193548,1.28387096774194,1.27096774193548,1.24516129032258,1.26129032258065,1.28387096774194,1.27741935483871,1.35483870967742,1.69677419354839,2.38387096774194,3.00645161290323,2.15483870967742,0.7,0.661290322580645,0.987096774193548,1.10322580645161,1.14838709677419,1.19354838709677,1.20645161290323,1.2,1.2258064516129,1.20645161290323,1.19032258064516,1.2,1.19677419354839,1.19354838709677,1.22258064516129,1.2258064516129,1.21612903225806,1.2258064516129,1.24838709677419,1.2741935483871,1.29354838709677,1.29032258064516,1.31290322580645,1.30645161290323,1.36129032258065,1.34193548387097,1.38709677419355,1.41290322580645,1.41935483870968,1.46129032258065,1.46129032258065,1.41935483870968,1.37096774193548,1.36774193548387,1.35161290322581,1.31612903225806,1.27096774193548,1.27096774193548,1.27741935483871,1.27741935483871,1.27096774193548,1.26129032258065,1.25806451612903,1.27741935483871,1.27741935483871,1.2741935483871,1.28709677419355,1.30645161290323,1.30645161290323,1.29032258064516,1.29677419354839,1.28387096774194,1.31290322580645,1.31612903225806,1.3,1.28709677419355,1.29677419354839,1.30967741935484,1.30645161290323,1.30967741935484,1.30322580645161,1.30322580645161,1.31935483870968,1.29354838709677,1.2741935483871,1.26451612903226,1.28064516129032,1.28064516129032,1.25806451612903,1.26129032258065,1.25806451612903,1.26129032258065,1.25161290322581,1.23870967741935,1.24193548387097,1.26451612903226,1.25161290322581,1.24193548387097,1.24516129032258,1.24516129032258,1.23225806451613,1.24838709677419,1.27096774193548,1.38064516129032,1.8,2.58709677419355,2.98387096774194,1.73548387096774,0.512903225806452,0.709677419354839,1.02258064516129,1.11290322580645,1.17096774193548,1.22258064516129,1.20967741935484,1.20967741935484,1.20322580645161,1.21935483870968,1.20967741935484,1.2,1.20645161290323,1.2,1.23548387096774,1.23548387096774,1.22903225806452,1.24193548387097,1.26129032258065,1.28387096774194,1.30967741935484,1.32903225806452,1.31935483870968,1.36451612903226,1.36451612903226,1.40645161290323,1.42258064516129,1.44516129032258,1.4258064516129,1.41290322580645,1.4,1.33225806451613,1.31612903225806,1.30967741935484,1.28709677419355,1.25806451612903,1.2741935483871,1.25806451612903,1.22903225806452,1.23548387096774,1.23548387096774,1.22258064516129,1.23225806451613,1.21935483870968,1.22903225806452,1.23548387096774,1.23870967741935,1.23870967741935,1.25161290322581,1.25161290322581,1.24516129032258,1.24838709677419,1.24193548387097,1.24838709677419,1.2741935483871,1.25161290322581,1.24838709677419,1.25483870967742,1.26451612903226,1.25483870967742,1.25161290322581,1.25806451612903,1.25161290322581,1.26774193548387,1.25483870967742,1.25483870967742,1.24838709677419,1.26451612903226,1.26451612903226,1.23225806451613,1.24516129032258,1.24838709677419,1.23870967741935,1.24516129032258,1.24193548387097,1.25483870967742,1.26451612903226,1.24516129032258,1.24516129032258,1.23870967741935,1.24838709677419,1.26129032258065,1.24838709677419,1.23548387096774,1.24516129032258,1.26451612903226,1.26129032258065,1.2741935483871,1.39677419354839,1.75806451612903,2.51935483870968,2.96451612903226,1.81612903225806,0.503225806451613,0.616129032258064,0.935483870967742,1.06774193548387,1.16129032258065,1.19677419354839,1.20967741935484,1.19354838709677,1.21612903225806,1.21290322580645,1.20967741935484,1.21612903225806,1.23225806451613,1.23225806451613,1.24193548387097,1.26129032258065,1.25806451612903,1.28387096774194,1.3,1.31612903225806,1.31612903225806,1.34838709677419,1.36451612903226,1.3741935483871,1.40322580645161,1.40645161290323,1.43548387096774,1.45161290322581,1.47096774193548,1.45483870967742,1.42258064516129,1.39677419354839,1.38064516129032,1.35161290322581,1.32903225806452,1.33548387096774,1.32258064516129,1.29354838709677,1.28387096774194,1.29032258064516,1.30322580645161,1.29032258064516,1.32258064516129,1.29354838709677,1.3,1.29677419354839,1.31290322580645,1.30322580645161,1.30322580645161,1.30967741935484,1.31612903225806,1.31290322580645,1.3258064516129,1.30645161290323,1.32903225806452,1.3,1.30322580645161,1.30645161290323,1.30645161290323,1.3258064516129,1.30322580645161,1.31612903225806,1.30322580645161,1.30645161290323,1.30645161290323,1.29677419354839,1.27741935483871,1.29032258064516,1.29677419354839,1.30645161290323,1.28064516129032,1.29354838709677,1.28387096774194,1.27096774193548,1.28709677419355,1.27741935483871,1.27096774193548,1.2741935483871,1.2741935483871,1.27741935483871,1.26774193548387,1.29354838709677,1.27096774193548,1.26774193548387,1.26774193548387,1.2741935483871,1.27096774193548,1.2741935483871,1.28387096774194,1.26774193548387,1.27096774193548,1.28387096774194,1.2741935483871,1.2741935483871,1.26774193548387,1.27741935483871,1.25806451612903,1.26451612903226,1.28387096774194,1.26451612903226,1.25483870967742,1.25483870967742,1.25806451612903,1.26774193548387,1.24193548387097,1.25806451612903,1.25806451612903,1.24838709677419,1.25161290322581,1.24516129032258,1.24193548387097,1.24193548387097,1.23225806451613,1.23548387096774,1.23225806451613,1.23548387096774,1.23225806451613,1.24193548387097,1.2258064516129,1.23870967741935,1.3,1.61290322580645,2.26774193548387,2.97096774193548,2.19032258064516,0.693548387096774,0.516129032258065,0.848387096774194,1.00645161290323,1.0741935483871,1.13870967741935
1.27741935483871,1.28387096774194,1.28064516129032,1.28387096774194,1.27741935483871,1.28387096774194,1.26774193548387,1.27096774193548,1.26774193548387,1.26451612903226,1.26451612903226,1.26774193548387,1.26129032258065,1.26774193548387,1.26451612903226,1.26774193548387,1.26451612903226,1.26451612903226,1.26774193548387,1.31935483870968,1.63225806451613,2.27741935483871,2.94838709677419,2.16129032258065,0.725806451612903,0.680645161290323,0.996774193548387,1.10645161290323,1.16129032258065,1.2,1.20322580645161,1.19354838709677,1.19677419354839,1.2,1.2,1.20322580645161,1.20322580645161,1.20645161290323,1.23548387096774,1.23870967741935,1.24516129032258,1.24838709677419,1.26451612903226,1.2741935483871,1.29354838709677,1.30967741935484,1.3258064516129,1.34516129032258,1.35161290322581,1.36774193548387,1.38709677419355,1.40645161290323,1.40967741935484,1.38709677419355,1.35483870967742,1.3258064516129,1.31612903225806,1.29677419354839,1.28064516129032,1.27096774193548,1.26129032258065,1.26129032258065,1.24838709677419,1.25161290322581,1.24516129032258,1.24516129032258,1.24516129032258,1.24516129032258,1.24838709677419,1.25483870967742,1.25161290322581,1.25483870967742,1.25483870967742,1.25161290322581,1.25483870967742,1.26451612903226,1.26451612903226,1.26774193548387,1.27096774193548,1.27096774193548,1.2741935483871,1.26451612903226,1.2741935483871,1.2741935483871,1.27096774193548,1.26451612903226,1.26451612903226,1.25806451612903,1.25806451612903,1.24838709677419,1.24516129032258,1.24838709677419,1.25483870967742,1.25161290322581,1.25806451612903,1.25806451612903,1.25161290322581,1.25483870967742,1.25483870967742,1.26129032258065,1.27096774193548,1.30645161290323,1.56774193548387,2.12258064516129,2.95806451612903,2.6,1.03225806451613,0.587096774193548,0.925806451612903,1.09032258064516,1.15483870967742,1.19354838709677,1.19677419354839,1.2,1.2,1.2,1.20322580645161,1.2,1.20322580645161,1.20645161290323,1.20967741935484,1.22258064516129,1.23225806451613,1.24193548387097,1.26129032258065,1.27096774193548,1.28709677419355,1.3,1.31290322580645,1.3258064516129,1.34838709677419,1.36774193548387,1.38064516129032,1.40322580645161,1.42258064516129,1.41935483870968,1.4,1.3741935483871,1.34516129032258,1.31612903225806,1.3,1.28709677419355,1.27741935483871,1.27096774193548,1.27096774193548,1.27096774193548,1.26451612903226,1.26129032258065,1.26774193548387,1.26774193548387,1.26774193548387,1.26774193548387,1.26774193548387,1.27741935483871,1.28709677419355,1.29677419354839,1.28709677419355,1.28387096774194,1.28064516129032,1.28709677419355,1.29354838709677,1.29032258064516,1.29032258064516,1.29032258064516,1.28709677419355,1.28709677419355,1.28064516129032,1.27741935483871,1.2741935483871,1.27096774193548,1.27096774193548,1.26774193548387,1.27741935483871,1.28064516129032,1.27741935483871,1.26774193548387,1.26774193548387,1.2741935483871,1.2741935483871,1.27096774193548,1.26774193548387,1.27096774193548,1.26451612903226,1.26451612903226,1.26451612903226,1.26129032258065,1.26451612903226,1.26129032258065,1.25806451612903,1.25161290322581,1.24838709677419,1.26129032258065,1.26129032258065,1.26129032258065,1.26451612903226,1.26129032258065,1.26774193548387,1.26774193548387,1.25806451612903,1.26129032258065,1.26129032258065,1.26129032258065,1.26451612903226,1.2741935483871,1.29354838709677,1.44516129032258,1.95161290322581,2.80967741935484,2.79677419354839,1.32258064516129,0.483870967741935,0.783870967741935,1.04838709677419,1.13870967741935,1.19354838709677,1.22258064516129,1.21935483870968,1.21290322580645,1.21290322580645,1.21612903225806,1.21612903225806,1.21612903225806,1.21935483870968,1.21935483870968,1.22258064516129,1.22258064516129,1.22903225806452,1.22903225806452,1.24516129032258,1.27096774193548,1.28387096774194,1.29032258064516,1.30967741935484,1.31935483870968,1.33225806451613,1.34838709677419,1.3741935483871,1.40322580645161,1.4258064516129,1.41612903225806,1.40645161290323,1.37741935483871,1.36451612903226,1.33548387096774,1.31290322580645,1.29354838709677,1.28064516129032,1.28387096774194,1.29354838709677,1.28387096774194,1.27741935483871,1.28709677419355,1.29354838709677,1.3,1.29354838709677,1.29354838709677,1.29677419354839,1.30322580645161,1.31290322580645,1.31612903225806,1.31290322580645,1.32258064516129,1.32258064516129,1.31612903225806,1.30967741935484,1.30967741935484,1.30967741935484,1.30967741935484,1.30967741935484,1.30322580645161,1.3,1.3,1.29354838709677,1.29354838709677,1.28064516129032,1.28064516129032,1.28709677419355,1.28064516129032,1.27741935483871,1.27096774193548,1.27096774193548,1.27096774193548,1.26129032258065,1.26451612903226,1.28064516129032,1.28387096774194,1.28064516129032,1.27096774193548,1.26774193548387,1.2741935483871,1.27096774193548,1.26129032258065,1.26774193548387,1.26774193548387,1.26129032258065,1.26451612903226,1.26129032258065,1.26451612903226,1.26129032258065,1.26451612903226,1.2741935483871,1.26451612903226,1.25806451612903,1.27096774193548,1.28064516129032,1.26774193548387,1.26451612903226,1.26451612903226,1.26129032258065,1.26129032258065,1.27096774193548,1.31612903225806,1.60322580645161,2.19677419354839,2.96774193548387,2.32903225806452,0.848387096774194,0.506451612903226,0.870967741935484,1.06451612903226,1.14838709677419,1.2,1.21612903225806,1.20322580645161,1.20645161290323,1.20967741935484,1.21290322580645,1.21290322580645,1.21612903225806,1.21935483870968,1.22258064516129,1.2258064516129,1.23870967741935,1.24193548387097,1.25483870967742,1.26774193548387,1.27741935483871,1.29677419354839,1.29354838709677,1.29354838709677,1.29354838709677,1.30967741935484,1.32903225806452,1.35806451612903,1.37741935483871,1.38709677419355,1.38709677419355,1.37741935483871,1.35483870967742,1.32903225806452,1.30967741935484,1.29354838709677,1.28064516129032,1.27741935483871,1.27096774193548,1.26774193548387,1.25806451612903,1.26451612903226,1.26774193548387,1.2741935483871,1.28064516129032,1.28709677419355,1.29354838709677,1.29032258064516,1.29032258064516,1.3,1.3,1.30322580645161,1.30322580645161,1.30322580645161,1.30322580645161,1.28387096774194,1.28387096774194,1.28064516129032,1.28064516129032,1.27741935483871,1.27096774193548,1.27096774193548,1.28064516129032,1.27096774193548,1.27096774193548,1.2741935483871,1.26774193548387,1.26451612903226,1.26774193548387,1.2741935483871,1.26451612903226,1.25483870967742,1.26774193548387,1.25806451612903,1.26129032258065,1.25806451612903,1.25806451612903,1.26774193548387,1.26451612903226,1.26774193548387,1.25806451612903,1.25806451612903,1.26129032258065,1.26129032258065,1.26451612903226,1.25806451612903,1.26129032258065,1.25806451612903,1.26774193548387,1.26774193548387,1.26451612903226,1.26774193548387,1.29032258064516,1.49354838709677,2.03225806451613,2.90967741935484,2.69032258064516,1.10967741935484,0.509677419354839,0.861290322580645,1.0741935483871,1.15483870967742,1.20645161290323,1.22258064516129,1.21935483870968,1.22258064516129,1.22258064516129,1.22258064516129,1.2258064516129,1.22258064516129,1.2258064516129,1.23225806451613,1.2258064516129,1.24193548387097,1.25161290322581,1.25483870967742,1.26774193548387,1.28709677419355,1.29677419354839,1.30322580645161,1.32903225806452,1.34193548387097,1.35806451612903,1.36451612903226,1.4,1.41612903225806,1.41935483870968,1.40967741935484,1.39032258064516,1.36129032258065,1.34193548387097,1.32258064516129,1.3,1.28709677419355,1.27741935483871,1.27096774193548,1.26774193548387,1.26774193548387,1.26451612903226,1.26129032258065,1.27096774193548,1.2741935483871,1.26774193548387,1.27096774193548,1.28064516129032,1.28387096774194,1.29354838709677,1.30322580645161,1.28709677419355,1.27741935483871,1.29032258064516,1.29354838709677,1.28064516129032,1.28387096774194,1.28387096774194,1.27741935483871,1.27741935483871,1.27741935483871,1.2741935483871,1.27096774193548,1.27096774193548,1.27741935483871,1.27096774193548,1.27096774193548,1.2741935483871,1.26451612903226,1.27096774193548,1.2741935483871,1.27741935483871,1.27096774193548,1.26129032258065,1.26129032258065,1.25806451612903,1.25161290322581,1.24838709677419,1.24838709677419,1.25161290322581,1.24516129032258,1.24193548387097,1.24516129032258,1.25161290322581,1.24838709677419,1.25161290322581,1.24838709677419,1.25161290322581,1.2741935483871,1.36774193548387,1.79032258064516,2.58387096774194,2.95483870967742,1.73548387096774,0.532258064516129,0.712903225806452,1.03225806451613,1.12258064516129,1.1741935483871,1.20322580645161,1.21612903225806,1.20645161290323,1.20645161290323,1.20322580645161,1.20967741935484,1.20967741935484,1.20645161290323,1.20967741935484,1.21935483870968,1.22903225806452,1.23870967741935,1.24838709677419,1.25806451612903,1.2741935483871,1.28709677419355,1.3,1.31290322580645,1.33225806451613,1.33870967741935,1.36451612903226,1.38387096774194,1.40645161290323,1.41612903225806,1.40645161290323,1.38709677419355,1.36129032258065,1.34516129032258,1.30322580645161,1.28387096774194,1.28064516129032,1.27096774193548,1.26451612903226,1.26129032258065,1.25483870967742,1.25806451612903,1.25806451612903,1.25806451612903,1.25806451612903,1.26451612903226,1.26451612903226,1.27096774193548,1.28064516129032,1.28064516129032,1.28064516129032,1.28709677419355,1.28064516129032,1.28709677419355,1.28709677419355,1.28064516129032,1.27741935483871,1.29032258064516,1.28709677419355,1.28709677419355,1.27096774193548,1.27096774193548,1.26774193548387,1.2741935483871,1.27096774193548,1.27096774193548,1.26774193548387,1.26774193548387,1.27096774193548,1.27096774193548,1.26451612903226,1.26451612903226,1.26774193548387,1.26451612903226,1.27096774193548,1.26451612903226,1.2741935483871,1.26451612903226,1.25806451612903,1.26451612903226,1.2741935483871,1.26774193548387,1.25806451612903,1.26129032258065,1.26451612903226,1.27096774193548,1.29354838709677,1.38387096774194,1.79032258064516,2.60645161290323,2.95483870967742,1.70967741935484,0.512903225806452,0.709677419354839,1.02258064516129,1.12258064516129,1.18709677419355,1.21612903225806,1.21290322580645,1.22258064516129,1.2258064516129,1.2258064516129,1.21612903225806,1.2258064516129,1.21612903225806,1.21290322580645,1.2258064516129,1.22903225806452,1.24838709677419,1.26774193548387,1.26774193548387,1.28064516129032,1.3,1.30645161290323,1.3258064516129,1.33548387096774,1.35161290322581,1.36129032258065,1.39032258064516,1.41935483870968,1.42903225806452,1.41290322580645,1.39032258064516,1.35806451612903,1.33548387096774,1.31612903225806,1.29677419354839,1.28387096774194,1.2741935483871,1.26774193548387,1.26451612903226,1.25806451612903,1.26774193548387,1.26451612903226,1.27096774193548,1.26129032258065,1.26129032258065,1.26129032258065,1.26774193548387,1.2741935483871,1.27096774193548,1.27096774193548,1.2741935483871,1.27096774193548,1.2741935483871,1.2741935483871,1.27741935483871,1.28064516129032,1.2741935483871,1.2741935483871,1.27741935483871,1.2741935483871,1.27096774193548,1.2741935483871,1.27096774193548,1.26774193548387,1.26451612903226,1.27096774193548,1.26451612903226,1.26129032258065,1.27096774193548,1.26451612903226,1.26129032258065,1.26451612903226,1.26774193548387,1.2741935483871,1.26774193548387,1.26451612903226,1.26451612903226,1.25806451612903,1.25806451612903,1.25483870967742,1.26129032258065,1.25806451612903,1.25483870967742,1.25806451612903,1.27096774193548,1.26774193548387,1.27096774193548,1.26774193548387,1.27096774193548,1.27741935483871,1.29354838709677,1.42903225806452,1.90967741935484,2.78064516129032,2.83225806451613,1.3741935483871,0.461290322580645,0.741935483870968,1.03548387096774,1.12903225806452,1.18387096774194,1.20967741935484,1.21935483870968,1.2258064516129,1.2258064516129,1.21612903225806,1.21935483870968,1.21612903225806,1.21290322580645,1.21290322580645,1.22258064516129,1.22258064516129,1.23870967741935,1.25483870967742,1.26774193548387,1.2741935483871,1.28709677419355,1.30645161290323,1.31935483870968,1.33225806451613,1.34838709677419,1.37096774193548,1.39677419354839,1.4258064516129,1.43548387096774,1.41935483870968,1.4,1.37096774193548,1.34516129032258,1.32258064516129,1.30645161290323,1.29677419354839,1.29032258064516,1.28387096774194,1.27741935483871,1.27096774193548,1.27096774193548,1.26774193548387,1.2741935483871,1.27096774193548,1.27096774193548,1.27096774193548,1.28064516129032,1.28387096774194,1.29032258064516,1.28709677419355,1.28709677419355,1.29354838709677,1.29032258064516,1.29677419354839,1.30322580645161,1.29354838709677,1.29032258064516,1.28709677419355,1.28387096774194,1.28064516129032,1.27741935483871,1.28064516129032,1.2741935483871,1.27096774193548,1.2741935483871,1.28064516129032,1.2741935483871,1.27096774193548,1.26129032258065,1.26129032258065,1.25483870967742,1.26129032258065,1.25806451612903,1.25806451612903,1.26129032258065,1.26451612903226,1.26774193548387,1.26129032258065,1.26451612903226,1.26451612903226,1.26451612903226,1.26451612903226,1.26451612903226,1.26774193548387,1.27741935483871,1.28064516129032,1.2741935483871,1.26451612903226,1.26129032258065,1.26774193548387,1.26451612903226,1.26451612903226,1.27096774193548,1.27096774193548,1.28709677419355,1.40322580645161,1.86451612903226,2.68709677419355,2.88064516129032,1.5258064516129,0.470967741935484,0.712903225806452,1.01290322580645,1.10967741935484,1.18064516129032,1.21612903225806,1.21935483870968,1.21612903225806,1.20967741935484,1.21290322580645,1.21290322580645,1.21612903225806,1.21935483870968,1.2258064516129,1.22903225806452,1.23870967741935,1.24516129032258,1.26451612903226,1.27741935483871,1.3,1.30645161290323,1.31935483870968,1.32903225806452,1.34838709677419,1.35161290322581,1.36129032258065,1.38064516129032,1.4,1.40645161290323,1.41290322580645,1.4,1.35806451612903,1.33870967741935,1.31935483870968,1.29677419354839,1.28387096774194,1.27741935483871,1.2741935483871,1.27741935483871,1.26774193548387,1.26451612903226,1.26774193548387,1.26774193548387,1.27096774193548,1.2741935483871,1.27096774193548,1.27741935483871,1.27741935483871,1.27741935483871,1.28064516129032,1.27741935483871,1.28387096774194,1.29032258064516,1.29032258064516,1.29354838709677,1.29032258064516,1.28709677419355,1.28709677419355,1.28064516129032,1.2741935483871,1.2741935483871,1.27741935483871,1.2741935483871,1.26451612903226,1.25483870967742,1.25483870967742,1.24838709677419,1.24838709677419,1.24838709677419,1.24516129032258,1.24838709677419,1.25161290322581,1.25161290322581,1.25161290322581,1.25161290322581,1.25161290322581,1.25483870967742,1.25806451612903,1.25806451612903,1.25161290322581,1.26451612903226,1.27741935483871,1.34838709677419,1.72258064516129,2.48709677419355,3,1.91935483870968,0.570967741935484,0.687096774193548,0.996774193548387,1.1,1.16129032258065,1.20322580645161,1.20322580645161,1.20645161290323,1.20645161290323,1.20967741935484,1.20967741935484,1.20967741935484,1.20967741935484,1.21935483870968,1.22903225806452,1.23548387096774,1.24516129032258,1.25806451612903,1.26451612903226,1.27096774193548,1.28709677419355,1.30645161290323,1.32258064516129,1.33225806451613,1.34193548387097,1.35806451612903,1.37741935483871,1.39032258064516,1.4,1.39354838709677,1.36451612903226,1.33225806451613,1.31612903225806,1.30322580645161,1.29032258064516,1.2741935483871,1.26451612903226,1.25806451612903,1.25483870967742,1.25483870967742,1.24838709677419,1.24838709677419,1.25161290322581,1.25161290322581,1.25161290322581,1.25483870967742,1.25483870967742,1.26129032258065,1.26129032258065,1.26451612903226,1.26129032258065,1.26129032258065,1.26451612903226,1.2741935483871,1.27096774193548,1.2741935483871,1.26774193548387,1.2741935483871,1.26774193548387,1.26451612903226,1.26129032258065,1.25806451612903,1.25806451612903,1.25806451612903,1.25483870967742,1.25161290322581,1.24838709677419,1.24838709677419,1.24838709677419,1.24838709677419,1.23870967741935,1.24193548387097,1.24516129032258,1.24838709677419,1.25483870967742,1.24838709677419,1.25161290322581,1.25806451612903,1.28064516129032,1.46774193548387,1.98387096774194,2.8741935483871,2.78064516129032,1.18387096774194,0.538709677419355,0.867741935483871,1.07096774193548,1.14516129032258,1.19354838709677,1.20967741935484,1.21290322580645,1.20967741935484,1.20322580645161,1.20322580645161,1.21290322580645,1.21290322580645,1.20967741935484,1.21290322580645,1.21612903225806,1.2258064516129,1.23548387096774,1.24838709677419,1.26129032258065,1.28387096774194,1.29677419354839,1.31290322580645,1.32903225806452,1.34516129032258,1.35806451612903,1.38064516129032,1.40322580645161,1.41612903225806,1.40645161290323,1.38387096774194,1.34838709677419,1.33548387096774,1.31612903225806,1.3,1.27741935483871,1.26774193548387,1.26129032258065,1.25483870967742,1.25483870967742,1.24838709677419,1.25806451612903,1.26129032258065,1.25806451612903,1.25161290322581,1.25806451612903,1.25806451612903,1.26451612903226,1.26129032258065,1.26774193548387,1.25483870967742,1.25806451612903,1.26129032258065,1.26129032258065,1.26451612903226,1.26451612903226,1.26129032258065,1.26774193548387,1.28064516129032,1.4258064516129,1.92903225806452,2.73548387096774,2.78709677419355,1.29677419354839,0.432258064516129,0.748387096774194,1.03870967741935,1.12258064516129,1.18387096774194,1.20322580645161,1.20322580645161,1.20322580645161,1.21290322580645,1.20322580645161,1.20967741935484,1.20967741935484,1.21290322580645,1.21612903225806,1.2258064516129,1.23225806451613,1.24193548387097,1.25483870967742,1.26129032258065,1.28064516129032,1.30322580645161,1.32258064516129,1.34516129032258,1.36774193548387,1.38387096774194,1.41290322580645,1.44516129032258,1.45806451612903,1.43548387096774,1.39677419354839,1.35806451612903,1.32903225806452,1.30645161290323,1.29677419354839,1.27741935483871,1.27096774193548,1.26129032258065,1.25483870967742,1.24516129032258,1.24838709677419,1.25483870967742,1.25806451612903,1.26129032258065,1.25161290322581,1.25806451612903,1.27096774193548,1.27741935483871,1.28064516129032,1.28064516129032,1.27741935483871,1.28064516129032,1.27741935483871,1.28387096774194,1.27741935483871,1.2741935483871,1.2741935483871,1.27096774193548,1.26774193548387,1.26774193548387,1.26451612903226,1.26451612903226,1.25161290322581,1.24838709677419,1.24516129032258,1.25483870967742,1.26129032258065,1.24838709677419,1.25483870967742,1.25161290322581,1.25161290322581,1.25161290322581,1.25483870967742,1.24516129032258,1.24838709677419,1.24516129032258,1.25161290322581,1.24838709677419,1.24838709677419,1.25161290322581,1.25161290322581,1.24193548387097,1.24516129032258,1.24838709677419,1.25483870967742,1.25806451612903,1.2741935483871,1.34193548387097,1.65483870967742,2.32258064516129,2.97741935483871,2.14516129032258,0.696774193548387,0.583870967741935,0.925806451612903,1.07741935483871,1.15161290322581,1.19677419354839,1.20645161290323,1.20967741935484,1.20645161290323,1.2,1.20322580645161,1.21290322580645,1.20322580645161,1.21290322580645,1.21290322580645,1.22258064516129,1.24193548387097,1.26129032258065,1.27741935483871,1.28064516129032,1.29032258064516,1.31290322580645,1.33548387096774,1.36774193548387,1.34193548387097,1.37096774193548,1.41290322580645,1.41935483870968,1.43548387096774,1.44838709677419,1.45483870967742,1.43548387096774,1.3741935483871,1.35806451612903,1.34516129032258,1.3258064516129,1.31290322580645,1.30322580645161,1.30322580645161,1.29354838709677,1.29677419354839,1.30967741935484,1.30322580645161,1.30967741935484,1.31290322580645,1.3258064516129,1.32258064516129,1.30967741935484,1.31290322580645,1.33870967741935,1.33548387096774,1.32258064516129,1.3258064516129,1.30645161290323,1.31290322580645,1.30645161290323,1.30322580645161,1.30322580645161,1.29354838709677,1.29677419354839,1.28064516129032,1.26774193548387,1.27741935483871,1.27096774193548,1.27741935483871,1.27741935483871,1.26129032258065,1.26774193548387,1.29354838709677,1.23870967741935,1.25161290322581,1.24838709677419,1.25161290322581,1.24193548387097,1.25161290322581,1.26129032258065,1.25161290322581,1.25806451612903,1.26129032258065,1.27096774193548,1.26451612903226,1.25806451612903,1.2741935483871,1.24193548387097,1.25806451612903,1.26129032258065,1.26129032258065,1.26129032258065,1.26774193548387,1.25806451612903,1.26129032258065,1.25161290322581,1.26451612903226,1.25483870967742,1.24516129032258,1.25483870967742,1.25806451612903,1.25483870967742,1.25806451612903,1.25806451612903,1.26129032258065,1.25806451612903,1.26451612903226,1.26129032258065,1.26451612903226,1.25483870967742,1.25806451612903,1.25806451612903,1.26774193548387,1.26451612903226,1.28387096774194,1.32258064516129,1.52258064516129,2.06774193548387,2.9,2.58709677419355,1.06129032258065,0.509677419354839,0.870967741935484,1.08064516129032,1.15483870967742,1.21290322580645,1.23225806451613,1.22258064516129,1.22903225806452,1.2258064516129,1.22258064516129,1.22903225806452,1.22258064516129,1.22903225806452,1.23870967741935
