1.327734375,1.32451171875,1.32451171875,1.327734375,1.32451171875,1.33095703125,1.33095703125,1.327734375,1.32451171875,1.32451171875,1.33740234375,1.33740234375,1.3341796875,1.3341796875,1.33740234375,1.33740234375,1.33740234375,1.33740234375,1.33740234375,1.3341796875,1.340625,1.34384765625,1.353515625,1.36962890625,1.379296875,1.38251953125,1.39541015625,1.41796875,1.42119140625,1.41474609375,1.41474609375,1.4115234375,1.37607421875,1.32451171875,1.31162109375,1.32451171875,1.33095703125,1.327734375,1.327734375,1.327734375,1.31806640625,1.29228515625,1.353515625,1.60166015625,2.0044921875,2.40732421875,2.38798828125,1.869140625,1.4115234375,1.2955078125,1.31162109375,1.31484375,1.30517578125,1.29873046875,1.301953125,1.3083984375,1.31484375,1.32451171875,1.33095703125,1.33740234375,1.3470703125,1.353515625,1.35673828125,1.36318359375,1.36640625,1.36962890625,1.37607421875,1.3857421875,1.40185546875,1.40830078125,1.4115234375,1.42763671875,1.44052734375,1.456640625,1.482421875,1.51142578125,1.5275390625,1.546875,1.57587890625,1.60166015625,1.6177734375,1.60810546875,1.5919921875,1.56298828125,1.508203125,1.44375,1.3857421875,1.3470703125,1.327734375,1.31806640625,1.31484375,1.31162109375,1.301953125,1.301953125,1.30517578125,1.31806640625,1.31806640625,1.3083984375,1.31484375,1.31806640625,1.3212890625,1.327734375,1.327734375,1.33095703125,1.327734375,1.33095703125,1.33095703125,1.33095703125,1.33095703125,1.327734375,1.327734375,1.32451171875,1.32451171875,1.32451171875,1.3212890625,1.32451171875,1.327734375,1.31484375,1.3083984375,1.327734375,1.340625,1.33740234375,1.33095703125,1.3341796875,1.3341796875,1.33740234375,1.340625,1.34384765625,1.340625,1.33740234375,1.34384765625,1.34384765625,1.340625,1.34384765625,1.35029296875,1.36318359375,1.379296875,1.38896484375,1.39541015625,1.41796875,1.4373046875,1.4373046875,1.430859375,1.42763671875,1.40185546875,1.35029296875,1.31806640625,1.33095703125,1.3341796875,1.32451171875,1.3212890625,1.327734375,1.3341796875,1.31484375,1.30517578125,1.4501953125,1.80146484375,2.27197265625,2.53623046875,2.2494140625,1.6822265625,1.36318359375,1.31162109375,1.31162109375,1.30517578125,1.29873046875,1.30517578125,1.30517578125,1.301953125,1.31162109375,1.33095703125,1.327734375,1.327734375,1.33740234375,1.34384765625,1.35029296875,1.35673828125,1.36318359375,1.37607421875,1.38251953125,1.38896484375,1.3986328125,1.40830078125,1.42119140625,1.430859375,1.44697265625,1.46953125,1.49853515625,1.52109375,1.53720703125,1.5662109375,1.59521484375,1.6048828125,1.6048828125,1.611328125,1.58876953125,1.53076171875,1.46630859375,1.4244140625,1.3857421875,1.35029296875,1.327734375,1.3083984375,1.30517578125,1.3083984375,1.31484375,1.31806640625,1.31806640625,1.31484375,1.31806640625,1.3212890625,1.31484375,1.31484375,1.31806640625,1.32451171875,1.32451171875,1.327734375,1.32451171875,1.31162109375,1.31806640625,1.3341796875,1.32451171875,1.30517578125,1.3083984375,1.31806640625,1.327734375,1.327734375,1.327734375,1.33095703125,1.33095703125,1.33740234375,1.33740234375,1.327734375,1.32451171875,1.3341796875,1.340625,1.33740234375,1.33095703125,1.33095703125,1.33095703125,1.33095703125,1.3341796875,1.33740234375,1.33740234375,1.3470703125,1.3599609375,1.35029296875,1.34384765625,1.3470703125,1.35029296875,1.36318359375,1.3857421875,1.38896484375,1.39541015625,1.42119140625,1.44052734375,1.4373046875,1.41796875,1.4115234375,1.3857421875,1.340625,1.31162109375,1.3212890625,1.33095703125,1.32451171875,1.32451171875,1.31806640625,1.31484375,1.29228515625,1.3083984375,1.4953125,1.87880859375,2.35576171875,2.54912109375,2.1591796875,1.585546875,1.33095703125,1.31484375,1.3212890625,1.31162109375,1.31162109375,1.31484375,1.30517578125,1.3083984375,1.32451171875,1.3341796875,1.340625,1.35029296875,1.35673828125,1.3599609375,1.35673828125,1.36640625,1.36640625,1.36318359375,1.379296875,1.3921875,1.40185546875,1.41796875,1.42763671875,1.4373046875,1.456640625,1.4759765625,1.49853515625,1.51142578125,1.52431640625,1.56943359375,1.6048828125,1.62744140625,1.62744140625,1.62099609375,1.5919921875,1.50498046875,1.44052734375,1.4115234375,1.36962890625,1.33095703125,1.31484375,1.30517578125,1.301953125,1.31162109375,1.3212890625,1.31162109375,1.31162109375,1.31806640625,1.31162109375,1.31806640625,1.32451171875,1.32451171875,1.32451171875,1.3212890625,1.327734375,1.33095703125,1.32451171875,1.3212890625,1.3212890625,1.32451171875,1.3212890625,1.327734375,1.33095703125,1.3341796875,1.32451171875,1.31806640625,1.327734375,1.327734375,1.31806640625,1.327734375,1.33095703125,1.32451171875,1.31484375,1.3212890625,1.33095703125,1.33740234375,1.33740234375,1.340625,1.340625,1.33740234375,1.3341796875,1.3341796875,1.34384765625,1.3599609375,1.36962890625,1.379296875,1.38896484375,1.405078125,1.4244140625,1.42763671875,1.42119140625,1.41796875,1.38251953125,1.32451171875,1.31162109375,1.32451171875,1.327734375,1.32451171875,1.31806640625,1.3212890625,1.327734375,1.301953125,1.29228515625,1.43408203125,1.75634765625,2.19140625,2.4685546875,2.22041015625,1.65966796875,1.340625,1.2955078125,1.3083984375,1.301953125,1.29228515625,1.301953125,1.31162109375,1.32451171875,1.327734375,1.32451171875,1.32451171875,1.327734375,1.340625,1.353515625,1.35673828125,1.35673828125,1.3599609375,1.3728515625,1.379296875,1.3857421875,1.40185546875,1.41474609375,1.42119140625,1.43408203125,1.4501953125,1.47275390625,1.49208984375,1.5146484375,1.533984375,1.56298828125,1.5919921875,1.6048828125,1.611328125,1.6048828125,1.5791015625,1.53720703125,1.47919921875,1.430859375,1.38896484375,1.35029296875,1.327734375,1.31484375,1.301953125,1.29873046875,1.3083984375,1.31806640625,1.31484375,1.31484375,1.3212890625,1.3341796875,1.33740234375,1.327734375,1.32451171875,1.32451171875,1.327734375,1.33740234375,1.33740234375,1.33095703125,1.32451171875,1.32451171875,1.33095703125,1.33095703125,1.33095703125,1.3341796875,1.3341796875,1.3341796875,1.33095703125,1.33095703125,1.33095703125,1.32451171875,1.33095703125,1.33740234375,1.33740234375,1.33740234375,1.3341796875,1.340625,1.3470703125,1.35029296875,1.3470703125,1.34384765625,1.3470703125,1.3470703125,1.34384765625,1.3470703125,1.35029296875,1.36318359375,1.38251953125,1.3921875,1.3986328125,1.42119140625,1.43408203125,1.430859375,1.430859375,1.430859375,1.41474609375,1.36640625,1.31806640625,1.3212890625,1.33095703125,1.327734375,1.33095703125,1.3341796875,1.33095703125,1.31162109375,1.2955078125,1.3921875,1.6822265625,2.14306640625,2.5265625,2.3912109375,1.83369140625,1.41796875,1.3083984375,1.29873046875,1.2955078125,1.29228515625,1.28583984375,1.29873046875,1.3083984375,1.3083984375,1.31484375,1.3212890625,1.32451171875,1.33740234375,1.34384765625,1.34384765625,1.353515625,1.35673828125,1.353515625,1.3599609375,1.37607421875,1.3857421875,1.39541015625,1.41474609375,1.430859375,1.44375,1.45986328125,1.47919921875,1.5017578125,1.52431640625,1.55009765625,1.56943359375,1.5791015625,1.5919921875,1.60166015625,1.58232421875,1.5404296875,1.48564453125,1.4244140625,1.37607421875,1.35029296875,1.327734375,1.31484375,1.31484375,1.3083984375,1.29873046875,1.29873046875,1.30517578125,1.31162109375,1.31806640625,1.3212890625,1.31806640625,1.3212890625,1.32451171875,1.31806640625,1.3212890625,1.327734375,1.32451171875,1.31484375,1.3083984375,1.31806640625,1.327734375,1.327734375,1.3212890625,1.32451171875,1.327734375,1.32451171875,1.31162109375,1.31162109375,1.32451171875,1.33095703125,1.327734375,1.3341796875,1.33740234375,1.3341796875,1.33095703125,1.33095703125,1.340625,1.340625,1.33740234375,1.34384765625,1.3341796875,1.33740234375,1.35029296875,1.35029296875,1.3470703125,1.3470703125,1.3599609375,1.35673828125,1.353515625,1.36962890625,1.3921875,1.3986328125,1.40830078125,1.430859375,1.44697265625,1.4373046875,1.42763671875,1.42763671875,1.40830078125,1.35673828125,1.33095703125,1.33740234375,1.33095703125,1.32451171875,1.340625,1.34384765625,1.33740234375,1.31162109375,1.31162109375,1.46953125,1.82724609375,2.3138671875,2.57490234375,2.25908203125,1.6822265625,1.36318359375,1.3083984375,1.30517578125,1.301953125,1.2955078125,1.29873046875,1.3083984375,1.31806640625,1.31806640625,1.3212890625,1.32451171875,1.3341796875,1.34384765625,1.35029296875,1.35029296875,1.353515625,1.36962890625,1.379296875,1.379296875,1.3857421875,1.39541015625,1.40185546875,1.41796875,1.4373046875,1.45341796875,1.4759765625,1.4953125,1.5146484375,1.5404296875,1.56298828125,1.58232421875,1.5984375,1.60810546875,1.60166015625,1.57587890625,1.533984375,1.48564453125,1.42763671875,1.3728515625,1.34384765625,1.32451171875,1.3083984375,1.29873046875,1.301953125,1.3083984375,1.31484375,1.3212890625,1.31806640625,1.31806640625,1.327734375,1.327734375,1.327734375,1.32451171875,1.32451171875,1.32451171875,1.3212890625,1.31806640625,1.31806640625,1.31806640625,1.3212890625,1.32451171875,1.327734375,1.327734375,1.33095703125,1.3341796875,1.32451171875,1.31806640625,1.327734375,1.33095703125,1.327734375,1.327734375,1.33095703125,1.3341796875,1.33740234375,1.33740234375,1.33740234375,1.33740234375,1.340625,1.33740234375,1.33740234375,1.35029296875,1.35029296875,1.340625,1.340625,1.3470703125,1.35029296875,1.353515625,1.35029296875,1.34384765625,1.35029296875,1.36318359375,1.37607421875,1.38896484375,1.3921875,1.40830078125,1.43408203125,1.4373046875,1.430859375,1.42763671875,1.41796875,1.36962890625,1.327734375,1.32451171875,1.33095703125,1.33095703125,1.327734375,1.3341796875,1.340625,1.32451171875,1.29873046875,1.36318359375,1.611328125,2.02705078125,2.4298828125,2.4041015625,1.8755859375,1.4115234375,1.29228515625,1.31162109375,1.3212890625,1.31806640625,1.3083984375,1.3083984375,1.3212890625,1.32451171875,1.3212890625,1.33095703125,1.34384765625,1.3470703125,1.353515625,1.3599609375,1.36318359375,1.36318359375,1.3599609375,1.3728515625,1.38896484375,1.39541015625,1.40185546875,1.41796875,1.43408203125,1.44697265625,1.46630859375,1.482421875,1.4953125,1.52109375,1.5533203125,1.57265625,1.58876953125,1.60166015625,1.60810546875,1.59521484375,1.55654296875,1.508203125,1.456640625,1.405078125,1.3599609375,1.327734375,1.31484375,1.31162109375,1.3083984375,1.29873046875,1.29228515625,1.301953125,1.31162109375,1.31484375,1.31484375,1.31484375,1.3212890625,1.32451171875,1.32451171875,1.3212890625,1.32451171875,1.327734375,1.32451171875,1.3212890625,1.3212890625,1.3341796875,1.33740234375,1.32451171875,1.31806640625,1.3212890625,1.32451171875,1.33095703125,1.3341796875,1.33095703125,1.32451171875,1.33095703125,1.33740234375,1.3341796875,1.33095703125,1.33095703125,1.33740234375,1.340625,1.340625,1.3470703125,1.34384765625,1.340625,1.33740234375,1.340625,1.35029296875,1.35029296875,1.3470703125,1.35029296875,1.35029296875,1.36318359375,1.379296875,1.3921875,1.40185546875,1.4115234375,1.42763671875,1.4373046875,1.43408203125,1.42763671875,1.42119140625,1.3921875,1.34384765625,1.327734375,1.3341796875,1.33095703125,1.33095703125,1.3341796875,1.3470703125,1.33740234375,1.301953125,1.353515625,1.59521484375,2.0109375,2.4427734375,2.4685546875,1.9658203125,1.4759765625,1.31806640625,1.31484375,1.31162109375,1.301953125,1.29873046875,1.3083984375,1.31806640625,1.32451171875,1.327734375,1.32451171875,1.3341796875,1.34384765625,1.3470703125,1.353515625,1.353515625,1.36318359375,1.3728515625,1.37607421875,1.3857421875,1.40185546875,1.41796875,1.42119140625,1.41796875,1.43408203125,1.45986328125,1.48564453125,1.50498046875,1.5275390625,1.559765625,1.58232421875,1.5919921875,1.6048828125,1.611328125,1.5984375,1.559765625,1.508203125,1.45341796875,1.3986328125,1.3599609375,1.33740234375,1.31484375,1.3083984375,1.31162109375,1.31162109375,1.31162109375,1.3083984375,1.31162109375,1.31484375,1.32451171875,1.327734375,1.31806640625,1.31162109375,1.31806640625,1.32451171875,1.32451171875,1.33095703125,1.33095703125,1.3212890625,1.31806640625,1.32451171875,1.33095703125,1.33095703125,1.327734375,1.327734375,1.327734375,1.32451171875,1.33095703125,1.3341796875,1.3341796875,1.3341796875,1.33095703125,1.327734375,1.33095703125,1.340625,1.340625,1.340625,1.33740234375,1.3341796875,1.33740234375,1.34384765625,1.3470703125,1.340625,1.340625,1.3470703125,1.35029296875,1.35029296875,1.35029296875,1.3470703125,1.3470703125,1.35029296875,1.3470703125,1.35029296875,1.35673828125,1.36962890625,1.39541015625,1.41474609375,1.41474609375,1.430859375,1.44697265625,1.42763671875,1.430859375,1.44375,1.4115234375,1.353515625,1.31484375,1.32451171875,1.3341796875,1.33095703125,1.33095703125,1.33740234375,1.33095703125,1.301953125,1.31484375,1.51142578125,1.91103515625,2.39443359375,2.565234375,2.14306640625,1.57587890625,1.33095703125,1.30517578125,1.301953125,1.301953125,1.2955078125,1.29228515625,1.29873046875,1.30517578125,1.31162109375,1.32451171875,1.32451171875,1.33095703125,1.340625,1.33740234375,1.34384765625,1.353515625,1.35673828125,1.36318359375,1.37607421875,1.38896484375,1.39541015625,1.40830078125,1.42119140625,1.430859375,1.44697265625,1.47275390625,1.4953125,1.508203125,1.5275390625,1.559765625,1.585546875,1.60166015625,1.611328125,1.60166015625,1.56943359375,1.51787109375,1.46953125,1.42119140625,1.379296875,1.340625,1.31162109375,1.30517578125,1.3083984375,1.301953125,1.301953125,1.30517578125,1.31484375,1.3083984375,1.301953125,1.31484375,1.32451171875,1.3212890625,1.3212890625,1.31806640625,1.31806640625,1.31806640625,1.32451171875,1.33740234375,1.3212890625,1.30517578125,1.31162109375,1.31806640625,1.3212890625,1.33095703125,1.33095703125,1.327734375,1.327734375,1.32451171875,1.327734375,1.33095703125,1.33095703125,1.327734375,1.32451171875,1.327734375,1.3341796875,1.33740234375,1.33740234375,1.33740234375,1.340625,1.33740234375,1.3341796875,1.34384765625,1.34384765625,1.34384765625,1.35029296875,1.353515625,1.3470703125,1.35029296875,1.36318359375,1.3599609375,1.353515625,1.3599609375,1.36640625,1.36640625,1.37607421875,1.3921875,1.3986328125,1.41474609375,1.44375,1.4501953125,1.43408203125,1.430859375,1.430859375,1.39541015625,1.35029296875,1.33740234375,1.33740234375,1.340625,1.3470703125,1.3470703125,1.35029296875,1.3341796875,1.3083984375,1.3921875,1.6822265625,2.126953125,2.49111328125,2.34609375,1.7724609375,1.379296875,1.31162109375,1.32451171875,1.3212890625,1.31806640625,1.32451171875,1.32451171875,1.327734375,1.340625,1.3470703125,1.340625,1.3470703125,1.36640625,1.36962890625,1.36318359375,1.36962890625,1.38251953125,1.38896484375,1.3921875,1.3986328125,1.4115234375,1.42763671875,1.44052734375,1.45341796875,1.46953125,1.47919921875,1.49208984375,1.51787109375,1.546875,1.57265625,1.59521484375,1.60810546875,1.62099609375,1.62421875,1.60810546875,1.57265625,1.52431640625,1.4630859375,1.4115234375,1.36962890625,1.34384765625,1.32451171875,1.31162109375,1.31806640625,1.3212890625,1.31484375,1.31162109375,1.31484375,1.31806640625,1.3212890625,1.327734375,1.3341796875,1.3341796875,1.3341796875,1.3341796875,1.33740234375,1.33095703125,1.327734375,1.32451171875,1.32451171875,1.33095703125,1.33095703125,1.33095703125,1.33095703125,1.327734375,1.327734375,1.327734375,1.32451171875,1.327734375,1.33095703125,1.327734375,1.327734375,1.33095703125,1.33740234375,1.33095703125,1.3341796875,1.3341796875,1.327734375,1.327734375,1.33095703125,1.3341796875,1.3341796875,1.3341796875,1.3341796875,1.33740234375,1.34384765625,1.340625,1.3341796875,1.33740234375,1.340625,1.34384765625,1.3470703125,1.3599609375,1.3728515625,1.3857421875,1.4115234375,1.4244140625,1.41796875,1.41474609375,1.40830078125,1.3857421875,1.3470703125,1.31162109375,1.30517578125,1.31162109375,1.31162109375,1.31162109375,1.31484375,1.3083984375,1.276171875,1.28583984375,1.4630859375,1.82724609375,2.28486328125,2.50078125,2.14951171875,1.5791015625,1.3083984375,1.27939453125,1.2826171875,1.27294921875,1.26328125,1.27294921875,1.28583984375,1.28583984375,1.28583984375,1.28583984375,1.29873046875,1.3083984375,1.31484375,1.31806640625,1.32451171875,1.3341796875,1.33740234375,1.3341796875,1.3470703125,1.36318359375,1.379296875,1.38896484375,1.3986328125,1.41474609375,1.4373046875,1.45341796875,1.47275390625,1.4953125,1.52109375,1.55009765625,1.56943359375,1.585546875,1.58876953125,1.57587890625,1.55654296875,1.52431640625,1.46953125,1.41796875,1.38251953125,1.34384765625,1.3212890625,1.3212890625,1.3083984375,1.301953125,1.31806640625,1.32451171875,1.32451171875,1.3341796875,1.340625,1.340625,1.34384765625,1.35029296875,1.3599609375
1.3341796875,1.33095703125,1.33740234375,1.340625,1.33095703125,1.327734375,1.33095703125,1.33095703125,1.33095703125,1.3341796875,1.33740234375,1.33095703125,1.32451171875,1.3341796875,1.33740234375,1.33740234375,1.3341796875,1.33095703125,1.33095703125,1.340625,1.35673828125,1.3470703125,1.3341796875,1.3341796875,1.35029296875,1.36640625,1.35673828125,1.34384765625,1.340625,1.3341796875,1.35029296875,1.36318359375,1.36640625,1.379296875,1.3986328125,1.40185546875,1.39541015625,1.42119140625,1.4501953125,1.44052734375,1.42763671875,1.430859375,1.3986328125,1.3470703125,1.327734375,1.327734375,1.33095703125,1.34384765625,1.3341796875,1.31806640625,1.327734375,1.3212890625,1.3470703125,1.546875,1.946484375,2.40087890625,2.51044921875,2.0560546875,1.5146484375,1.301953125,1.3083984375,1.31162109375,1.2890625,1.28583984375,1.3083984375,1.327734375,1.33740234375,1.33095703125,1.32451171875,1.327734375,1.33095703125,1.34384765625,1.36318359375,1.36318359375,1.36640625,1.3728515625,1.3728515625,1.37607421875,1.3921875,1.405078125,1.405078125,1.4244140625,1.44697265625,1.45986328125,1.47919921875,1.49853515625,1.51787109375,1.5404296875,1.56943359375,1.60166015625,1.611328125,1.6048828125,1.5919921875,1.5533203125,1.5146484375,1.4759765625,1.41796875,1.353515625,1.31806640625,1.31806640625,1.3212890625,1.301953125,1.2890625,1.29873046875,1.31162109375,1.31484375,1.31162109375,1.30517578125,1.31162109375,1.32451171875,1.3341796875,1.33095703125,1.3212890625,1.31484375,1.3212890625,1.32451171875,1.31806640625,1.32451171875,1.340625,1.327734375,1.3212890625,1.3212890625,1.31484375,1.327734375,1.33095703125,1.31806640625,1.31484375,1.3341796875,1.35029296875,1.32451171875,1.31806640625,1.340625,1.34384765625,1.33740234375,1.33095703125,1.31484375,1.32451171875,1.340625,1.34384765625,1.353515625,1.353515625,1.33740234375,1.3341796875,1.35029296875,1.3470703125,1.33095703125,1.340625,1.353515625,1.35029296875,1.35673828125,1.36640625,1.36962890625,1.3857421875,1.38896484375,1.3857421875,1.4115234375,1.43408203125,1.430859375,1.430859375,1.44052734375,1.4373046875,1.4115234375,1.35029296875,1.31484375,1.3212890625,1.327734375,1.33095703125,1.33740234375,1.33740234375,1.32451171875,1.29873046875,1.35673828125,1.6177734375,2.0818359375,2.5201171875,2.48466796875,1.94326171875,1.46630859375,1.3083984375,1.29873046875,1.30517578125,1.30517578125,1.30517578125,1.30517578125,1.301953125,1.3083984375,1.32451171875,1.33095703125,1.33740234375,1.3470703125,1.34384765625,1.33740234375,1.353515625,1.35673828125,1.35673828125,1.379296875,1.3986328125,1.405078125,1.3986328125,1.40185546875,1.42119140625,1.44052734375,1.46953125,1.482421875,1.5017578125,1.5404296875,1.56298828125,1.56943359375,1.59521484375,1.60810546875,1.611328125,1.60166015625,1.5662109375,1.50498046875,1.43408203125,1.38896484375,1.3599609375,1.3341796875,1.31484375,1.31162109375,1.31484375,1.31162109375,1.2955078125,1.29228515625,1.3083984375,1.3212890625,1.3341796875,1.3341796875,1.31484375,1.3083984375,1.31162109375,1.3083984375,1.3212890625,1.33095703125,1.327734375,1.33095703125,1.33095703125,1.3083984375,1.30517578125,1.31806640625,1.32451171875,1.327734375,1.3341796875,1.33740234375,1.33740234375,1.327734375,1.327734375,1.3341796875,1.31484375,1.30517578125,1.33095703125,1.33740234375,1.3341796875,1.3470703125,1.3470703125,1.33095703125,1.34384765625,1.35673828125,1.340625,1.33095703125,1.3470703125,1.34384765625,1.340625,1.35029296875,1.35029296875,1.35673828125,1.36640625,1.36640625,1.379296875,1.38896484375,1.40830078125,1.4373046875,1.430859375,1.42119140625,1.430859375,1.41474609375,1.3728515625,1.3341796875,1.32451171875,1.32451171875,1.327734375,1.33740234375,1.34384765625,1.3341796875,1.31162109375,1.31162109375,1.42119140625,1.73056640625,2.204296875,2.49755859375,2.22041015625,1.65,1.340625,1.301953125,1.3212890625,1.327734375,1.301953125,1.2890625,1.30517578125,1.32451171875,1.32451171875,1.327734375,1.3341796875,1.33740234375,1.34384765625,1.35673828125,1.36640625,1.3599609375,1.3599609375,1.38251953125,1.3857421875,1.3857421875,1.40830078125,1.41796875,1.4244140625,1.44697265625,1.4630859375,1.4759765625,1.5017578125,1.533984375,1.55654296875,1.559765625,1.57587890625,1.6048828125,1.61455078125,1.60810546875,1.58876953125,1.5533203125,1.49208984375,1.42763671875,1.3921875,1.35029296875,1.3083984375,1.2955078125,1.29873046875,1.30517578125,1.3083984375,1.31484375,1.31806640625,1.31484375,1.31484375,1.31806640625,1.32451171875,1.33095703125,1.3212890625,1.3083984375,1.31484375,1.3341796875,1.33740234375,1.31484375,1.31806640625,1.327734375,1.33095703125,1.3341796875,1.327734375,1.3212890625,1.327734375,1.340625,1.32451171875,1.30517578125,1.31806640625,1.33740234375,1.3341796875,1.327734375,1.33095703125,1.3341796875,1.34384765625,1.33740234375,1.32451171875,1.33740234375,1.340625,1.32451171875,1.3341796875,1.353515625,1.35029296875,1.33740234375,1.340625,1.3599609375,1.35673828125,1.35029296875,1.353515625,1.35029296875,1.36318359375,1.3921875,1.41474609375,1.42119140625,1.430859375,1.4373046875,1.42763671875,1.4244140625,1.430859375,1.40185546875,1.3470703125,1.3341796875,1.340625,1.33095703125,1.327734375,1.33095703125,1.35673828125,1.340625,1.28583984375,1.3728515625,1.67255859375,2.1205078125,2.51689453125,2.43310546875,1.87880859375,1.430859375,1.3083984375,1.31484375,1.32451171875,1.3083984375,1.2890625,1.301953125,1.3212890625,1.33095703125,1.32451171875,1.31484375,1.32451171875,1.34384765625,1.35673828125,1.35029296875,1.3470703125,1.3599609375,1.36640625,1.36962890625,1.37607421875,1.3986328125,1.42119140625,1.4244140625,1.44052734375,1.44375,1.43408203125,1.4630859375,1.508203125,1.533984375,1.5533203125,1.5791015625,1.5984375,1.6048828125,1.60810546875,1.5791015625,1.52109375,1.47275390625,1.42763671875,1.38251953125,1.353515625,1.327734375,1.31162109375,1.301953125,1.2955078125,1.28583984375,1.29228515625,1.3083984375,1.31484375,1.31162109375,1.31806640625,1.33095703125,1.33095703125,1.33095703125,1.30517578125,1.2955078125,1.32451171875,1.327734375,1.31484375,1.3212890625,1.33095703125,1.327734375,1.3212890625,1.32451171875,1.327734375,1.31806640625,1.32451171875,1.33095703125,1.32451171875,1.33095703125,1.340625,1.32451171875,1.31162109375,1.327734375,1.3470703125,1.34384765625,1.3341796875,1.33740234375,1.33740234375,1.33740234375,1.3470703125,1.35029296875,1.3341796875,1.3341796875,1.3470703125,1.353515625,1.3470703125,1.35029296875,1.36318359375,1.35029296875,1.3470703125,1.35673828125,1.38251953125,1.38896484375,1.3857421875,1.4115234375,1.4244140625,1.4244140625,1.43408203125,1.42763671875,1.42119140625,1.4244140625,1.405078125,1.353515625,1.31806640625,1.31806640625,1.327734375,1.34384765625,1.353515625,1.3470703125,1.31162109375,1.2697265625,1.36962890625,1.7080078125,2.19462890625,2.55234375,2.39443359375,1.817578125,1.38896484375,1.2890625,1.3083984375,1.32451171875,1.301953125,1.27939453125,1.29873046875,1.29873046875,1.30517578125,1.32451171875,1.3341796875,1.33740234375,1.340625,1.35029296875,1.36640625,1.36640625,1.34384765625,1.33740234375,1.3728515625,1.3921875,1.38896484375,1.40185546875,1.42119140625,1.4373046875,1.44375,1.45986328125,1.49853515625,1.533984375,1.53720703125,1.546875,1.5791015625,1.60166015625,1.60810546875,1.6048828125,1.58876953125,1.54365234375,1.4888671875,1.4373046875,1.3857421875,1.340625,1.3212890625,1.30517578125,1.29228515625,1.301953125,1.31806640625,1.31484375,1.3083984375,1.3083984375,1.3083984375,1.31484375,1.3083984375,1.3083984375,1.31806640625,1.31484375,1.3212890625,1.33095703125,1.340625,1.34384765625,1.3341796875,1.327734375,1.32451171875,1.3212890625,1.32451171875,1.33095703125,1.33095703125,1.33095703125,1.3341796875,1.327734375,1.3212890625,1.33740234375,1.33740234375,1.33095703125,1.3341796875,1.340625,1.34384765625,1.3341796875,1.327734375,1.3341796875,1.35673828125,1.3470703125,1.3341796875,1.35029296875,1.35673828125,1.35029296875,1.35029296875,1.3470703125,1.34384765625,1.35029296875,1.35673828125,1.3728515625,1.38896484375,1.39541015625,1.405078125,1.430859375,1.43408203125,1.4244140625,1.42763671875,1.41796875,1.36962890625,1.3212890625,1.3212890625,1.33740234375,1.33740234375,1.32451171875,1.3341796875,1.340625,1.31484375,1.3083984375,1.4501953125,1.791796875,2.24619140625,2.4814453125,2.16240234375,1.5984375,1.327734375,1.29873046875,1.29873046875,1.3083984375,1.31806640625,1.31484375,1.31162109375,1.31484375,1.32451171875,1.327734375,1.33740234375,1.340625,1.3470703125,1.35673828125,1.36318359375,1.36640625,1.37607421875,1.38896484375,1.37607421875,1.37607421875,1.40185546875,1.42119140625,1.430859375,1.4501953125,1.4630859375,1.47275390625,1.4953125,1.52431640625,1.5533203125,1.5791015625,1.5984375,1.5984375,1.60810546875,1.61455078125,1.585546875,1.5275390625,1.46630859375,1.41474609375,1.36962890625,1.340625,1.31806640625,1.29873046875,1.29873046875,1.31162109375,1.301953125,1.2955078125,1.30517578125,1.31806640625,1.32451171875,1.31806640625,1.31484375,1.33095703125,1.32451171875,1.30517578125,1.31806640625,1.33095703125,1.3341796875,1.33740234375,1.340625,1.34384765625,1.3212890625,1.3083984375,1.33740234375,1.340625,1.32451171875,1.32451171875,1.33095703125,1.3341796875,1.327734375,1.3212890625,1.327734375,1.340625,1.33740234375,1.32451171875,1.32451171875,1.3470703125,1.34384765625,1.32451171875,1.327734375,1.340625,1.3470703125,1.34384765625,1.340625,1.340625,1.340625,1.34384765625,1.34384765625,1.340625,1.3470703125,1.353515625,1.3728515625,1.39541015625,1.40185546875,1.42119140625,1.44052734375,1.42119140625,1.41474609375,1.4373046875,1.42763671875,1.38251953125,1.33095703125,1.301953125,1.3212890625,1.33740234375,1.327734375,1.33095703125,1.33740234375,1.31162109375,1.2955078125,1.42119140625,1.73701171875,2.20107421875,2.5458984375,2.34609375,1.7724609375,1.39541015625,1.301953125,1.2955078125,1.2955078125,1.2955078125,1.29873046875,1.30517578125,1.29873046875,1.301953125,1.33740234375,1.33740234375,1.3212890625,1.3341796875,1.3470703125,1.35029296875,1.353515625,1.35673828125,1.36962890625,1.39541015625,1.3921875,1.36962890625,1.3921875,1.4244140625,1.43408203125,1.45341796875,1.4759765625,1.4888671875,1.508203125,1.54365234375,1.58232421875,1.5919921875,1.585546875,1.60166015625,1.61455078125,1.5919921875,1.54365234375,1.47919921875,1.42119140625,1.379296875,1.353515625,1.3341796875,1.3212890625,1.3083984375,1.3083984375,1.30517578125,1.30517578125,1.31484375,1.31806640625,1.3212890625,1.327734375,1.327734375,1.340625,1.3341796875,1.3212890625,1.3341796875,1.34384765625,1.33095703125,1.327734375,1.31806640625,1.32451171875,1.34384765625,1.34384765625,1.33095703125,1.3341796875,1.34384765625,1.34384765625,1.3341796875,1.327734375,1.3212890625,1.32451171875,1.33740234375,1.33740234375,1.33740234375,1.33740234375,1.3341796875,1.33095703125,1.33095703125,1.33095703125,1.3212890625,1.327734375,1.34384765625,1.35029296875,1.340625,1.3341796875,1.34384765625,1.35029296875,1.3470703125,1.34384765625,1.34384765625,1.35029296875,1.36318359375,1.36640625,1.36640625,1.379296875,1.3986328125,1.4115234375,1.4373046875,1.44375,1.42763671875,1.42119140625,1.41474609375,1.3921875,1.3470703125,1.3212890625,1.32451171875,1.327734375,1.327734375,1.33740234375,1.3341796875,1.3083984375,1.2890625,1.40185546875,1.72412109375,2.18173828125,2.5330078125,2.34609375,1.740234375,1.353515625,1.29873046875,1.31162109375,1.301953125,1.2890625,1.2890625,1.301953125,1.3212890625,1.33095703125,1.327734375,1.327734375,1.32451171875,1.33095703125,1.34384765625,1.353515625,1.36318359375,1.3599609375,1.36318359375,1.38251953125,1.3921875,1.40830078125,1.4115234375,1.40830078125,1.43408203125,1.45341796875,1.46630859375,1.4953125,1.51787109375,1.53720703125,1.55654296875,1.58232421875,1.60166015625,1.611328125,1.60166015625,1.57265625,1.533984375,1.4888671875,1.44375,1.3857421875,1.34384765625,1.340625,1.31162109375,1.2826171875,1.29873046875,1.301953125,1.3083984375,1.31806640625,1.31806640625,1.3212890625,1.3212890625,1.327734375,1.33740234375,1.327734375,1.3083984375,1.31162109375,1.327734375,1.340625,1.33740234375,1.3212890625,1.31484375,1.32451171875,1.327734375,1.327734375,1.33095703125,1.33740234375,1.3212890625,1.3083984375,1.327734375,1.34384765625,1.33095703125,1.32451171875,1.32451171875,1.3212890625,1.3341796875,1.340625,1.33095703125,1.327734375,1.340625,1.34384765625,1.33740234375,1.35029296875,1.35029296875,1.33740234375,1.33740234375,1.3470703125,1.35029296875,1.353515625,1.36318359375,1.36318359375,1.379296875,1.39541015625,1.3921875,1.41474609375,1.4501953125,1.44052734375,1.42119140625,1.4244140625,1.41474609375,1.3599609375,1.3212890625,1.340625,1.340625,1.327734375,1.33095703125,1.3341796875,1.33740234375,1.31162109375,1.3212890625,1.5017578125,1.85947265625,2.30419921875,2.50400390625,2.13017578125,1.5662109375,1.31806640625,1.30517578125,1.31484375,1.3083984375,1.3083984375,1.31806640625,1.31806640625,1.32451171875,1.3341796875,1.340625,1.340625,1.3470703125,1.3470703125,1.35029296875,1.35673828125,1.36318359375,1.38251953125,1.38896484375,1.3857421875,1.39541015625,1.405078125,1.41796875,1.4373046875,1.45986328125,1.45986328125,1.456640625,1.4953125,1.546875,1.5662109375,1.56943359375,1.58876953125,1.6177734375,1.62099609375,1.60810546875,1.5791015625,1.52109375,1.4501953125,1.40185546875,1.36962890625,1.33095703125,1.31484375,1.31806640625,1.3083984375,1.30517578125,1.3083984375,1.29873046875,1.2955078125,1.29873046875,1.30517578125,1.3212890625,1.327734375,1.31806640625,1.31484375,1.33095703125,1.33740234375,1.3341796875,1.31484375,1.30517578125,1.3212890625,1.327734375,1.33095703125,1.33095703125,1.3212890625,1.327734375,1.340625,1.32451171875,1.30517578125,1.3212890625,1.32451171875,1.31162109375,1.32451171875,1.33095703125,1.3212890625,1.3212890625,1.3341796875,1.327734375,1.327734375,1.3341796875,1.32451171875,1.327734375,1.3341796875,1.3341796875,1.3341796875,1.33740234375,1.3470703125,1.35029296875,1.33740234375,1.327734375,1.3341796875,1.340625,1.3470703125,1.36318359375,1.379296875,1.38896484375,1.3921875,1.4115234375,1.44052734375,1.430859375,1.4115234375,1.4115234375,1.41474609375,1.38896484375,1.3341796875,1.31806640625,1.33095703125,1.33095703125,1.33095703125,1.33740234375,1.3341796875,1.301953125,1.2955078125,1.4373046875,1.76923828125,2.24619140625,2.55556640625,2.3138671875,1.72412109375,1.36318359375,1.3083984375,1.3083984375,1.2955078125,1.29228515625,1.2955078125,1.301953125,1.31162109375,1.31484375,1.3212890625,1.33740234375,1.340625,1.33095703125,1.33095703125,1.3470703125,1.36640625,1.36640625,1.36640625,1.379296875,1.38896484375,1.39541015625,1.41474609375,1.4373046875,1.44052734375,1.44375,1.46630859375,1.4953125,1.52431640625,1.5533203125,1.57265625,1.58232421875,1.58876953125,1.61455078125,1.62744140625,1.59521484375,1.53720703125,1.4759765625,1.42763671875,1.39541015625,1.36962890625,1.33740234375,1.32451171875,1.32451171875,1.3212890625,1.31484375,1.31484375,1.327734375,1.327734375,1.32451171875,1.3341796875,1.33740234375,1.3341796875,1.3341796875,1.33740234375,1.3470703125,1.34384765625,1.33740234375,1.340625,1.3470703125,1.35029296875,1.327734375,1.31806640625,1.340625,1.34384765625,1.3341796875,1.3341796875,1.340625,1.34384765625,1.353515625,1.3470703125,1.340625,1.35029296875,1.3599609375,1.3599609375,1.3470703125,1.33095703125,1.34384765625,1.35673828125,1.353515625,1.34384765625,1.3470703125,1.36318359375,1.36962890625,1.353515625,1.353515625,1.3599609375,1.36318359375,1.36318359375,1.36318359375,1.36318359375,1.3599609375,1.3599609375,1.38251953125,1.40830078125,1.41796875,1.42763671875,1.4373046875,1.4373046875,1.4373046875,1.4373046875,1.4373046875,1.3986328125,1.340625,1.3212890625,1.34384765625,1.33740234375,1.31162109375,1.31806640625,1.33740234375,1.33095703125,1.2955078125,1.35673828125,1.63388671875,2.07861328125,2.48466796875,2.41376953125,1.84658203125,1.38251953125,1.27294921875,1.27939453125,1.276171875,1.27939453125,1.2826171875,1.2826171875,1.28583984375,1.2826171875,1.28583984375,1.29228515625,1.3083984375,1.3083984375,1.29873046875,1.301953125,1.3083984375,1.31806640625,1.31484375,1.31484375,1.32451171875,1.33095703125,1.34384765625,1.36318359375,1.36640625,1.37607421875,1.3921875,1.40830078125,1.41796875,1.44052734375,1.47275390625,1.482421875,1.4888671875
1.3341796875,1.327734375,1.32451171875,1.33095703125,1.33740234375,1.32451171875,1.31484375,1.33095703125,1.34384765625,1.33740234375,1.327734375,1.32451171875,1.33095703125,1.34384765625,1.3341796875,1.3083984375,1.32451171875,1.353515625,1.35029296875,1.34384765625,1.34384765625,1.33740234375,1.3341796875,1.35029296875,1.35673828125,1.33740234375,1.33740234375,1.3599609375,1.37607421875,1.3986328125,1.41474609375,1.430859375,1.44375,1.45341796875,1.42763671875,1.3921875,1.37607421875,1.3470703125,1.33095703125,1.3341796875,1.33095703125,1.327734375,1.33095703125,1.3341796875,1.3341796875,1.30517578125,1.301953125,1.49853515625,1.91748046875,2.39443359375,2.54267578125,2.11728515625,1.56298828125,1.3212890625,1.301953125,1.31162109375,1.301953125,1.2826171875,1.2826171875,1.3083984375,1.3083984375,1.2890625,1.31162109375,1.340625,1.340625,1.33740234375,1.340625,1.35029296875,1.3599609375,1.36318359375,1.353515625,1.36640625,1.38896484375,1.40185546875,1.40830078125,1.42119140625,1.44375,1.45341796875,1.46953125,1.49853515625,1.52431640625,1.53076171875,1.55009765625,1.5919921875,1.6048828125,1.60810546875,1.611328125,1.5662109375,1.4953125,1.44375,1.40185546875,1.36318359375,1.3341796875,1.31484375,1.3212890625,1.32451171875,1.31806640625,1.31162109375,1.31484375,1.327734375,1.31484375,1.301953125,1.31484375,1.31806640625,1.31806640625,1.3212890625,1.327734375,1.3341796875,1.3341796875,1.32451171875,1.31484375,1.32451171875,1.33095703125,1.3212890625,1.31484375,1.31162109375,1.31162109375,1.31806640625,1.32451171875,1.3212890625,1.3341796875,1.33740234375,1.31806640625,1.31162109375,1.33095703125,1.340625,1.340625,1.32451171875,1.31162109375,1.32451171875,1.34384765625,1.3470703125,1.327734375,1.33095703125,1.35029296875,1.353515625,1.35029296875,1.353515625,1.35029296875,1.35029296875,1.379296875,1.3986328125,1.38896484375,1.39541015625,1.41796875,1.43408203125,1.44697265625,1.44375,1.42119140625,1.38251953125,1.3341796875,1.31806640625,1.3341796875,1.3341796875,1.33095703125,1.33095703125,1.32451171875,1.31484375,1.29873046875,1.3470703125,1.585546875,2.0044921875,2.4556640625,2.51689453125,2.0173828125,1.4759765625,1.28583984375,1.29873046875,1.31806640625,1.31484375,1.28583984375,1.2826171875,1.3083984375,1.31484375,1.3212890625,1.3341796875,1.340625,1.34384765625,1.340625,1.3341796875,1.3470703125,1.36318359375,1.36962890625,1.38251953125,1.3857421875,1.3857421875,1.3921875,1.40830078125,1.4373046875,1.45341796875,1.45341796875,1.47275390625,1.50498046875,1.52431640625,1.56298828125,1.58232421875,1.5791015625,1.59521484375,1.60166015625,1.58232421875,1.5404296875,1.49208984375,1.4373046875,1.38896484375,1.35673828125,1.32451171875,1.3083984375,1.3083984375,1.30517578125,1.30517578125,1.301953125,1.3083984375,1.30517578125,1.3083984375,1.3212890625,1.32451171875,1.33095703125,1.3341796875,1.340625,1.34384765625,1.3083984375,1.2955078125,1.33095703125,1.33740234375,1.3212890625,1.31806640625,1.32451171875,1.327734375,1.327734375,1.33095703125,1.33095703125,1.32451171875,1.3083984375,1.32451171875,1.34384765625,1.327734375,1.32451171875,1.327734375,1.32451171875,1.3341796875,1.3470703125,1.33740234375,1.3212890625,1.33095703125,1.340625,1.3470703125,1.3470703125,1.33740234375,1.34384765625,1.35673828125,1.36318359375,1.37607421875,1.38896484375,1.42119140625,1.4373046875,1.41796875,1.40830078125,1.41796875,1.40830078125,1.35029296875,1.3083984375,1.32451171875,1.3341796875,1.327734375,1.33095703125,1.327734375,1.32451171875,1.31806640625,1.30517578125,1.4244140625,1.740234375,2.19462890625,2.49755859375,2.230078125,1.637109375,1.3212890625,1.2955078125,1.31162109375,1.3212890625,1.31806640625,1.29873046875,1.30517578125,1.3212890625,1.3212890625,1.327734375,1.3341796875,1.340625,1.34384765625,1.353515625,1.3599609375,1.3599609375,1.36962890625,1.38896484375,1.379296875,1.36962890625,1.39541015625,1.4244140625,1.4244140625,1.44052734375,1.46630859375,1.46953125,1.4953125,1.53720703125,1.5533203125,1.56298828125,1.58232421875,1.61455078125,1.611328125,1.57587890625,1.5533203125,1.52431640625,1.46630859375,1.3986328125,1.3599609375,1.34384765625,1.31484375,1.3083984375,1.327734375,1.3212890625,1.30517578125,1.2955078125,1.30517578125,1.31806640625,1.32451171875,1.31806640625,1.32451171875,1.33095703125,1.31806640625,1.31484375,1.3341796875,1.340625,1.3341796875,1.3341796875,1.33740234375,1.33740234375,1.340625,1.327734375,1.31484375,1.3212890625,1.340625,1.33095703125,1.31484375,1.33095703125,1.33740234375,1.3470703125,1.35029296875,1.33740234375,1.32451171875,1.3341796875,1.34384765625,1.34384765625,1.34384765625,1.3470703125,1.3470703125,1.34384765625,1.3470703125,1.35029296875,1.35029296875,1.35673828125,1.36640625,1.353515625,1.353515625,1.36318359375,1.37607421875,1.38896484375,1.38896484375,1.4115234375,1.4373046875,1.44697265625,1.45986328125,1.44697265625,1.3986328125,1.35673828125,1.34384765625,1.33095703125,1.327734375,1.340625,1.3470703125,1.340625,1.3212890625,1.301953125,1.30517578125,1.38251953125,1.63388671875,2.07216796875,2.50400390625,2.45888671875,1.91103515625,1.45341796875,1.31806640625,1.30517578125,1.29228515625,1.2890625,1.2955078125,1.30517578125,1.3083984375,1.3083984375,1.3212890625,1.3212890625,1.32451171875,1.35029296875,1.3470703125,1.33740234375,1.3599609375,1.37607421875,1.3599609375,1.35673828125,1.379296875,1.38896484375,1.40185546875,1.4244140625,1.43408203125,1.4373046875,1.46630859375,1.49208984375,1.49853515625,1.5275390625,1.559765625,1.57587890625,1.585546875,1.58876953125,1.58232421875,1.559765625,1.52431640625,1.4888671875,1.430859375,1.36640625,1.340625,1.33740234375,1.31806640625,1.2955078125,1.30517578125,1.31162109375,1.3083984375,1.31162109375,1.31162109375,1.31484375,1.3212890625,1.3212890625,1.31806640625,1.3212890625,1.327734375,1.32451171875,1.327734375,1.327734375,1.3212890625,1.327734375,1.327734375,1.32451171875,1.3341796875,1.32451171875,1.31162109375,1.32451171875,1.340625,1.33740234375,1.3212890625,1.32451171875,1.34384765625,1.33740234375,1.31806640625,1.3212890625,1.3341796875,1.3341796875,1.3341796875,1.33740234375,1.33740234375,1.3341796875,1.33095703125,1.3341796875,1.34384765625,1.34384765625,1.34384765625,1.34384765625,1.34384765625,1.34384765625,1.34384765625,1.3470703125,1.35029296875,1.35029296875,1.3599609375,1.379296875,1.3921875,1.39541015625,1.41796875,1.44697265625,1.44052734375,1.4244140625,1.42119140625,1.4115234375,1.36640625,1.327734375,1.3341796875,1.327734375,1.31484375,1.33095703125,1.34384765625,1.340625,1.31162109375,1.2955078125,1.40185546875,1.6951171875,2.16240234375,2.539453125,2.37509765625,1.78857421875,1.379296875,1.2890625,1.29873046875,1.30517578125,1.3083984375,1.31162109375,1.33095703125,1.31162109375,1.29228515625,1.327734375,1.35673828125,1.35673828125,1.340625,1.353515625,1.37607421875,1.3728515625,1.3728515625,1.38251953125,1.38896484375,1.39541015625,1.405078125,1.41796875,1.4244140625,1.44375,1.4501953125,1.44375,1.47919921875,1.533984375,1.5533203125,1.559765625,1.58232421875,1.5984375,1.6048828125,1.60810546875,1.58876953125,1.55009765625,1.46953125,1.3857421875,1.36318359375,1.353515625,1.3341796875,1.31806640625,1.301953125,1.2955078125,1.3083984375,1.31162109375,1.31806640625,1.3212890625,1.31806640625,1.31806640625,1.30517578125,1.29873046875,1.31484375,1.3341796875,1.33740234375,1.327734375,1.3212890625,1.33740234375,1.34384765625,1.31806640625,1.29228515625,1.31484375,1.34384765625,1.33095703125,1.31162109375,1.31484375,1.33095703125,1.34384765625,1.33740234375,1.3212890625,1.3212890625,1.33740234375,1.33740234375,1.32451171875,1.327734375,1.3341796875,1.32451171875,1.327734375,1.340625,1.33740234375,1.33740234375,1.35029296875,1.34384765625,1.33740234375,1.35029296875,1.36962890625,1.38251953125,1.3857421875,1.38896484375,1.405078125,1.41796875,1.43408203125,1.4501953125,1.4244140625,1.36640625,1.31806640625,1.31806640625,1.33095703125,1.34384765625,1.34384765625,1.33095703125,1.33095703125,1.32451171875,1.2890625,1.327734375,1.5662109375,1.98193359375,2.40732421875,2.4234375,1.92392578125,1.44697265625,1.2955078125,1.31484375,1.31484375,1.2826171875,1.29873046875,1.32451171875,1.327734375,1.33095703125,1.33095703125,1.3341796875,1.33740234375,1.3341796875,1.340625,1.3599609375,1.36962890625,1.36318359375,1.36640625,1.36640625,1.37607421875,1.405078125,1.41796875,1.42119140625,1.4373046875,1.45341796875,1.4759765625,1.49208984375,1.508203125,1.5404296875,1.5662109375,1.57265625,1.57587890625,1.59521484375,1.60810546875,1.5919921875,1.55009765625,1.4953125,1.44052734375,1.3921875,1.35673828125,1.31484375,1.301953125,1.3083984375,1.30517578125,1.301953125,1.301953125,1.30517578125,1.3083984375,1.3212890625,1.3212890625,1.31484375,1.3212890625,1.327734375,1.327734375,1.327734375,1.327734375,1.31484375,1.31484375,1.327734375,1.32451171875,1.31806640625,1.31806640625,1.327734375,1.3341796875,1.33740234375,1.327734375,1.3212890625,1.3341796875,1.32451171875,1.31806640625,1.3341796875,1.33095703125,1.3212890625,1.3341796875,1.35029296875,1.33740234375,1.32451171875,1.34384765625,1.35673828125,1.3470703125,1.327734375,1.33095703125,1.34384765625,1.34384765625,1.3470703125,1.35029296875,1.35673828125,1.3599609375,1.36640625,1.3857421875,1.405078125,1.41796875,1.4244140625,1.4373046875,1.44375,1.43408203125,1.42763671875,1.3857421875,1.33095703125,1.31484375,1.31484375,1.33095703125,1.33740234375,1.34384765625,1.3470703125,1.31806640625,1.2826171875,1.3599609375,1.63388671875,2.05927734375,2.475,2.47177734375,1.94970703125,1.45986328125,1.301953125,1.301953125,1.3083984375,1.301953125,1.2955078125,1.301953125,1.3083984375,1.31484375,1.31806640625,1.31484375,1.3212890625,1.33740234375,1.340625,1.33740234375,1.35673828125,1.36640625,1.36640625,1.36640625,1.37607421875,1.39541015625,1.4115234375,1.405078125,1.40830078125,1.44375,1.47919921875,1.49208984375,1.4953125,1.51142578125,1.546875,1.58876953125,1.5919921875,1.58232421875,1.5984375,1.58232421875,1.53720703125,1.4888671875,1.430859375,1.37607421875,1.340625,1.327734375,1.3212890625,1.31162109375,1.30517578125,1.31484375,1.31806640625,1.301953125,1.30517578125,1.3341796875,1.33095703125,1.31162109375,1.31162109375,1.327734375,1.33095703125,1.31806640625,1.3212890625,1.327734375,1.31806640625,1.31484375,1.3212890625,1.3212890625,1.31484375,1.3341796875,1.340625,1.32451171875,1.3212890625,1.3341796875,1.3341796875,1.33095703125,1.327734375,1.3212890625,1.32451171875,1.33095703125,1.340625,1.34384765625,1.340625,1.35029296875,1.35029296875,1.33095703125,1.31806640625,1.33740234375,1.35673828125,1.35029296875,1.34384765625,1.3470703125,1.3599609375,1.3599609375,1.353515625,1.35673828125,1.36962890625,1.3857421875,1.3857421875,1.39541015625,1.4244140625,1.44697265625,1.44375,1.43408203125,1.430859375,1.42763671875,1.36640625,1.31484375,1.32451171875,1.33740234375,1.33740234375,1.33095703125,1.33740234375,1.3470703125,1.32451171875,1.2955078125,1.3921875,1.70478515625,2.178515625,2.55234375,2.384765625,1.77568359375,1.36962890625,1.30517578125,1.31162109375,1.30517578125,1.301953125,1.301953125,1.31162109375,1.31162109375,1.31162109375,1.32451171875,1.3341796875,1.3341796875,1.33740234375,1.35029296875,1.35029296875,1.35673828125,1.36962890625,1.38251953125,1.3921875,1.38251953125,1.38896484375,1.41474609375,1.42763671875,1.44052734375,1.456640625,1.47919921875,1.4953125,1.5146484375,1.533984375,1.559765625,1.585546875,1.59521484375,1.60166015625,1.60166015625,1.57265625,1.5275390625,1.46953125,1.41796875,1.379296875,1.34384765625,1.33095703125,1.3212890625,1.3083984375,1.3083984375,1.31806640625,1.30517578125,1.29228515625,1.31162109375,1.327734375,1.32451171875,1.31806640625,1.31806640625,1.3212890625,1.327734375,1.340625,1.3341796875,1.327734375,1.33095703125,1.3212890625,1.3212890625,1.31806640625,1.3083984375,1.3212890625,1.33740234375,1.32451171875,1.31484375,1.3212890625,1.32451171875,1.327734375,1.32451171875,1.33095703125,1.3470703125,1.31806640625,1.29873046875,1.33095703125,1.3470703125,1.3341796875,1.3341796875,1.35029296875,1.3470703125,1.33740234375,1.3470703125,1.33740234375,1.31806640625,1.340625,1.36318359375,1.36962890625,1.38251953125,1.39541015625,1.40830078125,1.42763671875,1.44052734375,1.430859375,1.41474609375,1.39541015625,1.3470703125,1.3212890625,1.32451171875,1.3212890625,1.3212890625,1.327734375,1.33740234375,1.33740234375,1.31162109375,1.2890625,1.3986328125,1.7080078125,2.16240234375,2.4814453125,2.26875,1.69189453125,1.34384765625,1.29228515625,1.31162109375,1.31162109375,1.29228515625,1.28583984375,1.31162109375,1.327734375,1.31484375,1.31806640625,1.327734375,1.33740234375,1.35029296875,1.353515625,1.353515625,1.36318359375,1.36640625,1.36640625,1.37607421875,1.38896484375,1.3986328125,1.405078125,1.430859375,1.44052734375,1.4373046875,1.46630859375,1.508203125,1.533984375,1.53720703125,1.54365234375,1.58232421875,1.611328125,1.60810546875,1.5984375,1.5791015625,1.53076171875,1.46630859375,1.40830078125,1.37607421875,1.34384765625,1.30517578125,1.29873046875,1.31806640625,1.3083984375,1.2890625,1.29873046875,1.31162109375,1.3083984375,1.31162109375,1.32451171875,1.33095703125,1.31806640625,1.31162109375,1.31484375,1.31806640625,1.3212890625,1.32451171875,1.327734375,1.3212890625,1.32451171875,1.327734375,1.33740234375,1.3341796875,1.31806640625,1.31806640625,1.33095703125,1.327734375,1.3212890625,1.3212890625,1.3212890625,1.32451171875,1.3341796875,1.35029296875,1.3470703125,1.3341796875,1.340625,1.34384765625,1.33095703125,1.33740234375,1.34384765625,1.3341796875,1.340625,1.353515625,1.34384765625,1.3470703125,1.353515625,1.353515625,1.353515625,1.3599609375,1.36962890625,1.3728515625,1.3857421875,1.39541015625,1.40830078125,1.4373046875,1.45986328125,1.456640625,1.42119140625,1.3857421875,1.3728515625,1.3470703125,1.33740234375,1.340625,1.340625,1.340625,1.340625,1.33740234375,1.32451171875,1.29873046875,1.39541015625,1.6693359375,2.08828125,2.50400390625,2.4556640625,1.90458984375,1.44375,1.3212890625,1.3212890625,1.31162109375,1.30517578125,1.31162109375,1.31162109375,1.31162109375,1.31806640625,1.33740234375,1.3470703125,1.340625,1.3470703125,1.35673828125,1.353515625,1.3599609375,1.379296875,1.3857421875,1.38896484375,1.3986328125,1.40830078125,1.41474609375,1.42119140625,1.44375,1.46953125,1.482421875,1.4953125,1.52109375,1.5404296875,1.55654296875,1.5791015625,1.60810546875,1.6177734375,1.611328125,1.5919921875,1.5533203125,1.4888671875,1.4373046875,1.38896484375,1.35673828125,1.34384765625,1.327734375,1.31806640625,1.31806640625,1.32451171875,1.32451171875,1.3212890625,1.31806640625,1.31806640625,1.33095703125,1.340625,1.33095703125,1.33740234375,1.340625,1.31484375,1.31806640625,1.3470703125,1.353515625,1.340625,1.327734375,1.32451171875,1.34384765625,1.340625,1.31806640625,1.31806640625,1.340625,1.340625,1.33095703125,1.32451171875,1.327734375,1.3341796875,1.33740234375,1.3341796875,1.33740234375,1.3341796875,1.327734375,1.33740234375,1.3341796875,1.32451171875,1.33740234375,1.340625,1.33095703125,1.33095703125,1.340625,1.34384765625,1.33740234375,1.33740234375,1.340625,1.3341796875,1.3341796875,1.353515625,1.3599609375,1.3599609375,1.3728515625,1.3921875,1.4115234375,1.42763671875,1.41474609375,1.40830078125,1.41474609375,1.38896484375,1.33095703125,1.29873046875,1.30517578125,1.31484375,1.31162109375,1.31162109375,1.31162109375,1.301953125,1.27939453125,1.2826171875,1.4373046875,1.791796875,2.2623046875,2.5201171875,2.2107421875,1.62099609375,1.3083984375,1.26650390625,1.2697265625,1.2697265625,1.26650390625,1.26650390625,1.276171875,1.2826171875,1.28583984375,1.2955078125,1.301953125,1.30517578125,1.31162109375,1.33095703125,1.3341796875,1.327734375,1.3341796875,1.35029296875,1.36640625,1.36962890625,1.36318359375,1.37607421875,1.405078125,1.4244140625,1.4373046875,1.45341796875,1.47275390625,1.5017578125,1.52109375,1.53720703125,1.5662109375,1.5919921875,1.5984375,1.58232421875,1.559765625,1.51787109375,1.456640625,1.40185546875,1.36640625,1.340625,1.327734375,1.31162109375,1.3083984375,1.32451171875,1.31806640625,1.31484375,1.340625,1.3470703125,1.33740234375,1.3341796875,1.3470703125,1.3599609375,1.36640625,1.379296875,1.38896484375,1.37607421875,1.37607421875,1.38896484375,1.39541015625,1.405078125,1.4115234375,1.4115234375,1.4115234375,1.42119140625
1.33095703125,1.33095703125,1.3341796875,1.3341796875,1.3341796875,1.3341796875,1.33095703125,1.33095703125,1.327734375,1.327734375,1.3341796875,1.3341796875,1.33095703125,1.33095703125,1.3341796875,1.3341796875,1.3341796875,1.33740234375,1.340625,1.340625,1.340625,1.34384765625,1.3470703125,1.34384765625,1.34384765625,1.3470703125,1.3470703125,1.353515625,1.35029296875,1.35029296875,1.353515625,1.3599609375,1.36962890625,1.38251953125,1.39541015625,1.40185546875,1.41474609375,1.4373046875,1.44375,1.43408203125,1.430859375,1.42119140625,1.38251953125,1.3341796875,1.327734375,1.340625,1.34384765625,1.340625,1.340625,1.3470703125,1.33095703125,1.301953125,1.379296875,1.64677734375,2.07216796875,2.462109375,2.39443359375,1.8626953125,1.42119140625,1.29873046875,1.301953125,1.29873046875,1.2955078125,1.2955078125,1.301953125,1.31162109375,1.31484375,1.3212890625,1.33095703125,1.33740234375,1.34384765625,1.3470703125,1.35029296875,1.35673828125,1.3599609375,1.36962890625,1.37607421875,1.38251953125,1.3857421875,1.3986328125,1.41474609375,1.42763671875,1.44375,1.4630859375,1.48564453125,1.508203125,1.53076171875,1.55654296875,1.5791015625,1.5984375,1.611328125,1.611328125,1.59521484375,1.55009765625,1.49208984375,1.44052734375,1.3921875,1.353515625,1.327734375,1.31484375,1.3083984375,1.301953125,1.301953125,1.301953125,1.301953125,1.30517578125,1.30517578125,1.31162109375,1.31806640625,1.31806640625,1.3212890625,1.3212890625,1.32451171875,1.32451171875,1.32451171875,1.327734375,1.33095703125,1.3341796875,1.33095703125,1.33095703125,1.33095703125,1.33095703125,1.33095703125,1.33095703125,1.33095703125,1.3341796875,1.3341796875,1.3341796875,1.3341796875,1.33740234375,1.340625,1.340625,1.340625,1.340625,1.34384765625,1.3470703125,1.34384765625,1.3470703125,1.35029296875,1.35029296875,1.35029296875,1.3470703125,1.35029296875,1.35029296875,1.35029296875,1.35029296875,1.35029296875,1.35029296875,1.35029296875,1.3470703125,1.35029296875,1.3599609375,1.37607421875,1.3921875,1.3986328125,1.40830078125,1.430859375,1.44697265625,1.4373046875,1.42763671875,1.42763671875,1.405078125,1.353515625,1.3212890625,1.33095703125,1.33740234375,1.33740234375,1.33740234375,1.340625,1.3341796875,1.3083984375,1.31162109375,1.49208984375,1.869140625,2.34609375,2.55234375,2.1849609375,1.6177734375,1.33095703125,1.29228515625,1.301953125,1.29873046875,1.2955078125,1.2955078125,1.301953125,1.31162109375,1.31484375,1.3212890625,1.33095703125,1.33095703125,1.33740234375,1.34384765625,1.35029296875,1.3599609375,1.36640625,1.36962890625,1.37607421875,1.3857421875,1.39541015625,1.40830078125,1.4244140625,1.43408203125,1.45341796875,1.47275390625,1.49208984375,1.51787109375,1.5404296875,1.5662109375,1.58876953125,1.6048828125,1.61455078125,1.6048828125,1.5791015625,1.53076171875,1.47275390625,1.41796875,1.36962890625,1.33740234375,1.31484375,1.30517578125,1.30517578125,1.301953125,1.30517578125,1.3083984375,1.3083984375,1.3083984375,1.31162109375,1.3212890625,1.32451171875,1.32451171875,1.32451171875,1.32451171875,1.32451171875,1.327734375,1.327734375,1.327734375,1.32451171875,1.327734375,1.32451171875,1.32451171875,1.327734375,1.32451171875,1.32451171875,1.327734375,1.327734375,1.33095703125,1.327734375,1.33095703125,1.327734375,1.33095703125,1.3341796875,1.3341796875,1.3341796875,1.3341796875,1.3341796875,1.3341796875,1.33740234375,1.34384765625,1.34384765625,1.34384765625,1.3470703125,1.3470703125,1.35029296875,1.353515625,1.353515625,1.35029296875,1.353515625,1.35673828125,1.3599609375,1.36640625,1.3857421875,1.3986328125,1.405078125,1.42119140625,1.44052734375,1.44697265625,1.4373046875,1.430859375,1.4115234375,1.3599609375,1.327734375,1.33095703125,1.33740234375,1.33740234375,1.34384765625,1.3470703125,1.3470703125,1.327734375,1.31162109375,1.42763671875,1.740234375,2.18173828125,2.49755859375,2.2751953125,1.688671875,1.33740234375,1.28583984375,1.31162109375,1.31484375,1.31162109375,1.31162109375,1.31484375,1.3212890625,1.32451171875,1.327734375,1.340625,1.34384765625,1.3470703125,1.35029296875,1.353515625,1.3599609375,1.36962890625,1.379296875,1.38251953125,1.3857421875,1.3986328125,1.40830078125,1.4244140625,1.4373046875,1.4501953125,1.46953125,1.4888671875,1.5146484375,1.533984375,1.55654296875,1.5791015625,1.5984375,1.611328125,1.6048828125,1.58232421875,1.5404296875,1.482421875,1.42763671875,1.38251953125,1.340625,1.31806640625,1.3083984375,1.301953125,1.29873046875,1.29228515625,1.2955078125,1.29873046875,1.301953125,1.30517578125,1.3083984375,1.31484375,1.31484375,1.3212890625,1.3212890625,1.31806640625,1.3212890625,1.3212890625,1.32451171875,1.32451171875,1.3212890625,1.32451171875,1.3212890625,1.32451171875,1.32451171875,1.327734375,1.327734375,1.327734375,1.33095703125,1.33095703125,1.33095703125,1.33740234375,1.33740234375,1.33740234375,1.33740234375,1.340625,1.34384765625,1.340625,1.34384765625,1.34384765625,1.34384765625,1.3470703125,1.3470703125,1.35029296875,1.35029296875,1.35029296875,1.35673828125,1.36640625,1.3857421875,1.39541015625,1.40185546875,1.42119140625,1.4373046875,1.4373046875,1.43408203125,1.430859375,1.42119140625,1.36962890625,1.32451171875,1.32451171875,1.3341796875,1.33740234375,1.3341796875,1.33740234375,1.34384765625,1.31806640625,1.2955078125,1.38896484375,1.67578125,2.11728515625,2.487890625,2.36865234375,1.8111328125,1.39541015625,1.29228515625,1.29228515625,1.29228515625,1.29228515625,1.2955078125,1.29873046875,1.30517578125,1.31162109375,1.31806640625,1.327734375,1.3341796875,1.33740234375,1.34384765625,1.3470703125,1.353515625,1.3599609375,1.36640625,1.37607421875,1.38251953125,1.3921875,1.3986328125,1.40830078125,1.42763671875,1.44375,1.4630859375,1.48564453125,1.51142578125,1.53720703125,1.559765625,1.58232421875,1.5984375,1.611328125,1.611328125,1.58876953125,1.54365234375,1.4888671875,1.4373046875,1.38896484375,1.35029296875,1.327734375,1.31484375,1.3083984375,1.31162109375,1.31162109375,1.31162109375,1.31484375,1.31484375,1.31806640625,1.3212890625,1.32451171875,1.3212890625,1.32451171875,1.327734375,1.33095703125,1.33095703125,1.33095703125,1.33095703125,1.33740234375,1.33740234375,1.3341796875,1.3341796875,1.33095703125,1.33095703125,1.33095703125,1.33095703125,1.3341796875,1.33740234375,1.340625,1.33740234375,1.33740234375,1.33740234375,1.33740234375,1.33740234375,1.3341796875,1.3341796875,1.33740234375,1.33740234375,1.33740234375,1.3341796875,1.33740234375,1.340625,1.34384765625,1.34384765625,1.34384765625,1.3470703125,1.35029296875,1.35029296875,1.35029296875,1.35029296875,1.35029296875,1.35029296875,1.35029296875,1.35673828125,1.36962890625,1.3857421875,1.40185546875,1.40830078125,1.42763671875,1.44375,1.44375,1.4373046875,1.43408203125,1.42119140625,1.36640625,1.32451171875,1.327734375,1.3341796875,1.340625,1.33740234375,1.340625,1.340625,1.31806640625,1.29873046875,1.4115234375,1.73056640625,2.204296875,2.54912109375,2.358984375,1.77890625,1.38251953125,1.2955078125,1.29873046875,1.29228515625,1.28583984375,1.2890625,1.29873046875,1.30517578125,1.31484375,1.32451171875,1.33095703125,1.3341796875,1.3341796875,1.34384765625,1.353515625,1.35673828125,1.3599609375,1.36640625,1.37607421875,1.3857421875,1.3921875,1.405078125,1.41796875,1.43408203125,1.4501953125,1.46953125,1.4888671875,1.51142578125,1.5404296875,1.56298828125,1.585546875,1.6048828125,1.61455078125,1.61455078125,1.5919921875,1.5533203125,1.49853515625,1.4373046875,1.38896484375,1.35029296875,1.33095703125,1.31484375,1.3083984375,1.3083984375,1.3083984375,1.31162109375,1.31806640625,1.31806640625,1.3212890625,1.32451171875,1.33095703125,1.33095703125,1.327734375,1.33095703125,1.33095703125,1.33095703125,1.327734375,1.33095703125,1.33095703125,1.327734375,1.327734375,1.327734375,1.327734375,1.33095703125,1.3341796875,1.3341796875,1.3341796875,1.33740234375,1.340625,1.340625,1.34384765625,1.3470703125,1.34384765625,1.34384765625,1.33740234375,1.340625,1.340625,1.340625,1.34384765625,1.3470703125,1.3470703125,1.3470703125,1.3470703125,1.34384765625,1.340625,1.340625,1.34384765625,1.34384765625,1.34384765625,1.34384765625,1.35029296875,1.35673828125,1.353515625,1.36640625,1.3857421875,1.39541015625,1.39541015625,1.40830078125,1.43408203125,1.44375,1.44052734375,1.430859375,1.41796875,1.37607421875,1.33095703125,1.33095703125,1.340625,1.340625,1.340625,1.33740234375,1.340625,1.33095703125,1.30517578125,1.36962890625,1.62099609375,2.03994140625,2.4427734375,2.39765625,1.85947265625,1.3986328125,1.27939453125,1.301953125,1.31484375,1.31162109375,1.3083984375,1.31162109375,1.31806640625,1.3212890625,1.32451171875,1.33095703125,1.33740234375,1.34384765625,1.35029296875,1.35673828125,1.3599609375,1.36318359375,1.36962890625,1.37607421875,1.3857421875,1.3921875,1.40185546875,1.41474609375,1.42763671875,1.44375,1.45986328125,1.482421875,1.5017578125,1.52431640625,1.55009765625,1.57587890625,1.59521484375,1.60810546875,1.60810546875,1.5984375,1.559765625,1.50498046875,1.44697265625,1.3921875,1.35673828125,1.327734375,1.3083984375,1.30517578125,1.29873046875,1.29873046875,1.29873046875,1.30517578125,1.30517578125,1.3083984375,1.31484375,1.31484375,1.31162109375,1.31806640625,1.327734375,1.327734375,1.32451171875,1.327734375,1.33095703125,1.327734375,1.327734375,1.327734375,1.33095703125,1.33095703125,1.327734375,1.33095703125,1.3341796875,1.3341796875,1.33095703125,1.3341796875,1.3341796875,1.33095703125,1.33740234375,1.340625,1.340625,1.340625,1.340625,1.34384765625,1.34384765625,1.340625,1.34384765625,1.3470703125,1.3470703125,1.3470703125,1.35029296875,1.353515625,1.353515625,1.353515625,1.35673828125,1.35673828125,1.35673828125,1.3599609375,1.36962890625,1.38896484375,1.3986328125,1.40185546875,1.41796875,1.4373046875,1.4373046875,1.430859375,1.430859375,1.42119140625,1.38251953125,1.3341796875,1.327734375,1.340625,1.340625,1.340625,1.340625,1.340625,1.327734375,1.301953125,1.3857421875,1.66611328125,2.11083984375,2.4943359375,2.384765625,1.8369140625,1.4115234375,1.29873046875,1.301953125,1.29873046875,1.29873046875,1.29873046875,1.30517578125,1.31484375,1.3212890625,1.327734375,1.33095703125,1.3341796875,1.340625,1.34384765625,1.35029296875,1.35673828125,1.3599609375,1.36640625,1.36962890625,1.379296875,1.38896484375,1.3986328125,1.4115234375,1.42119140625,1.4373046875,1.45986328125,1.47919921875,1.5017578125,1.52431640625,1.5533203125,1.57587890625,1.59521484375,1.60810546875,1.60810546875,1.5919921875,1.5533203125,1.49853515625,1.44375,1.39541015625,1.353515625,1.327734375,1.31484375,1.3083984375,1.301953125,1.30517578125,1.30517578125,1.3083984375,1.31162109375,1.31162109375,1.31806640625,1.3212890625,1.31806640625,1.3212890625,1.32451171875,1.327734375,1.32451171875,1.32451171875,1.327734375,1.327734375,1.327734375,1.33095703125,1.33095703125,1.33095703125,1.33095703125,1.327734375,1.33095703125,1.3341796875,1.33740234375,1.3341796875,1.3341796875,1.33740234375,1.33740234375,1.340625,1.340625,1.340625,1.34384765625,1.34384765625,1.3470703125,1.34384765625,1.3470703125,1.3470703125,1.35029296875,1.35029296875,1.3470703125,1.3470703125,1.353515625,1.353515625,1.353515625,1.353515625,1.353515625,1.35673828125,1.353515625,1.35673828125,1.36318359375,1.379296875,1.3986328125,1.405078125,1.41474609375,1.4373046875,1.4501953125,1.44697265625,1.44052734375,1.4373046875,1.41796875,1.36640625,1.327734375,1.327734375,1.33740234375,1.33740234375,1.33740234375,1.340625,1.33740234375,1.31162109375,1.301953125,1.45341796875,1.80791015625,2.28486328125,2.55234375,2.255859375,1.67900390625,1.35029296875,1.2890625,1.2955078125,1.2890625,1.28583984375,1.2890625,1.29873046875,1.3083984375,1.31484375,1.3212890625,1.327734375,1.33095703125,1.33740234375,1.34384765625,1.35029296875,1.353515625,1.36318359375,1.36962890625,1.3728515625,1.379296875,1.3921875,1.40185546875,1.41474609375,1.42763671875,1.44697265625,1.46630859375,1.482421875,1.50498046875,1.53076171875,1.55654296875,1.58232421875,1.60166015625,1.611328125,1.60166015625,1.58232421875,1.54365234375,1.4888671875,1.43408203125,1.38251953125,1.3470703125,1.327734375,1.31162109375,1.3083984375,1.30517578125,1.30517578125,1.31162109375,1.31484375,1.31806640625,1.31484375,1.3212890625,1.327734375,1.32451171875,1.327734375,1.33095703125,1.33095703125,1.33095703125,1.327734375,1.32451171875,1.32451171875,1.327734375,1.327734375,1.327734375,1.327734375,1.327734375,1.33095703125,1.33095703125,1.33095703125,1.3341796875,1.3341796875,1.3341796875,1.33740234375,1.33740234375,1.340625,1.340625,1.340625,1.340625,1.34384765625,1.3470703125,1.34384765625,1.34384765625,1.34384765625,1.34384765625,1.35029296875,1.353515625,1.353515625,1.3470703125,1.34384765625,1.35029296875,1.35029296875,1.35673828125,1.35673828125,1.353515625,1.36318359375,1.38251953125,1.39541015625,1.3986328125,1.4115234375,1.44052734375,1.4501953125,1.44375,1.43408203125,1.42119140625,1.38251953125,1.340625,1.33095703125,1.33740234375,1.33740234375,1.33740234375,1.340625,1.34384765625,1.3341796875,1.30517578125,1.36640625,1.61455078125,2.03671875,2.44599609375,2.40732421875,1.87236328125,1.40185546875,1.27294921875,1.29228515625,1.3083984375,1.31162109375,1.3083984375,1.31162109375,1.31806640625,1.3212890625,1.33095703125,1.3341796875,1.340625,1.3470703125,1.3470703125,1.353515625,1.3599609375,1.36640625,1.3728515625,1.3728515625,1.38251953125,1.38896484375,1.40185546875,1.41796875,1.42763671875,1.44052734375,1.456640625,1.4759765625,1.49853515625,1.52109375,1.546875,1.56943359375,1.58876953125,1.60166015625,1.6048828125,1.5919921875,1.55654296875,1.50498046875,1.44697265625,1.3986328125,1.3599609375,1.327734375,1.3083984375,1.301953125,1.29873046875,1.29873046875,1.2955078125,1.29873046875,1.301953125,1.301953125,1.3083984375,1.31162109375,1.31484375,1.31806640625,1.31806640625,1.3212890625,1.32451171875,1.327734375,1.33095703125,1.32451171875,1.327734375,1.327734375,1.32451171875,1.327734375,1.327734375,1.33095703125,1.327734375,1.327734375,1.327734375,1.327734375,1.33095703125,1.33095703125,1.33095703125,1.327734375,1.33095703125,1.33740234375,1.3341796875,1.3341796875,1.33740234375,1.33740234375,1.340625,1.340625,1.34384765625,1.340625,1.340625,1.3470703125,1.35029296875,1.353515625,1.36640625,1.379296875,1.3921875,1.39541015625,1.4115234375,1.43408203125,1.4373046875,1.430859375,1.4244140625,1.41796875,1.37607421875,1.327734375,1.32451171875,1.3341796875,1.3341796875,1.33740234375,1.33740234375,1.340625,1.31806640625,1.29873046875,1.3986328125,1.69189453125,2.14306640625,2.50400390625,2.3654296875,1.80791015625,1.39541015625,1.2955078125,1.29873046875,1.29873046875,1.2955078125,1.29228515625,1.301953125,1.30517578125,1.31162109375,1.3212890625,1.32451171875,1.3341796875,1.340625,1.3470703125,1.35029296875,1.35029296875,1.3599609375,1.36640625,1.37607421875,1.3857421875,1.3921875,1.40185546875,1.4115234375,1.42763671875,1.44697265625,1.46630859375,1.4888671875,1.508203125,1.533984375,1.559765625,1.5791015625,1.60166015625,1.611328125,1.611328125,1.58876953125,1.55009765625,1.4953125,1.4373046875,1.3921875,1.35673828125,1.33095703125,1.31806640625,1.31162109375,1.31162109375,1.31162109375,1.31162109375,1.31484375,1.31484375,1.31806640625,1.32451171875,1.327734375,1.33095703125,1.33095703125,1.3341796875,1.33740234375,1.33740234375,1.340625,1.340625,1.340625,1.340625,1.340625,1.33740234375,1.33740234375,1.33740234375,1.340625,1.340625,1.340625,1.340625,1.340625,1.34384765625,1.34384765625,1.3470703125,1.34384765625,1.3470703125,1.3470703125,1.34384765625,1.3470703125,1.3470703125,1.3470703125,1.35029296875,1.3470703125,1.35029296875,1.35029296875,1.35029296875,1.353515625,1.35029296875,1.353515625,1.353515625,1.36640625,1.379296875,1.38896484375,1.39541015625,1.40830078125,1.430859375,1.44052734375,1.430859375,1.42763671875,1.42119140625,1.3857421875,1.33095703125,1.31162109375,1.327734375,1.33095703125,1.327734375,1.327734375,1.33095703125,1.3212890625,1.28583984375,1.3341796875,1.58232421875,2.00771484375,2.44921875,2.47822265625,1.98837890625,1.47919921875,1.2890625,1.2826171875,1.2826171875,1.276171875,1.27294921875,1.276171875,1.28583984375,1.29228515625,1.2955078125,1.30517578125,1.31162109375,1.31806640625,1.32451171875,1.33095703125,1.3341796875,1.33740234375,1.34384765625,1.35029296875,1.353515625,1.36318359375,1.3728515625
1.340625,1.340625,1.340625,1.34384765625,1.3470703125,1.34384765625,1.34384765625,1.34384765625,1.3470703125,1.353515625,1.35029296875,1.35029296875,1.35029296875,1.35029296875,1.35029296875,1.353515625,1.35673828125,1.35673828125,1.353515625,1.353515625,1.353515625,1.353515625,1.35673828125,1.353515625,1.353515625,1.3599609375,1.379296875,1.39541015625,1.40185546875,1.4115234375,1.42763671875,1.44697265625,1.4373046875,1.42763671875,1.430859375,1.41796875,1.37607421875,1.327734375,1.3212890625,1.33095703125,1.33095703125,1.3341796875,1.3341796875,1.327734375,1.301953125,1.3083984375,1.4759765625,1.8369140625,2.307421875,2.539453125,2.204296875,1.6306640625,1.327734375,1.2826171875,1.2890625,1.2890625,1.2890625,1.29228515625,1.2955078125,1.301953125,1.3083984375,1.31806640625,1.32451171875,1.33095703125,1.340625,1.340625,1.3470703125,1.353515625,1.3599609375,1.36962890625,1.3728515625,1.379296875,1.38896484375,1.3986328125,1.41474609375,1.4244140625,1.44375,1.4630859375,1.48564453125,1.508203125,1.533984375,1.55654296875,1.57265625,1.58876953125,1.60166015625,1.5984375,1.57587890625,1.533984375,1.47919921875,1.4244140625,1.37607421875,1.340625,1.31806640625,1.301953125,1.2955078125,1.29873046875,1.301953125,1.301953125,1.30517578125,1.3083984375,1.31162109375,1.31162109375,1.31484375,1.31484375,1.31806640625,1.31806640625,1.3212890625,1.32451171875,1.32451171875,1.33095703125,1.33095703125,1.327734375,1.327734375,1.327734375,1.327734375,1.327734375,1.327734375,1.33095703125,1.327734375,1.327734375,1.33095703125,1.3341796875,1.33740234375,1.33740234375,1.340625,1.340625,1.340625,1.34384765625,1.34384765625,1.34384765625,1.340625,1.3470703125,1.35029296875,1.3470703125,1.34384765625,1.34384765625,1.35029296875,1.35673828125,1.35673828125,1.35673828125,1.35673828125,1.3599609375,1.3599609375,1.36318359375,1.36640625,1.36318359375,1.3599609375,1.36318359375,1.36640625,1.36962890625,1.37607421875,1.3921875,1.40830078125,1.42119140625,1.43408203125,1.456640625,1.45986328125,1.4501953125,1.44375,1.43408203125,1.39541015625,1.35029296875,1.340625,1.35029296875,1.35029296875,1.34384765625,1.35029296875,1.353515625,1.33095703125,1.31484375,1.4244140625,1.7337890625,2.18818359375,2.5072265625,2.2880859375,1.7015625,1.340625,1.28583984375,1.30517578125,1.31162109375,1.3083984375,1.31162109375,1.31484375,1.3212890625,1.327734375,1.3341796875,1.34384765625,1.35029296875,1.353515625,1.3599609375,1.36640625,1.3728515625,1.37607421875,1.379296875,1.3857421875,1.39541015625,1.405078125,1.41474609375,1.4244140625,1.44052734375,1.456640625,1.47275390625,1.49208984375,1.51142578125,1.5404296875,1.559765625,1.5791015625,1.5984375,1.60810546875,1.611328125,1.5919921875,1.559765625,1.508203125,1.44375,1.3921875,1.35673828125,1.3341796875,1.31806640625,1.30517578125,1.301953125,1.301953125,1.301953125,1.301953125,1.3083984375,1.31162109375,1.31162109375,1.31484375,1.31484375,1.31484375,1.31806640625,1.3212890625,1.327734375,1.327734375,1.32451171875,1.32451171875,1.32451171875,1.32451171875,1.3212890625,1.3212890625,1.32451171875,1.3212890625,1.32451171875,1.327734375,1.32451171875,1.32451171875,1.32451171875,1.327734375,1.327734375,1.327734375,1.3341796875,1.3341796875,1.3341796875,1.3341796875,1.3341796875,1.33740234375,1.3341796875,1.33740234375,1.340625,1.34384765625,1.34384765625,1.34384765625,1.3470703125,1.3470703125,1.3470703125,1.35029296875,1.35029296875,1.35673828125,1.3728515625,1.38896484375,1.3986328125,1.40185546875,1.42119140625,1.43408203125,1.42119140625,1.4244140625,1.42119140625,1.3986328125,1.35029296875,1.32451171875,1.33095703125,1.33740234375,1.3341796875,1.3341796875,1.33740234375,1.33095703125,1.301953125,1.340625,1.559765625,1.946484375,2.37509765625,2.44599609375,1.98193359375,1.4759765625,1.2955078125,1.2955078125,1.29873046875,1.2955078125,1.2955078125,1.29873046875,1.30517578125,1.31162109375,1.32451171875,1.327734375,1.33095703125,1.33740234375,1.34384765625,1.353515625,1.35673828125,1.3599609375,1.36962890625,1.37607421875,1.38251953125,1.38896484375,1.405078125,1.41474609375,1.4244140625,1.44052734375,1.4630859375,1.47919921875,1.49853515625,1.51787109375,1.54365234375,1.56943359375,1.5919921875,1.6048828125,1.60810546875,1.5984375,1.56298828125,1.51787109375,1.46630859375,1.40830078125,1.36640625,1.33740234375,1.31806640625,1.30517578125,1.29873046875,1.29873046875,1.301953125,1.301953125,1.30517578125,1.30517578125,1.3083984375,1.31162109375,1.31162109375,1.31484375,1.31484375,1.31806640625,1.3212890625,1.32451171875,1.33095703125,1.327734375,1.327734375,1.33095703125,1.33095703125,1.33095703125,1.32451171875,1.32451171875,1.327734375,1.327734375,1.327734375,1.327734375,1.33095703125,1.33095703125,1.3341796875,1.33740234375,1.3341796875,1.33740234375,1.34384765625,1.34384765625,1.3470703125,1.3470703125,1.3470703125,1.35029296875,1.35029296875,1.353515625,1.353515625,1.353515625,1.35673828125,1.3599609375,1.3599609375,1.35673828125,1.3599609375,1.36318359375,1.36318359375,1.36640625,1.36318359375,1.36640625,1.36962890625,1.3857421875,1.40830078125,1.41796875,1.42119140625,1.4373046875,1.45986328125,1.456640625,1.44697265625,1.45341796875,1.44697265625,1.4115234375,1.3599609375,1.33740234375,1.35029296875,1.35673828125,1.35673828125,1.3599609375,1.35673828125,1.3341796875,1.31162109375,1.4115234375,1.71123046875,2.165625,2.53623046875,2.39443359375,1.8369140625,1.4244140625,1.31162109375,1.31484375,1.31162109375,1.30517578125,1.3083984375,1.31484375,1.32451171875,1.33095703125,1.33740234375,1.3470703125,1.35029296875,1.3599609375,1.36640625,1.36962890625,1.37607421875,1.38251953125,1.38896484375,1.38896484375,1.39541015625,1.405078125,1.41474609375,1.430859375,1.4373046875,1.4501953125,1.46953125,1.49208984375,1.51142578125,1.533984375,1.559765625,1.58232421875,1.5984375,1.611328125,1.61455078125,1.59521484375,1.55654296875,1.5017578125,1.44375,1.3921875,1.3470703125,1.32451171875,1.30517578125,1.2955078125,1.29228515625,1.29228515625,1.2890625,1.29228515625,1.29873046875,1.30517578125,1.30517578125,1.30517578125,1.301953125,1.30517578125,1.30517578125,1.30517578125,1.31162109375,1.3083984375,1.31162109375,1.3083984375,1.30517578125,1.30517578125,1.30517578125,1.3083984375,1.3083984375,1.30517578125,1.3083984375,1.3083984375,1.30517578125,1.30517578125,1.31162109375,1.31484375,1.31162109375,1.31484375,1.31484375,1.31806640625,1.32451171875,1.32451171875,1.3212890625,1.32451171875,1.3341796875,1.3341796875,1.327734375,1.33095703125,1.3341796875,1.3341796875,1.340625,1.340625,1.34384765625,1.34384765625,1.34384765625,1.35029296875,1.35029296875,1.353515625,1.35673828125,1.35673828125,1.3599609375,1.36640625,1.38251953125,1.39541015625,1.3986328125,1.4115234375,1.44052734375,1.44697265625,1.43408203125,1.4373046875,1.43408203125,1.3986328125,1.353515625,1.33095703125,1.33740234375,1.34384765625,1.34384765625,1.3470703125,1.35029296875,1.33740234375,1.31162109375,1.37607421875,1.637109375,2.05927734375,2.45244140625,2.39443359375,1.85625,1.405078125,1.2890625,1.30517578125,1.31806640625,1.31162109375,1.3083984375,1.31484375,1.32451171875,1.3341796875,1.340625,1.35029296875,1.353515625,1.35673828125,1.3599609375,1.36318359375,1.36962890625,1.379296875,1.3857421875,1.3986328125,1.405078125,1.4115234375,1.41796875,1.430859375,1.44697265625,1.456640625,1.47275390625,1.49208984375,1.51142578125,1.53720703125,1.55654296875,1.5791015625,1.5984375,1.61455078125,1.6177734375,1.6048828125,1.56943359375,1.5146484375,1.456640625,1.405078125,1.3599609375,1.33095703125,1.31162109375,1.301953125,1.2955078125,1.29228515625,1.2955078125,1.29873046875,1.29873046875,1.301953125,1.30517578125,1.31484375,1.31484375,1.31484375,1.3212890625,1.3212890625,1.3212890625,1.327734375,1.327734375,1.327734375,1.327734375,1.33095703125,1.33095703125,1.33095703125,1.3341796875,1.3341796875,1.33740234375,1.340625,1.3341796875,1.3341796875,1.3341796875,1.340625,1.340625,1.340625,1.340625,1.34384765625,1.3470703125,1.34384765625,1.34384765625,1.3470703125,1.3470703125,1.3470703125,1.3470703125,1.353515625,1.353515625,1.353515625,1.35673828125,1.35673828125,1.35673828125,1.3599609375,1.3599609375,1.36318359375,1.36640625,1.36318359375,1.36640625,1.3728515625,1.38896484375,1.40185546875,1.40830078125,1.42119140625,1.44052734375,1.44697265625,1.43408203125,1.43408203125,1.43408203125,1.40830078125,1.35673828125,1.327734375,1.33740234375,1.3470703125,1.34384765625,1.34384765625,1.34384765625,1.3341796875,1.3083984375,1.3470703125,1.57265625,1.96904296875,2.39765625,2.46533203125,1.99482421875,1.4888671875,1.30517578125,1.29873046875,1.30517578125,1.29873046875,1.2955078125,1.301953125,1.31162109375,1.31806640625,1.32451171875,1.33095703125,1.3341796875,1.33740234375,1.3470703125,1.35029296875,1.353515625,1.36318359375,1.36962890625,1.37607421875,1.379296875,1.38896484375,1.3986328125,1.4115234375,1.4244140625,1.4373046875,1.45341796875,1.4759765625,1.49853515625,1.52431640625,1.546875,1.56943359375,1.5919921875,1.6048828125,1.611328125,1.60166015625,1.56943359375,1.52109375,1.4630859375,1.4115234375,1.36962890625,1.340625,1.31806640625,1.30517578125,1.301953125,1.29228515625,1.29228515625,1.29873046875,1.301953125,1.3083984375,1.31162109375,1.31484375,1.31806640625,1.31806640625,1.3212890625,1.3212890625,1.32451171875,1.327734375,1.32451171875,1.32451171875,1.32451171875,1.327734375,1.327734375,1.32451171875,1.327734375,1.327734375,1.327734375,1.33095703125,1.33095703125,1.33095703125,1.327734375,1.3341796875,1.33740234375,1.33740234375,1.33740234375,1.33740234375,1.340625,1.340625,1.340625,1.34384765625,1.3470703125,1.34384765625,1.34384765625,1.34384765625,1.35029296875,1.35029296875,1.35029296875,1.35029296875,1.35029296875,1.353515625,1.35029296875,1.353515625,1.35673828125,1.35673828125,1.3599609375,1.3599609375,1.36318359375,1.36318359375,1.36640625,1.36640625,1.36962890625,1.3728515625,1.3857421875,1.405078125,1.41796875,1.42119140625,1.44375,1.456640625,1.44375,1.4373046875,1.4373046875,1.42763671875,1.379296875,1.3341796875,1.3341796875,1.340625,1.34384765625,1.34384765625,1.34384765625,1.340625,1.31162109375,1.3212890625,1.49853515625,1.85947265625,2.32998046875,2.54912109375,2.1978515625,1.6306640625,1.340625,1.29873046875,1.30517578125,1.301953125,1.29873046875,1.301953125,1.31162109375,1.31806640625,1.32451171875,1.33095703125,1.340625,1.3470703125,1.35029296875,1.35673828125,1.3599609375,1.36318359375,1.36962890625,1.37607421875,1.3857421875,1.39541015625,1.40185546875,1.4115234375,1.42119140625,1.4373046875,1.45341796875,1.47275390625,1.4953125,1.52109375,1.546875,1.56943359375,1.5919921875,1.611328125,1.62099609375,1.61455078125,1.58876953125,1.55009765625,1.49208984375,1.43408203125,1.38251953125,1.34384765625,1.3212890625,1.3083984375,1.29873046875,1.301953125,1.301953125,1.29873046875,1.30517578125,1.3083984375,1.31162109375,1.31162109375,1.31162109375,1.31806640625,1.31806640625,1.31806640625,1.32451171875,1.32451171875,1.3212890625,1.3212890625,1.327734375,1.327734375,1.32451171875,1.327734375,1.327734375,1.327734375,1.32451171875,1.327734375,1.327734375,1.32451171875,1.327734375,1.33095703125,1.33095703125,1.3341796875,1.3341796875,1.33740234375,1.340625,1.340625,1.34384765625,1.34384765625,1.3470703125,1.3470703125,1.3470703125,1.35029296875,1.3470703125,1.3470703125,1.353515625,1.353515625,1.353515625,1.353515625,1.353515625,1.353515625,1.35673828125,1.3599609375,1.35673828125,1.35673828125,1.353515625,1.35029296875,1.35673828125,1.35673828125,1.3599609375,1.36318359375,1.3728515625,1.3921875,1.405078125,1.40830078125,1.42119140625,1.44375,1.44375,1.43408203125,1.4373046875,1.43408203125,1.3921875,1.34384765625,1.33095703125,1.34384765625,1.34384765625,1.34384765625,1.3470703125,1.3470703125,1.327734375,1.31162109375,1.4115234375,1.7080078125,2.13984375,2.47177734375,2.29130859375,1.71767578125,1.3470703125,1.28583984375,1.31162109375,1.31806640625,1.31162109375,1.31484375,1.3212890625,1.327734375,1.3341796875,1.340625,1.3470703125,1.3470703125,1.353515625,1.3599609375,1.36318359375,1.36962890625,1.36962890625,1.3728515625,1.379296875,1.3921875,1.405078125,1.4115234375,1.42119140625,1.430859375,1.44375,1.46630859375,1.48564453125,1.508203125,1.5275390625,1.55009765625,1.5791015625,1.5984375,1.61455078125,1.6177734375,1.60166015625,1.5662109375,1.51142578125,1.45341796875,1.40185546875,1.3599609375,1.33095703125,1.31162109375,1.301953125,1.301953125,1.29873046875,1.301953125,1.301953125,1.30517578125,1.31162109375,1.31484375,1.3212890625,1.3212890625,1.31806640625,1.32451171875,1.327734375,1.33095703125,1.327734375,1.327734375,1.327734375,1.327734375,1.33095703125,1.327734375,1.327734375,1.327734375,1.327734375,1.327734375,1.327734375,1.3341796875,1.3341796875,1.3341796875,1.3341796875,1.33095703125,1.3341796875,1.3341796875,1.3341796875,1.33740234375,1.33740234375,1.340625,1.340625,1.34384765625,1.3470703125,1.34384765625,1.3470703125,1.353515625,1.353515625,1.353515625,1.35029296875,1.35029296875,1.35029296875,1.35029296875,1.35673828125,1.3599609375,1.3599609375,1.36318359375,1.3599609375,1.36318359375,1.36962890625,1.3857421875,1.39541015625,1.40185546875,1.4115234375,1.43408203125,1.44052734375,1.430859375,1.430859375,1.4373046875,1.4115234375,1.3599609375,1.32451171875,1.32451171875,1.340625,1.35029296875,1.35029296875,1.3470703125,1.3341796875,1.31162109375,1.3599609375,1.5919921875,1.98515625,2.40732421875,2.45244140625,1.96904296875,1.4759765625,1.31162109375,1.3083984375,1.31484375,1.31162109375,1.30517578125,1.3083984375,1.31806640625,1.327734375,1.33095703125,1.3341796875,1.340625,1.34384765625,1.35029296875,1.3599609375,1.36640625,1.36962890625,1.37607421875,1.38251953125,1.38896484375,1.3986328125,1.40830078125,1.41796875,1.43408203125,1.44697265625,1.4630859375,1.482421875,1.50498046875,1.53076171875,1.5533203125,1.57587890625,1.59521484375,1.60810546875,1.6177734375,1.60810546875,1.58232421875,1.533984375,1.4759765625,1.4244140625,1.379296875,1.3470703125,1.32451171875,1.31484375,1.3083984375,1.30517578125,1.3083984375,1.30517578125,1.3083984375,1.31484375,1.31484375,1.3212890625,1.32451171875,1.32451171875,1.327734375,1.32451171875,1.327734375,1.33095703125,1.3341796875,1.3341796875,1.3341796875,1.33740234375,1.3341796875,1.3341796875,1.3341796875,1.3341796875,1.3341796875,1.3341796875,1.33740234375,1.33740234375,1.33740234375,1.33740234375,1.33740234375,1.33740234375,1.33740234375,1.340625,1.340625,1.340625,1.340625,1.34384765625,1.340625,1.34384765625,1.3470703125,1.3470703125,1.35029296875,1.3470703125,1.35029296875,1.35673828125,1.353515625,1.35029296875,1.3470703125,1.35029296875,1.35029296875,1.3470703125,1.35029296875,1.35029296875,1.353515625,1.353515625,1.353515625,1.3599609375,1.35673828125,1.35673828125,1.36640625,1.3857421875,1.40185546875,1.40185546875,1.41474609375,1.44052734375,1.44052734375,1.4244140625,1.4244140625,1.4244140625,1.3986328125,1.35029296875,1.3212890625,1.32451171875,1.3341796875,1.33740234375,1.3341796875,1.3341796875,1.31806640625,1.29228515625,1.35673828125,1.60810546875,2.03671875,2.45244140625,2.43955078125,1.9271484375,1.4501953125,1.29228515625,1.2826171875,1.28583984375,1.28583984375,1.2826171875,1.2890625,1.29228515625,1.301953125,1.30517578125,1.31484375,1.327734375,1.33095703125,1.3341796875,1.340625,1.34384765625,1.35029296875,1.35673828125,1.36640625,1.36962890625,1.379296875,1.38896484375,1.39541015625,1.4115234375,1.4244140625,1.44375,1.46630859375,1.48564453125,1.508203125,1.533984375,1.55654296875,1.58232421875,1.59521484375,1.6048828125,1.59521484375,1.5662109375,1.52431640625,1.46953125,1.41474609375,1.36962890625,1.33740234375,1.31484375,1.29873046875,1.29873046875,1.29873046875,1.29873046875,1.30517578125,1.3083984375,1.31162109375,1.31484375,1.3212890625,1.32451171875,1.33095703125,1.3341796875,1.33740234375,1.33740234375,1.34384765625,1.3470703125,1.3470703125,1.3470703125,1.35029296875,1.353515625,1.35673828125,1.3599609375,1.3599609375,1.3599609375,1.3599609375,1.36318359375,1.3728515625,1.379296875,1.37607421875,1.379296875,1.38251953125,1.3857421875,1.38896484375,1.39541015625,1.405078125,1.405078125,1.405078125,1.40830078125,1.4115234375,1.41474609375,1.42119140625,1.42763671875,1.430859375,1.430859375,1.43408203125,1.44052734375,1.44697265625,1.45341796875,1.456640625,1.4630859375
1.340625,1.340625,1.340625,1.33740234375,1.3341796875,1.340625,1.33740234375,1.340625,1.340625,1.340625,1.340625,1.340625,1.340625,1.340625,1.340625,1.34384765625,1.3470703125,1.35029296875,1.3470703125,1.3470703125,1.3470703125,1.34384765625,1.3470703125,1.35029296875,1.3470703125,1.3470703125,1.34384765625,1.35029296875,1.353515625,1.35029296875,1.353515625,1.353515625,1.353515625,1.353515625,1.35673828125,1.36318359375,1.37607421875,1.39541015625,1.40830078125,1.41474609375,1.44052734375,1.44697265625,1.44052734375,1.43408203125,1.43408203125,1.41796875,1.3599609375,1.32451171875,1.33095703125,1.340625,1.340625,1.33740234375,1.33740234375,1.340625,1.31484375,1.31484375,1.47275390625,1.84013671875,2.3203125,2.5587890625,2.230078125,1.65,1.340625,1.29228515625,1.29873046875,1.29873046875,1.29228515625,1.29228515625,1.29873046875,1.30517578125,1.31484375,1.31806640625,1.327734375,1.3341796875,1.33740234375,1.340625,1.34384765625,1.353515625,1.3599609375,1.36640625,1.37607421875,1.38251953125,1.3921875,1.40830078125,1.41796875,1.430859375,1.44697265625,1.46630859375,1.48564453125,1.508203125,1.53076171875,1.5533203125,1.57587890625,1.59521484375,1.5984375,1.59521484375,1.5662109375,1.52109375,1.46630859375,1.40830078125,1.36962890625,1.33740234375,1.31484375,1.30517578125,1.30517578125,1.30517578125,1.30517578125,1.30517578125,1.31162109375,1.31162109375,1.31484375,1.31484375,1.31806640625,1.31806640625,1.3212890625,1.3212890625,1.31806640625,1.31806640625,1.3212890625,1.3212890625,1.327734375,1.32451171875,1.31806640625,1.3212890625,1.327734375,1.33095703125,1.32451171875,1.327734375,1.33095703125,1.33095703125,1.33095703125,1.33095703125,1.33740234375,1.33740234375,1.33095703125,1.33095703125,1.33095703125,1.33740234375,1.33740234375,1.3341796875,1.33740234375,1.340625,1.33740234375,1.340625,1.34384765625,1.34384765625,1.340625,1.353515625,1.37607421875,1.3857421875,1.38896484375,1.40185546875,1.42763671875,1.430859375,1.42119140625,1.42119140625,1.41474609375,1.37607421875,1.327734375,1.31806640625,1.33095703125,1.3341796875,1.3341796875,1.3341796875,1.33740234375,1.327734375,1.30517578125,1.38896484375,1.662890625,2.07861328125,2.4234375,2.281640625,1.73056640625,1.353515625,1.28583984375,1.30517578125,1.3083984375,1.30517578125,1.31162109375,1.31162109375,1.31484375,1.3212890625,1.327734375,1.33095703125,1.3341796875,1.34384765625,1.353515625,1.36318359375,1.36640625,1.36962890625,1.37607421875,1.3857421875,1.3921875,1.40185546875,1.41474609375,1.42763671875,1.4373046875,1.45341796875,1.47275390625,1.48564453125,1.508203125,1.533984375,1.55654296875,1.57587890625,1.5919921875,1.60810546875,1.60166015625,1.58232421875,1.5404296875,1.4888671875,1.4373046875,1.38896484375,1.353515625,1.33095703125,1.31484375,1.31162109375,1.31162109375,1.3083984375,1.31162109375,1.31484375,1.3212890625,1.3212890625,1.32451171875,1.327734375,1.32451171875,1.327734375,1.327734375,1.327734375,1.33095703125,1.33095703125,1.3341796875,1.33095703125,1.33095703125,1.33095703125,1.33095703125,1.3341796875,1.3341796875,1.3341796875,1.33740234375,1.33740234375,1.33740234375,1.3341796875,1.3341796875,1.34384765625,1.340625,1.340625,1.34384765625,1.3470703125,1.34384765625,1.34384765625,1.353515625,1.35029296875,1.3470703125,1.3470703125,1.33095703125,1.327734375,1.34384765625,1.3470703125,1.35029296875,1.3599609375,1.379296875,1.39541015625,1.40185546875,1.41474609375,1.43408203125,1.43408203125,1.4244140625,1.42763671875,1.42763671875,1.3986328125,1.34384765625,1.31484375,1.33095703125,1.33740234375,1.3341796875,1.3341796875,1.3341796875,1.31806640625,1.29228515625,1.3728515625,1.65,2.09150390625,2.475,2.3783203125,1.83369140625,1.40830078125,1.29228515625,1.2955078125,1.29873046875,1.29228515625,1.2955078125,1.301953125,1.30517578125,1.31484375,1.3212890625,1.327734375,1.3341796875,1.33740234375,1.340625,1.3470703125,1.353515625,1.36318359375,1.36962890625,1.37607421875,1.38251953125,1.3921875,1.39541015625,1.405078125,1.4244140625,1.44052734375,1.456640625,1.4759765625,1.49853515625,1.52109375,1.53720703125,1.559765625,1.585546875,1.59521484375,1.58876953125,1.56943359375,1.533984375,1.47919921875,1.4244140625,1.38251953125,1.3470703125,1.327734375,1.31162109375,1.30517578125,1.30517578125,1.30517578125,1.3083984375,1.31162109375,1.31162109375,1.31484375,1.31806640625,1.32451171875,1.327734375,1.327734375,1.33095703125,1.33095703125,1.33095703125,1.33095703125,1.33095703125,1.33095703125,1.33095703125,1.33095703125,1.3341796875,1.3341796875,1.3341796875,1.33095703125,1.33740234375,1.33740234375,1.3341796875,1.33095703125,1.33095703125,1.33740234375,1.33740234375,1.33740234375,1.340625,1.340625,1.34384765625,1.340625,1.340625,1.340625,1.340625,1.34384765625,1.3470703125,1.3470703125,1.3470703125,1.34384765625,1.3470703125,1.35029296875,1.35673828125,1.36962890625,1.3857421875,1.3986328125,1.3986328125,1.41474609375,1.4373046875,1.430859375,1.42119140625,1.4244140625,1.42119140625,1.3857421875,1.327734375,1.31484375,1.32451171875,1.33095703125,1.33740234375,1.3341796875,1.33095703125,1.30517578125,1.301953125,1.4373046875,1.7724609375,2.24619140625,2.55234375,2.3138671875,1.7337890625,1.3599609375,1.28583984375,1.29228515625,1.29228515625,1.28583984375,1.28583984375,1.2955078125,1.30517578125,1.3083984375,1.31484375,1.31806640625,1.327734375,1.33740234375,1.34384765625,1.35029296875,1.3470703125,1.353515625,1.36318359375,1.3728515625,1.38251953125,1.38896484375,1.40185546875,1.4115234375,1.4244140625,1.44697265625,1.4630859375,1.482421875,1.50498046875,1.53076171875,1.5533203125,1.57265625,1.5919921875,1.6048828125,1.5984375,1.56943359375,1.52109375,1.46953125,1.41796875,1.3728515625,1.34384765625,1.3212890625,1.31162109375,1.301953125,1.29873046875,1.30517578125,1.3083984375,1.31484375,1.31162109375,1.31162109375,1.3212890625,1.32451171875,1.32451171875,1.3212890625,1.32451171875,1.33095703125,1.33095703125,1.327734375,1.327734375,1.327734375,1.33095703125,1.33095703125,1.327734375,1.327734375,1.327734375,1.33095703125,1.33095703125,1.3341796875,1.3341796875,1.3341796875,1.3341796875,1.3341796875,1.34384765625,1.3470703125,1.340625,1.34384765625,1.34384765625,1.3470703125,1.34384765625,1.340625,1.3470703125,1.3470703125,1.3470703125,1.35673828125,1.3728515625,1.38896484375,1.3921875,1.405078125,1.42763671875,1.43408203125,1.430859375,1.4244140625,1.41474609375,1.36962890625,1.327734375,1.3212890625,1.327734375,1.3341796875,1.33740234375,1.3341796875,1.33740234375,1.327734375,1.30517578125,1.35673828125,1.59521484375,2.00126953125,2.3912109375,2.36865234375,1.85625,1.40185546875,1.2826171875,1.2955078125,1.31162109375,1.31162109375,1.30517578125,1.3083984375,1.3083984375,1.31806640625,1.32451171875,1.327734375,1.3341796875,1.33740234375,1.34384765625,1.3470703125,1.353515625,1.3599609375,1.36640625,1.3728515625,1.38251953125,1.39541015625,1.40830078125,1.4115234375,1.4244140625,1.44052734375,1.45986328125,1.482421875,1.49853515625,1.52109375,1.54365234375,1.56298828125,1.585546875,1.60166015625,1.60166015625,1.58232421875,1.5404296875,1.48564453125,1.42763671875,1.38251953125,1.34384765625,1.31806640625,1.3083984375,1.301953125,1.30517578125,1.30517578125,1.30517578125,1.31162109375,1.31162109375,1.31806640625,1.31806640625,1.31484375,1.31806640625,1.31806640625,1.31806640625,1.3212890625,1.32451171875,1.327734375,1.32451171875,1.32451171875,1.32451171875,1.327734375,1.327734375,1.327734375,1.33095703125,1.33095703125,1.327734375,1.327734375,1.327734375,1.33740234375,1.33740234375,1.3341796875,1.33740234375,1.340625,1.34384765625,1.34384765625,1.340625,1.3470703125,1.3470703125,1.35029296875,1.3470703125,1.3470703125,1.35029296875,1.3470703125,1.35673828125,1.3728515625,1.3857421875,1.3921875,1.405078125,1.42763671875,1.43408203125,1.4244140625,1.42119140625,1.41796875,1.3857421875,1.33095703125,1.31484375,1.327734375,1.33095703125,1.3341796875,1.33740234375,1.340625,1.3341796875,1.29873046875,1.3470703125,1.58232421875,1.98837890625,2.4234375,2.47177734375,1.99482421875,1.4888671875,1.301953125,1.29228515625,1.29873046875,1.29873046875,1.29873046875,1.301953125,1.30517578125,1.31162109375,1.3212890625,1.32451171875,1.33095703125,1.3341796875,1.33740234375,1.35029296875,1.353515625,1.35673828125,1.36962890625,1.3728515625,1.379296875,1.3857421875,1.3921875,1.405078125,1.41796875,1.43408203125,1.4501953125,1.47275390625,1.5017578125,1.52431640625,1.55009765625,1.56943359375,1.58232421875,1.5984375,1.59521484375,1.5791015625,1.54365234375,1.48564453125,1.43408203125,1.38896484375,1.35673828125,1.33095703125,1.31806640625,1.31484375,1.3083984375,1.3083984375,1.31162109375,1.31484375,1.3212890625,1.31806640625,1.32451171875,1.327734375,1.33095703125,1.3341796875,1.33095703125,1.33095703125,1.33095703125,1.33095703125,1.33095703125,1.33095703125,1.33095703125,1.33095703125,1.327734375,1.327734375,1.33095703125,1.3341796875,1.33095703125,1.33095703125,1.33740234375,1.3341796875,1.3341796875,1.3341796875,1.33740234375,1.33740234375,1.33095703125,1.3341796875,1.33740234375,1.33740234375,1.34384765625,1.340625,1.340625,1.34384765625,1.34384765625,1.34384765625,1.340625,1.34384765625,1.35029296875,1.36962890625,1.3857421875,1.38896484375,1.3986328125,1.41796875,1.4373046875,1.43408203125,1.42119140625,1.4244140625,1.40185546875,1.33740234375,1.30517578125,1.31806640625,1.32451171875,1.32451171875,1.32451171875,1.327734375,1.3212890625,1.29873046875,1.30517578125,1.47275390625,1.84013671875,2.31064453125,2.5330078125,2.18818359375,1.611328125,1.3212890625,1.2826171875,1.2955078125,1.2955078125,1.2890625,1.2955078125,1.301953125,1.301953125,1.30517578125,1.31806640625,1.32451171875,1.32451171875,1.33740234375,1.34384765625,1.3470703125,1.353515625,1.35673828125,1.36640625,1.3728515625,1.379296875,1.3921875,1.40185546875,1.41796875,1.43408203125,1.44697265625,1.46630859375,1.49208984375,1.51787109375,1.5404296875,1.559765625,1.58232421875,1.59521484375,1.6048828125,1.59521484375,1.559765625,1.5146484375,1.456640625,1.405078125,1.36640625,1.3341796875,1.3212890625,1.31162109375,1.3083984375,1.30517578125,1.30517578125,1.31162109375,1.3083984375,1.31162109375,1.31484375,1.31806640625,1.3212890625,1.327734375,1.33095703125,1.327734375,1.32451171875,1.327734375,1.327734375,1.33095703125,1.33740234375,1.33740234375,1.33740234375,1.33740234375,1.3341796875,1.3341796875,1.33740234375,1.33740234375,1.3341796875,1.3341796875,1.3341796875,1.3341796875,1.33740234375,1.34384765625,1.34384765625,1.34384765625,1.340625,1.3470703125,1.353515625,1.353515625,1.35029296875,1.35029296875,1.353515625,1.353515625,1.3599609375,1.3728515625,1.38251953125,1.39541015625,1.40185546875,1.41796875,1.43408203125,1.4373046875,1.42763671875,1.41796875,1.3921875,1.35029296875,1.327734375,1.3341796875,1.3341796875,1.3341796875,1.33740234375,1.33740234375,1.33740234375,1.31484375,1.32451171875,1.49208984375,1.8369140625,2.26875,2.44599609375,2.075390625,1.53076171875,1.301953125,1.29873046875,1.30517578125,1.301953125,1.301953125,1.301953125,1.3083984375,1.31484375,1.32451171875,1.33095703125,1.3341796875,1.340625,1.3470703125,1.353515625,1.35673828125,1.35673828125,1.36640625,1.37607421875,1.3857421875,1.3921875,1.3986328125,1.4115234375,1.4244140625,1.44052734375,1.45341796875,1.47275390625,1.49853515625,1.51787109375,1.5404296875,1.559765625,1.57587890625,1.59521484375,1.5984375,1.58876953125,1.5533203125,1.5017578125,1.44697265625,1.39541015625,1.3599609375,1.3341796875,1.31162109375,1.30517578125,1.301953125,1.29873046875,1.29228515625,1.2955078125,1.30517578125,1.30517578125,1.3083984375,1.31162109375,1.3212890625,1.32451171875,1.3212890625,1.32451171875,1.32451171875,1.327734375,1.3341796875,1.3341796875,1.327734375,1.327734375,1.3341796875,1.33095703125,1.327734375,1.3341796875,1.3341796875,1.33095703125,1.3341796875,1.33095703125,1.3341796875,1.33740234375,1.3341796875,1.33740234375,1.34384765625,1.3470703125,1.3470703125,1.34384765625,1.34384765625,1.3470703125,1.3470703125,1.3470703125,1.3470703125,1.3470703125,1.3470703125,1.35029296875,1.353515625,1.35673828125,1.36962890625,1.38251953125,1.39541015625,1.40185546875,1.41474609375,1.43408203125,1.43408203125,1.430859375,1.42763671875,1.41796875,1.3728515625,1.32451171875,1.327734375,1.3341796875,1.33095703125,1.33095703125,1.33095703125,1.33095703125,1.31484375,1.2955078125,1.3921875,1.67900390625,2.13017578125,2.50078125,2.37509765625,1.83369140625,1.41474609375,1.301953125,1.301953125,1.29873046875,1.29873046875,1.29873046875,1.301953125,1.3083984375,1.31162109375,1.3212890625,1.327734375,1.3341796875,1.33740234375,1.33740234375,1.3470703125,1.353515625,1.3599609375,1.36962890625,1.37607421875,1.38251953125,1.38896484375,1.3986328125,1.4115234375,1.42119140625,1.44052734375,1.46630859375,1.482421875,1.4953125,1.51787109375,1.546875,1.56943359375,1.585546875,1.59521484375,1.5919921875,1.57265625,1.5275390625,1.47275390625,1.42119140625,1.37607421875,1.34384765625,1.32451171875,1.31484375,1.30517578125,1.30517578125,1.3083984375,1.31162109375,1.31806640625,1.31806640625,1.31806640625,1.3212890625,1.3212890625,1.327734375,1.33095703125,1.3341796875,1.3341796875,1.327734375,1.33095703125,1.33095703125,1.33095703125,1.33095703125,1.32451171875,1.32451171875,1.33095703125,1.33095703125,1.33095703125,1.327734375,1.327734375,1.33095703125,1.3341796875,1.340625,1.33740234375,1.33740234375,1.33740234375,1.33740234375,1.33740234375,1.3341796875,1.340625,1.3470703125,1.3470703125,1.3470703125,1.340625,1.340625,1.3470703125,1.3470703125,1.3470703125,1.34384765625,1.3470703125,1.35029296875,1.35029296875,1.35673828125,1.36318359375,1.379296875,1.3921875,1.39541015625,1.40830078125,1.42763671875,1.44697265625,1.44052734375,1.430859375,1.430859375,1.4115234375,1.3599609375,1.32451171875,1.327734375,1.33740234375,1.3341796875,1.340625,1.34384765625,1.340625,1.31484375,1.3212890625,1.482421875,1.84013671875,2.3138671875,2.54912109375,2.2107421875,1.6306640625,1.32451171875,1.2826171875,1.2955078125,1.29873046875,1.29873046875,1.29873046875,1.30517578125,1.31806640625,1.3212890625,1.327734375,1.33740234375,1.340625,1.34384765625,1.3470703125,1.35673828125,1.36318359375,1.36962890625,1.379296875,1.38251953125,1.38896484375,1.3986328125,1.4115234375,1.42763671875,1.4373046875,1.45341796875,1.4759765625,1.49853515625,1.5275390625,1.55009765625,1.57265625,1.5919921875,1.611328125,1.61455078125,1.5984375,1.56943359375,1.52431640625,1.4630859375,1.41474609375,1.379296875,1.3470703125,1.327734375,1.31806640625,1.31162109375,1.30517578125,1.3083984375,1.31484375,1.31484375,1.31806640625,1.31806640625,1.32451171875,1.327734375,1.3212890625,1.32451171875,1.33095703125,1.3341796875,1.3341796875,1.33095703125,1.3341796875,1.33095703125,1.3341796875,1.33740234375,1.3341796875,1.3341796875,1.327734375,1.33095703125,1.3341796875,1.33740234375,1.34384765625,1.33740234375,1.327734375,1.33095703125,1.3341796875,1.33740234375,1.3341796875,1.3341796875,1.340625,1.33740234375,1.340625,1.340625,1.34384765625,1.33740234375,1.33740234375,1.340625,1.33740234375,1.34384765625,1.35029296875,1.36318359375,1.37607421875,1.3857421875,1.39541015625,1.41474609375,1.41796875,1.4115234375,1.4115234375,1.4115234375,1.3857421875,1.33095703125,1.30517578125,1.31484375,1.3212890625,1.3212890625,1.32451171875,1.327734375,1.31162109375,1.28583984375,1.340625,1.57265625,1.972265625,2.371875,2.3654296875,1.85947265625,1.3986328125,1.27294921875,1.2826171875,1.28583984375,1.2826171875,1.27939453125,1.2890625,1.2955078125,1.29873046875,1.30517578125,1.31162109375,1.31806640625,1.327734375,1.3341796875,1.33740234375,1.33740234375,1.34384765625,1.35029296875,1.3599609375,1.36962890625,1.3728515625,1.3857421875,1.3986328125,1.4115234375,1.430859375,1.4501953125,1.46953125,1.4888671875,1.51142578125,1.533984375,1.55009765625,1.57265625,1.58876953125,1.5919921875,1.57587890625,1.533984375,1.48564453125,1.42763671875,1.38251953125,1.3470703125,1.32451171875,1.31484375,1.3083984375,1.301953125,1.3083984375,1.3083984375,1.3083984375,1.31162109375,1.3212890625,1.327734375,1.33095703125,1.340625,1.3470703125,1.35029296875,1.35673828125,1.36640625,1.37607421875,1.37607421875,1.37607421875,1.38251953125,1.3857421875,1.38896484375,1.3921875,1.39541015625,1.40185546875,1.405078125,1.41474609375,1.42119140625,1.42763671875,1.43408203125,1.4373046875,1.44697265625,1.456640625
1.33740234375,1.327734375,1.31806640625,1.31484375,1.31484375,1.32451171875,1.32451171875,1.327734375,1.327734375,1.327734375,1.33740234375,1.33740234375,1.33740234375,1.340625,1.340625,1.340625,1.340625,1.340625,1.340625,1.33740234375,1.3341796875,1.340625,1.34384765625,1.34384765625,1.34384765625,1.3470703125,1.340625,1.34384765625,1.35029296875,1.35029296875,1.35029296875,1.35673828125,1.35673828125,1.35673828125,1.35029296875,1.35029296875,1.353515625,1.35673828125,1.3599609375,1.3599609375,1.3599609375,1.35673828125,1.36318359375,1.36640625,1.36640625,1.36640625,1.36640625,1.36640625,1.36962890625,1.36640625,1.3728515625,1.3857421875,1.40185546875,1.40830078125,1.4115234375,1.4373046875,1.45341796875,1.4501953125,1.44052734375,1.4373046875,1.42763671875,1.38251953125,1.3341796875,1.3341796875,1.340625,1.34384765625,1.34384765625,1.34384765625,1.35029296875,1.327734375,1.3083984375,1.41474609375,1.7208984375,2.18173828125,2.52333984375,2.35576171875,1.8046875,1.40830078125,1.30517578125,1.29873046875,1.2955078125,1.2955078125,1.29873046875,1.30517578125,1.31162109375,1.3212890625,1.327734375,1.3341796875,1.340625,1.34384765625,1.353515625,1.35673828125,1.36318359375,1.36962890625,1.3728515625,1.38251953125,1.3921875,1.3986328125,1.405078125,1.41796875,1.430859375,1.44697265625,1.46630859375,1.4888671875,1.508203125,1.53076171875,1.55654296875,1.57587890625,1.5919921875,1.60166015625,1.5984375,1.5791015625,1.5404296875,1.48564453125,1.42763671875,1.38251953125,1.35029296875,1.327734375,1.31484375,1.3083984375,1.3083984375,1.31484375,1.31484375,1.31162109375,1.31484375,1.3212890625,1.3212890625,1.327734375,1.3341796875,1.327734375,1.327734375,1.33095703125,1.33095703125,1.33095703125,1.33095703125,1.327734375,1.32451171875,1.32451171875,1.33095703125,1.327734375,1.327734375,1.327734375,1.327734375,1.33095703125,1.33095703125,1.33095703125,1.33095703125,1.3341796875,1.33740234375,1.33740234375,1.33740234375,1.33740234375,1.33740234375,1.340625,1.340625,1.33740234375,1.33740234375,1.340625,1.33740234375,1.340625,1.3470703125,1.34384765625,1.340625,1.34384765625,1.3470703125,1.3470703125,1.3470703125,1.353515625,1.3728515625,1.38896484375,1.3986328125,1.40185546875,1.42119140625,1.43408203125,1.4244140625,1.4244140625,1.4244140625,1.39541015625,1.34384765625,1.31484375,1.32451171875,1.3341796875,1.33740234375,1.33740234375,1.33740234375,1.33095703125,1.301953125,1.34384765625,1.57587890625,1.972265625,2.39765625,2.436328125,1.9400390625,1.43408203125,1.27294921875,1.29228515625,1.3083984375,1.30517578125,1.29873046875,1.29873046875,1.31162109375,1.32451171875,1.327734375,1.327734375,1.3341796875,1.340625,1.34384765625,1.35029296875,1.35673828125,1.36318359375,1.3728515625,1.37607421875,1.379296875,1.38896484375,1.40185546875,1.41796875,1.43408203125,1.44375,1.456640625,1.4759765625,1.5017578125,1.52431640625,1.5404296875,1.56298828125,1.585546875,1.60166015625,1.6048828125,1.58876953125,1.55654296875,1.50498046875,1.4501953125,1.39541015625,1.35673828125,1.33095703125,1.31484375,1.3083984375,1.30517578125,1.29873046875,1.29873046875,1.301953125,1.30517578125,1.3083984375,1.31484375,1.31162109375,1.31162109375,1.32451171875,1.327734375,1.3212890625,1.327734375,1.327734375,1.33095703125,1.33095703125,1.3341796875,1.3341796875,1.327734375,1.327734375,1.32451171875,1.327734375,1.33095703125,1.33095703125,1.3341796875,1.33095703125,1.33095703125,1.33740234375,1.340625,1.34384765625,1.340625,1.340625,1.340625,1.340625,1.3470703125,1.3470703125,1.3470703125,1.35029296875,1.35029296875,1.353515625,1.353515625,1.353515625,1.353515625,1.353515625,1.3599609375,1.3728515625,1.3857421875,1.3986328125,1.40185546875,1.42119140625,1.4373046875,1.430859375,1.4244140625,1.4244140625,1.41474609375,1.3728515625,1.327734375,1.32451171875,1.33095703125,1.3341796875,1.3341796875,1.33740234375,1.33095703125,1.30517578125,1.31162109375,1.46630859375,1.80791015625,2.2623046875,2.49755859375,2.18173828125,1.62099609375,1.33095703125,1.2955078125,1.301953125,1.301953125,1.29873046875,1.29873046875,1.30517578125,1.3083984375,1.3212890625,1.327734375,1.340625,1.3470703125,1.3470703125,1.353515625,1.36318359375,1.36318359375,1.36640625,1.3728515625,1.38251953125,1.3921875,1.3986328125,1.40830078125,1.42119140625,1.4373046875,1.44697265625,1.46630859375,1.4888671875,1.51142578125,1.533984375,1.5533203125,1.57587890625,1.59521484375,1.60166015625,1.59521484375,1.56298828125,1.5146484375,1.46630859375,1.41474609375,1.3728515625,1.340625,1.3212890625,1.31162109375,1.3083984375,1.3083984375,1.30517578125,1.3083984375,1.31806640625,1.3212890625,1.3212890625,1.3212890625,1.32451171875,1.327734375,1.33095703125,1.3341796875,1.33095703125,1.33095703125,1.33095703125,1.33095703125,1.3341796875,1.3341796875,1.33095703125,1.33095703125,1.3341796875,1.3341796875,1.33095703125,1.3341796875,1.3341796875,1.3341796875,1.33740234375,1.33740234375,1.340625,1.340625,1.340625,1.340625,1.34384765625,1.3470703125,1.3470703125,1.3470703125,1.3470703125,1.35029296875,1.35029296875,1.3470703125,1.3470703125,1.353515625,1.35029296875,1.3470703125,1.3470703125,1.35029296875,1.35673828125,1.36318359375,1.379296875,1.39541015625,1.40185546875,1.42119140625,1.44052734375,1.4373046875,1.42763671875,1.42763671875,1.42763671875,1.3986328125,1.340625,1.31484375,1.3212890625,1.33095703125,1.33095703125,1.33095703125,1.3341796875,1.31162109375,1.28583984375,1.3728515625,1.662890625,2.11728515625,2.4943359375,2.40087890625,1.86591796875,1.42763671875,1.2955078125,1.2890625,1.29228515625,1.2890625,1.28583984375,1.2890625,1.29873046875,1.3083984375,1.31806640625,1.32451171875,1.33095703125,1.3341796875,1.34384765625,1.3470703125,1.35029296875,1.3599609375,1.36640625,1.37607421875,1.3857421875,1.39541015625,1.40185546875,1.4115234375,1.42763671875,1.44375,1.45986328125,1.482421875,1.5017578125,1.52431640625,1.54365234375,1.5662109375,1.58876953125,1.5984375,1.60166015625,1.58232421875,1.5404296875,1.4888671875,1.430859375,1.38251953125,1.3470703125,1.32451171875,1.31162109375,1.29873046875,1.29873046875,1.30517578125,1.31162109375,1.31484375,1.31162109375,1.31484375,1.31484375,1.3212890625,1.32451171875,1.3212890625,1.32451171875,1.32451171875,1.3212890625,1.32451171875,1.327734375,1.327734375,1.32451171875,1.32451171875,1.32451171875,1.3212890625,1.32451171875,1.327734375,1.327734375,1.33095703125,1.33095703125,1.3341796875,1.33740234375,1.33095703125,1.3341796875,1.3341796875,1.33740234375,1.34384765625,1.3470703125,1.3470703125,1.34384765625,1.34384765625,1.3470703125,1.35029296875,1.35029296875,1.3470703125,1.35029296875,1.353515625,1.353515625,1.35673828125,1.35673828125,1.36962890625,1.3857421875,1.3986328125,1.40185546875,1.41474609375,1.44375,1.44697265625,1.430859375,1.430859375,1.4244140625,1.38251953125,1.3341796875,1.32451171875,1.33095703125,1.327734375,1.33095703125,1.33740234375,1.33740234375,1.31806640625,1.301953125,1.41796875,1.72412109375,2.17529296875,2.49111328125,2.26552734375,1.6822265625,1.327734375,1.276171875,1.301953125,1.30517578125,1.301953125,1.301953125,1.3083984375,1.31806640625,1.3212890625,1.327734375,1.33740234375,1.340625,1.3470703125,1.353515625,1.3599609375,1.36318359375,1.36640625,1.37607421875,1.38251953125,1.38896484375,1.3986328125,1.40830078125,1.4244140625,1.4373046875,1.45341796875,1.4759765625,1.4953125,1.5146484375,1.533984375,1.56298828125,1.585546875,1.5984375,1.60810546875,1.6048828125,1.58232421875,1.53720703125,1.48564453125,1.430859375,1.37607421875,1.340625,1.31806640625,1.3083984375,1.301953125,1.2955078125,1.29873046875,1.30517578125,1.3083984375,1.31162109375,1.31484375,1.31806640625,1.31806640625,1.3212890625,1.32451171875,1.3212890625,1.32451171875,1.32451171875,1.32451171875,1.327734375,1.32451171875,1.32451171875,1.32451171875,1.32451171875,1.32451171875,1.327734375,1.33095703125,1.33095703125,1.33095703125,1.327734375,1.327734375,1.3341796875,1.3341796875,1.3341796875,1.3341796875,1.3341796875,1.3341796875,1.33740234375,1.34384765625,1.340625,1.340625,1.34384765625,1.3470703125,1.3470703125,1.35029296875,1.35029296875,1.353515625,1.35673828125,1.36318359375,1.38251953125,1.39541015625,1.40185546875,1.41796875,1.4373046875,1.43408203125,1.41796875,1.42763671875,1.42119140625,1.38251953125,1.3341796875,1.31806640625,1.327734375,1.33095703125,1.33095703125,1.33095703125,1.33095703125,1.31484375,1.301953125,1.4115234375,1.71767578125,2.16884765625,2.50078125,2.31064453125,1.7466796875,1.3728515625,1.2890625,1.2955078125,1.2955078125,1.2890625,1.29228515625,1.301953125,1.3083984375,1.31484375,1.3212890625,1.327734375,1.3341796875,1.3470703125,1.353515625,1.35673828125,1.36318359375,1.36640625,1.37607421875,1.38251953125,1.38896484375,1.3986328125,1.405078125,1.42119140625,1.43408203125,1.44375,1.4630859375,1.48564453125,1.51142578125,1.53076171875,1.55654296875,1.57587890625,1.5919921875,1.6048828125,1.59521484375,1.56943359375,1.5275390625,1.47275390625,1.42119140625,1.37607421875,1.34384765625,1.32451171875,1.3083984375,1.30517578125,1.30517578125,1.30517578125,1.3083984375,1.31162109375,1.31484375,1.31806640625,1.31806640625,1.32451171875,1.33095703125,1.3341796875,1.327734375,1.327734375,1.33095703125,1.3212890625,1.32451171875,1.327734375,1.327734375,1.327734375,1.327734375,1.33095703125,1.327734375,1.33095703125,1.33740234375,1.33740234375,1.33740234375,1.33740234375,1.3341796875,1.340625,1.33740234375,1.340625,1.340625,1.34384765625,1.34384765625,1.340625,1.340625,1.34384765625,1.3470703125,1.34384765625,1.3470703125,1.35029296875,1.35029296875,1.35029296875,1.35029296875,1.35029296875,1.35029296875,1.35029296875,1.353515625,1.36318359375,1.37607421875,1.3986328125,1.40830078125,1.4115234375,1.430859375,1.44375,1.43408203125,1.42763671875,1.42763671875,1.4115234375,1.3599609375,1.31806640625,1.31806640625,1.327734375,1.33095703125,1.33095703125,1.3341796875,1.327734375,1.2955078125,1.31806640625,1.52109375,1.92392578125,2.384765625,2.51689453125,2.101171875,1.55654296875,1.31484375,1.29228515625,1.2955078125,1.29228515625,1.2890625,1.29873046875,1.301953125,1.3083984375,1.31806640625,1.32451171875,1.33095703125,1.33740234375,1.34384765625,1.35029296875,1.353515625,1.3599609375,1.36640625,1.37607421875,1.3857421875,1.38896484375,1.3986328125,1.40830078125,1.41796875,1.4373046875,1.456640625,1.4759765625,1.49853515625,1.52109375,1.54365234375,1.5662109375,1.585546875,1.5984375,1.6048828125,1.59521484375,1.559765625,1.51142578125,1.456640625,1.40830078125,1.36640625,1.33740234375,1.31806640625,1.3083984375,1.30517578125,1.30517578125,1.301953125,1.3083984375,1.31484375,1.31806640625,1.3212890625,1.3212890625,1.32451171875,1.327734375,1.327734375,1.327734375,1.327734375,1.32451171875,1.32451171875,1.327734375,1.33095703125,1.32451171875,1.327734375,1.327734375,1.327734375,1.33095703125,1.327734375,1.327734375,1.33095703125,1.33095703125,1.3341796875,1.3341796875,1.33740234375,1.33740234375,1.340625,1.34384765625,1.33740234375,1.340625,1.33740234375,1.340625,1.34384765625,1.34384765625,1.3470703125,1.35029296875,1.3470703125,1.3470703125,1.35029296875,1.35673828125,1.35673828125,1.35029296875,1.35029296875,1.3599609375,1.379296875,1.39541015625,1.405078125,1.4115234375,1.430859375,1.44375,1.4373046875,1.430859375,1.42763671875,1.40185546875,1.35029296875,1.3212890625,1.327734375,1.33740234375,1.3341796875,1.33740234375,1.33740234375,1.327734375,1.301953125,1.340625,1.5662109375,1.9658203125,2.40732421875,2.4685546875,1.97548828125,1.45341796875,1.27939453125,1.29228515625,1.3083984375,1.301953125,1.29873046875,1.301953125,1.30517578125,1.31484375,1.32451171875,1.33095703125,1.33740234375,1.34384765625,1.35029296875,1.353515625,1.3599609375,1.36962890625,1.3728515625,1.37607421875,1.38251953125,1.3921875,1.405078125,1.41796875,1.42763671875,1.44375,1.45986328125,1.47919921875,1.5017578125,1.5275390625,1.55009765625,1.56943359375,1.58876953125,1.60810546875,1.611328125,1.58876953125,1.55654296875,1.508203125,1.44697265625,1.39541015625,1.35673828125,1.33095703125,1.31162109375,1.29873046875,1.29873046875,1.29873046875,1.301953125,1.301953125,1.301953125,1.3083984375,1.31162109375,1.31162109375,1.31484375,1.3212890625,1.327734375,1.327734375,1.327734375,1.327734375,1.327734375,1.327734375,1.327734375,1.33095703125,1.327734375,1.32451171875,1.327734375,1.32451171875,1.327734375,1.327734375,1.327734375,1.327734375,1.327734375,1.33095703125,1.33095703125,1.33740234375,1.33740234375,1.33740234375,1.340625,1.33740234375,1.33740234375,1.34384765625,1.3470703125,1.35029296875,1.3470703125,1.3470703125,1.353515625,1.35029296875,1.35029296875,1.35673828125,1.36318359375,1.379296875,1.3986328125,1.405078125,1.4115234375,1.43408203125,1.44375,1.430859375,1.430859375,1.42763671875,1.40185546875,1.35029296875,1.3212890625,1.33095703125,1.33740234375,1.3341796875,1.33740234375,1.34384765625,1.32451171875,1.2890625,1.35029296875,1.60166015625,2.01416015625,2.4298828125,2.436328125,1.93681640625,1.45986328125,1.29873046875,1.2955078125,1.29873046875,1.2955078125,1.2955078125,1.301953125,1.3083984375,1.31484375,1.3212890625,1.33095703125,1.33740234375,1.340625,1.3470703125,1.353515625,1.3599609375,1.36318359375,1.36962890625,1.37607421875,1.38251953125,1.39541015625,1.405078125,1.41474609375,1.42763671875,1.44375,1.45986328125,1.482421875,1.508203125,1.5275390625,1.546875,1.57265625,1.5919921875,1.6048828125,1.6048828125,1.585546875,1.546875,1.49208984375,1.43408203125,1.3857421875,1.35029296875,1.327734375,1.31162109375,1.301953125,1.29873046875,1.29873046875,1.30517578125,1.3083984375,1.3083984375,1.3083984375,1.31162109375,1.31806640625,1.31806640625,1.3212890625,1.32451171875,1.32451171875,1.32451171875,1.32451171875,1.32451171875,1.3212890625,1.3212890625,1.32451171875,1.327734375,1.327734375,1.327734375,1.327734375,1.33095703125,1.33095703125,1.33095703125,1.33095703125,1.3341796875,1.33740234375,1.3341796875,1.3341796875,1.33740234375,1.33740234375,1.340625,1.340625,1.340625,1.340625,1.34384765625,1.3470703125,1.3470703125,1.3470703125,1.3470703125,1.3470703125,1.353515625,1.35029296875,1.35029296875,1.35029296875,1.353515625,1.35029296875,1.35029296875,1.36640625,1.3857421875,1.40185546875,1.40830078125,1.41796875,1.44052734375,1.44375,1.430859375,1.42763671875,1.42119140625,1.3921875,1.33740234375,1.31806640625,1.33095703125,1.3341796875,1.33095703125,1.3341796875,1.33740234375,1.31806640625,1.29228515625,1.3986328125,1.7080078125,2.16884765625,2.52333984375,2.371875,1.81435546875,1.3986328125,1.2890625,1.29228515625,1.2955078125,1.29228515625,1.29228515625,1.29873046875,1.30517578125,1.31484375,1.32451171875,1.33095703125,1.3341796875,1.340625,1.3470703125,1.35673828125,1.3599609375,1.36640625,1.37607421875,1.379296875,1.38896484375,1.3986328125,1.4115234375,1.4244140625,1.43408203125,1.4501953125,1.46953125,1.49208984375,1.5146484375,1.533984375,1.559765625,1.58232421875,1.5984375,1.60810546875,1.60810546875,1.58876953125,1.54365234375,1.49208984375,1.44052734375,1.38896484375,1.35029296875,1.33095703125,1.32451171875,1.31484375,1.3083984375,1.31162109375,1.31162109375,1.31484375,1.3212890625,1.3212890625,1.32451171875,1.327734375,1.33095703125,1.33740234375,1.33740234375,1.340625,1.340625,1.33740234375,1.3341796875,1.3341796875,1.33740234375,1.3341796875,1.3341796875,1.33740234375,1.3341796875,1.3341796875,1.340625,1.340625,1.34384765625,1.340625,1.34384765625,1.34384765625,1.34384765625,1.3470703125,1.3470703125,1.35029296875,1.3470703125,1.3470703125,1.3470703125,1.3470703125,1.353515625,1.35673828125,1.353515625,1.353515625,1.35673828125,1.35673828125,1.35673828125,1.35673828125,1.3599609375,1.3599609375,1.3599609375,1.36318359375,1.36318359375,1.379296875,1.3921875,1.405078125,1.40830078125,1.430859375,1.4501953125,1.4373046875,1.430859375,1.42763671875,1.4115234375,1.36318359375,1.32451171875,1.32451171875,1.33095703125,1.3341796875,1.3341796875,1.33095703125,1.33095703125,1.30517578125,1.31484375,1.49853515625,1.87880859375,2.34287109375,2.50400390625,2.0818359375,1.51787109375,1.27939453125,1.27294921875,1.29228515625,1.2890625,1.28583984375,1.28583984375,1.29228515625,1.29873046875,1.3083984375,1.3083984375,1.31162109375,1.31806640625,1.3212890625,1.327734375,1.33740234375,1.340625,1.340625,1.3470703125,1.353515625,1.3599609375,1.36962890625
