1.27741935483871,1.26451612903226,1.22903225806452,1.25483870967742,1.25161290322581,1.25806451612903,1.25806451612903,1.25483870967742,1.24516129032258,1.25161290322581,1.25806451612903,1.24516129032258,1.27096774193548,1.25806451612903,1.26774193548387,1.28064516129032,1.2741935483871,1.25806451612903,1.28709677419355,1.29032258064516,1.26129032258065,1.29032258064516,1.2741935483871,1.28064516129032,1.29354838709677,1.29032258064516,1.30967741935484,1.31612903225806,1.33225806451613,1.3258064516129,1.29677419354839,1.26451612903226,1.25483870967742,1.26129032258065,1.26451612903226,1.26774193548387,1.27741935483871,1.27096774193548,1.26774193548387,1.27096774193548,1.26451612903226,1.29354838709677,1.28064516129032,1.27741935483871,1.29354838709677,1.40322580645161,1.54516129032258,1.69677419354839,2.06451612903226,2.51612903225806,2.70322580645161,1.83225806451613,1.56774193548387,1.27096774193548,1.19032258064516,1.19677419354839,1.20645161290323,1.21290322580645,1.2,1.19677419354839,1.2,1.17741935483871,1.1741935483871,1.18064516129032,1.16774193548387,1.19354838709677,1.18387096774194,1.18064516129032,1.16129032258065,1.17096774193548,1.14838709677419,1.14516129032258,1.13225806451613,1.09354838709677,1.1,1.10645161290323,1.09032258064516,1.0741935483871,1.09354838709677,1.09032258064516,1.14838709677419,1.15806451612903,1.18064516129032,1.21612903225806,1.23870967741935,1.26451612903226,1.27096774193548,1.27096774193548,1.25806451612903,1.26129032258065,1.26451612903226,1.25806451612903,1.27096774193548,1.24838709677419,1.2741935483871,1.26451612903226,1.26129032258065,1.26129032258065,1.27096774193548,1.28064516129032,1.26129032258065,1.26774193548387,1.27741935483871,1.2741935483871,1.2741935483871,1.2741935483871,1.28064516129032,1.27096774193548,1.27096774193548,1.29032258064516,1.29677419354839,1.29032258064516,1.3,1.29354838709677,1.32258064516129,1.35161290322581,1.34193548387097,1.32903225806452,1.31935483870968,1.25806451612903,1.26129032258065,1.26774193548387,1.2741935483871,1.28387096774194,1.27741935483871,1.27741935483871,1.29032258064516,1.2741935483871,1.27096774193548,1.28387096774194,1.2741935483871,1.29032258064516,1.29677419354839,1.41290322580645,1.53870967741935,1.71290322580645,2.13225806451613,2.64516129032258,2.88709677419355,1.97096774193548,1.63870967741935,1.28387096774194,1.20967741935484,1.20645161290323,1.20645161290323,1.19354838709677,1.19677419354839,1.19032258064516,1.18387096774194,1.18387096774194,1.17096774193548,1.17741935483871,1.17096774193548,1.16774193548387,1.1741935483871,1.16451612903226,1.15483870967742,1.14838709677419,1.13870967741935,1.13870967741935,1.12903225806452,1.1,1.08387096774194,1.07741935483871,1.06774193548387,1.05483870967742,1.05806451612903,1.07096774193548,1.1,1.13225806451613,1.18064516129032,1.20967741935484,1.22258064516129,1.23225806451613,1.25483870967742,1.25483870967742,1.26129032258065,1.26129032258065,1.26129032258065,1.26451612903226,1.24838709677419,1.25483870967742,1.25806451612903,1.2741935483871,1.2741935483871,1.27096774193548,1.26451612903226,1.25806451612903,1.27741935483871,1.27096774193548,1.27741935483871,1.2741935483871,1.2741935483871,1.27741935483871,1.27096774193548,1.2741935483871,1.29032258064516,1.3,1.29354838709677,1.28709677419355,1.29354838709677,1.30645161290323,1.33548387096774,1.36129032258065,1.34193548387097,1.33548387096774,1.32258064516129,1.25483870967742,1.25806451612903,1.26451612903226,1.27096774193548,1.2741935483871,1.26774193548387,1.27096774193548,1.27741935483871,1.27741935483871,1.28064516129032,1.28064516129032,1.28064516129032,1.2741935483871,1.27741935483871,1.33225806451613,1.49354838709677,1.64838709677419,2.07741935483871,2.60645161290323,3.06451612903226,2.47741935483871,1.77741935483871,1.39032258064516,1.18064516129032,1.19354838709677,1.17741935483871,1.17096774193548,1.17741935483871,1.16774193548387,1.17741935483871,1.17096774193548,1.16451612903226,1.16774193548387,1.16774193548387,1.15483870967742,1.14516129032258,1.15483870967742,1.14838709677419,1.14838709677419,1.13225806451613,1.11935483870968,1.11612903225806,1.08709677419355,1.09032258064516,1.0741935483871,1.06451612903226,1.06451612903226,1.05161290322581,1.08064516129032,1.09032258064516,1.12903225806452,1.16774193548387,1.19032258064516,1.21290322580645,1.23870967741935,1.24838709677419,1.25806451612903,1.25483870967742,1.26129032258065,1.25483870967742,1.25161290322581,1.25806451612903,1.26774193548387,1.24838709677419,1.25806451612903,1.26451612903226,1.26451612903226,1.26129032258065,1.26451612903226,1.25806451612903,1.26451612903226,1.27096774193548,1.27096774193548,1.27096774193548,1.26451612903226,1.2741935483871,1.28387096774194,1.28064516129032,1.29677419354839,1.28064516129032,1.29032258064516,1.30322580645161,1.33225806451613,1.35806451612903,1.35161290322581,1.34193548387097,1.33225806451613,1.28064516129032,1.25483870967742,1.26451612903226,1.27096774193548,1.27741935483871,1.28064516129032,1.28709677419355,1.27741935483871,1.28387096774194,1.29677419354839,1.28387096774194,1.27741935483871,1.28064516129032,1.28387096774194,1.3,1.42258064516129,1.56774193548387,1.82258064516129,2.3258064516129,2.91612903225806,3.14193548387097,1.99032258064516,1.63548387096774,1.24516129032258,1.19354838709677,1.19677419354839,1.18709677419355,1.18387096774194,1.18709677419355,1.18387096774194,1.18387096774194,1.17741935483871,1.18064516129032,1.18064516129032,1.17741935483871,1.17096774193548,1.17096774193548,1.16774193548387,1.15806451612903,1.14838709677419,1.13548387096774,1.12258064516129,1.10967741935484,1.08709677419355,1.06774193548387,1.05483870967742,1.04516129032258,1.03548387096774,1.03225806451613,1.04516129032258,1.0741935483871,1.12258064516129,1.15161290322581,1.18387096774194,1.20967741935484,1.22258064516129,1.2258064516129,1.23548387096774,1.24516129032258,1.24193548387097,1.23225806451613,1.22258064516129,1.24193548387097,1.23870967741935,1.24516129032258,1.24516129032258,1.24516129032258,1.25161290322581,1.25161290322581,1.24838709677419,1.25161290322581,1.25483870967742,1.25483870967742,1.25483870967742,1.25161290322581,1.24516129032258,1.25483870967742,1.26129032258065,1.28064516129032,1.27096774193548,1.27741935483871,1.29032258064516,1.3,1.32903225806452,1.34193548387097,1.32258064516129,1.30967741935484,1.2741935483871,1.24838709677419,1.24838709677419,1.26129032258065,1.26129032258065,1.26451612903226,1.26451612903226,1.27096774193548,1.26451612903226,1.26129032258065,1.27096774193548,1.26774193548387,1.26774193548387,1.2741935483871,1.28709677419355,1.39677419354839,1.55483870967742,1.76129032258065,2.23870967741935,2.86129032258065,3.15161290322581,2.03225806451613,1.68709677419355,1.25806451612903,1.19354838709677,1.19032258064516,1.19032258064516,1.18387096774194,1.18387096774194,1.18709677419355,1.18709677419355,1.18064516129032,1.17741935483871,1.17741935483871,1.16451612903226,1.16774193548387,1.16451612903226,1.16451612903226,1.15483870967742,1.16129032258065,1.14193548387097,1.12903225806452,1.11290322580645,1.1,1.07741935483871,1.0741935483871,1.05483870967742,1.04838709677419,1.05806451612903,1.07096774193548,1.1,1.14516129032258,1.18064516129032,1.20645161290323,1.22903225806452,1.24838709677419,1.25161290322581,1.26451612903226,1.26129032258065,1.2741935483871,1.26451612903226,1.26774193548387,1.2741935483871,1.26774193548387,1.2741935483871,1.27096774193548,1.27096774193548,1.27741935483871,1.2741935483871,1.27741935483871,1.27096774193548,1.28064516129032,1.2741935483871,1.26774193548387,1.26451612903226,1.27096774193548,1.27096774193548,1.2741935483871,1.3,1.28709677419355,1.29032258064516,1.3,1.31290322580645,1.34193548387097,1.35806451612903,1.34516129032258,1.33548387096774,1.30645161290323,1.25806451612903,1.25806451612903,1.26451612903226,1.26451612903226,1.26451612903226,1.26451612903226,1.26774193548387,1.26774193548387,1.27096774193548,1.26451612903226,1.26451612903226,1.26774193548387,1.27096774193548,1.2741935483871,1.36451612903226,1.50322580645161,1.71290322580645,2.17096774193548,2.76774193548387,3.10645161290323,2.22258064516129,1.72903225806452,1.31935483870968,1.19032258064516,1.18387096774194,1.17096774193548,1.17096774193548,1.17096774193548,1.16451612903226,1.15806451612903,1.15806451612903,1.16451612903226,1.16451612903226,1.15483870967742,1.15483870967742,1.15806451612903,1.15806451612903,1.15161290322581,1.14838709677419,1.13870967741935,1.1258064516129,1.10967741935484,1.09354838709677,1.08064516129032,1.07096774193548,1.06129032258065,1.03548387096774,1.04516129032258,1.05483870967742,1.08709677419355,1.1258064516129,1.15483870967742,1.19354838709677,1.22258064516129,1.24193548387097,1.24838709677419,1.26129032258065,1.26451612903226,1.26774193548387,1.26129032258065,1.2741935483871,1.26774193548387,1.26774193548387,1.2741935483871,1.27096774193548,1.26774193548387,1.27741935483871,1.28064516129032,1.2741935483871,1.28064516129032,1.29354838709677,1.29354838709677,1.2741935483871,1.28387096774194,1.28064516129032,1.28709677419355,1.28709677419355,1.29354838709677,1.28709677419355,1.29032258064516,1.30645161290323,1.32258064516129,1.34193548387097,1.3741935483871,1.33870967741935,1.31612903225806,1.30645161290323,1.25806451612903,1.25483870967742,1.26129032258065,1.28064516129032,1.28709677419355,1.27096774193548,1.29354838709677,1.27741935483871,1.27096774193548,1.28709677419355,1.2741935483871,1.27096774193548,1.2741935483871,1.28387096774194,1.39677419354839,1.53548387096774,1.74838709677419,2.19677419354839,2.77741935483871,3.06129032258065,2.0258064516129,1.66451612903226,1.28064516129032,1.19354838709677,1.20645161290323,1.18709677419355,1.18064516129032,1.16774193548387,1.18064516129032,1.1741935483871,1.18709677419355,1.16129032258065,1.16451612903226,1.16774193548387,1.16129032258065,1.15483870967742,1.14838709677419,1.15161290322581,1.1258064516129,1.1258064516129,1.11290322580645,1.09354838709677,1.09354838709677,1.07741935483871,1.06451612903226,1.04838709677419,1.04193548387097,1.04193548387097,1.05806451612903,1.07741935483871,1.11935483870968,1.15161290322581,1.18387096774194,1.21935483870968,1.23225806451613,1.24516129032258,1.24516129032258,1.27096774193548,1.25483870967742,1.24838709677419,1.26451612903226,1.27096774193548,1.25483870967742,1.23870967741935,1.24838709677419,1.24516129032258,1.26129032258065,1.26774193548387,1.25161290322581,1.25483870967742,1.26774193548387,1.26451612903226,1.26774193548387,1.25806451612903,1.25806451612903,1.2741935483871,1.28064516129032,1.29032258064516,1.3,1.27741935483871,1.29677419354839,1.3,1.33548387096774,1.35161290322581,1.34516129032258,1.33870967741935,1.32258064516129,1.26774193548387,1.26451612903226,1.28709677419355,1.26774193548387,1.29032258064516,1.28387096774194,1.30645161290323,1.28387096774194,1.28064516129032,1.29354838709677,1.29354838709677,1.28709677419355,1.29677419354839,1.28709677419355,1.40322580645161,1.53870967741935,1.7258064516129,2.13225806451613,2.63225806451613,2.89677419354839,2.04193548387097,1.65806451612903,1.33225806451613,1.19354838709677,1.20645161290323,1.20322580645161,1.19354838709677,1.19677419354839,1.19354838709677,1.19354838709677,1.19354838709677,1.19032258064516,1.18064516129032,1.19032258064516,1.16774193548387,1.18387096774194,1.17741935483871,1.16774193548387,1.16129032258065,1.1741935483871,1.15161290322581,1.10967741935484,1.10322580645161,1.08387096774194,1.09032258064516,1.07741935483871,1.06129032258065,1.07096774193548,1.07096774193548,1.10645161290323,1.14516129032258,1.18387096774194,1.20967741935484,1.22903225806452,1.25806451612903,1.25483870967742,1.26451612903226,1.25806451612903,1.27096774193548,1.25806451612903,1.26451612903226,1.24838709677419,1.26129032258065,1.25483870967742,1.26451612903226,1.26774193548387,1.27741935483871,1.27096774193548,1.26451612903226,1.27096774193548,1.27096774193548,1.27096774193548,1.28064516129032,1.26774193548387,1.26129032258065,1.27096774193548,1.26129032258065,1.29032258064516,1.28709677419355,1.28709677419355,1.29354838709677,1.30645161290323,1.30322580645161,1.34193548387097,1.3741935483871,1.34516129032258,1.34516129032258,1.28064516129032,1.26774193548387,1.27096774193548,1.2741935483871,1.27741935483871,1.2741935483871,1.2741935483871,1.27741935483871,1.29354838709677,1.29677419354839,1.29677419354839,1.3,1.28387096774194,1.29677419354839,1.30967741935484,1.42903225806452,1.58387096774194,1.74838709677419,2.13548387096774,2.61290322580645,2.83870967741935,1.87096774193548,1.60322580645161,1.25483870967742,1.21935483870968,1.2258064516129,1.20967741935484,1.2,1.19354838709677,1.19032258064516,1.19354838709677,1.20645161290323,1.18709677419355,1.1741935483871,1.18387096774194,1.17741935483871,1.18709677419355,1.19032258064516,1.18064516129032,1.15161290322581,1.15483870967742,1.13870967741935,1.13548387096774,1.11935483870968,1.10322580645161,1.08064516129032,1.0741935483871,1.07096774193548,1.07741935483871,1.08709677419355,1.10645161290323,1.14193548387097,1.19032258064516,1.20645161290323,1.2258064516129,1.24838709677419,1.26774193548387,1.24516129032258,1.27741935483871,1.26774193548387,1.26129032258065,1.26129032258065,1.26451612903226,1.26129032258065,1.26451612903226,1.24516129032258,1.25161290322581,1.26774193548387,1.26774193548387,1.27741935483871,1.27096774193548,1.28709677419355,1.2741935483871,1.28064516129032,1.26774193548387,1.26451612903226,1.26451612903226,1.27741935483871,1.27741935483871,1.29032258064516,1.2741935483871,1.27741935483871,1.3,1.32258064516129,1.33870967741935,1.36129032258065,1.33870967741935,1.30645161290323,1.28387096774194,1.26129032258065,1.25806451612903,1.27741935483871,1.27096774193548,1.27096774193548,1.2741935483871,1.28709677419355,1.2741935483871,1.29032258064516,1.27096774193548,1.28064516129032,1.29354838709677,1.28709677419355,1.31612903225806,1.44516129032258,1.59032258064516,1.80967741935484,2.22258064516129,2.65483870967742,2.76129032258065,1.79677419354839,1.52903225806452,1.22903225806452,1.20645161290323,1.20967741935484,1.19032258064516,1.19354838709677,1.18387096774194,1.19677419354839,1.19032258064516,1.19032258064516,1.18709677419355,1.18387096774194,1.17096774193548,1.18064516129032,1.17096774193548,1.17096774193548,1.15806451612903,1.14838709677419,1.13548387096774,1.13870967741935,1.10645161290323,1.10967741935484,1.09677419354839,1.08709677419355,1.06774193548387,1.07096774193548,1.07096774193548,1.09354838709677,1.1258064516129,1.16451612903226,1.19032258064516,1.22903225806452,1.23548387096774,1.25483870967742,1.2741935483871,1.26451612903226,1.27096774193548,1.28064516129032,1.26451612903226,1.25806451612903,1.27741935483871,1.27096774193548,1.25806451612903,1.27096774193548,1.26774193548387,1.28064516129032,1.27741935483871,1.27096774193548,1.28064516129032,1.27096774193548,1.2741935483871,1.28387096774194,1.27096774193548,1.27096774193548,1.2741935483871,1.27741935483871,1.29354838709677,1.30322580645161,1.27741935483871,1.29032258064516,1.3,1.31935483870968,1.34516129032258,1.34193548387097,1.33870967741935,1.31935483870968,1.28064516129032,1.25806451612903,1.26451612903226,1.27741935483871,1.27741935483871,1.27741935483871,1.27096774193548,1.27741935483871,1.26774193548387,1.28064516129032,1.28709677419355,1.28709677419355,1.27741935483871,1.2741935483871,1.30967741935484,1.43870967741935,1.56774193548387,1.81290322580645,2.23870967741935,2.71612903225806,2.81935483870968,1.83548387096774,1.55161290322581,1.22903225806452,1.20322580645161,1.19677419354839,1.19032258064516,1.18709677419355,1.18387096774194,1.19032258064516,1.17741935483871,1.19032258064516,1.18387096774194,1.18064516129032,1.18387096774194,1.17741935483871,1.17096774193548,1.16451612903226,1.17096774193548,1.14516129032258,1.13548387096774,1.12258064516129,1.10967741935484,1.10322580645161,1.08064516129032,1.07096774193548,1.06451612903226,1.05161290322581,1.06451612903226,1.08387096774194,1.11290322580645,1.13870967741935,1.1741935483871,1.20322580645161,1.22258064516129,1.23548387096774,1.25483870967742,1.25483870967742,1.26451612903226,1.26774193548387,1.26129032258065,1.25806451612903,1.25806451612903,1.25483870967742,1.26129032258065,1.26451612903226,1.26451612903226,1.26774193548387,1.28387096774194,1.27096774193548,1.27096774193548,1.26774193548387,1.26774193548387,1.27096774193548,1.27096774193548,1.27096774193548,1.2741935483871,1.28064516129032,1.29677419354839,1.3,1.29032258064516,1.3,1.31935483870968,1.33225806451613,1.35806451612903,1.34516129032258,1.34193548387097,1.32258064516129,1.27096774193548,1.26129032258065,1.26129032258065,1.27741935483871,1.27741935483871,1.28709677419355,1.2741935483871,1.28709677419355,1.28064516129032,1.27741935483871,1.28387096774194,1.28709677419355,1.28387096774194,1.29032258064516,1.28064516129032,1.40322580645161,1.55161290322581,1.74516129032258,2.20645161290323,2.80322580645161,3.07096774193548,2.06129032258065,1.7,1.28387096774194,1.20645161290323,1.20322580645161,1.19354838709677,1.19354838709677,1.18709677419355,1.1741935483871,1.1741935483871,1.17096774193548,1.1741935483871,1.17741935483871,1.16774193548387,1.16451612903226,1.16129032258065,1.16129032258065,1.14838709677419,1.14516129032258,1.13225806451613,1.11612903225806,1.11290322580645,1.08709677419355,1.0741935483871,1.06129032258065,1.05161290322581,1.03870967741935,1.05161290322581,1.07741935483871,1.10645161290323,1.13225806451613,1.16451612903226,1.19032258064516,1.2258064516129,1.24193548387097,1.24838709677419,1.25483870967742,1.2741935483871,1.26451612903226,1.26451612903226,1.26129032258065,1.25806451612903,1.26451612903226,1.25483870967742,1.26129032258065,1.26451612903226,1.26774193548387,1.26451612903226,1.2741935483871,1.27096774193548,1.26774193548387,1.2741935483871,1.27096774193548,1.2741935483871,1.26774193548387,1.26774193548387,1.28387096774194,1.29677419354839,1.29354838709677,1.28709677419355,1.30322580645161,1.32258064516129,1.33548387096774,1.35483870967742,1.33870967741935,1.31935483870968,1.28387096774194,1.25161290322581,1.24838709677419,1.26129032258065,1.2741935483871,1.27096774193548,1.27096774193548,1.26774193548387,1.26451612903226,1.27096774193548,1.26774193548387,1.27741935483871,1.27096774193548,1.2741935483871,1.28064516129032,1.37741935483871,1.51290322580645,1.70322580645161,2.16451612903226,2.76774193548387,3.09677419354839,2.1741935483871,1.72258064516129,1.30322580645161,1.18709677419355,1.18387096774194,1.18064516129032,1.1741935483871,1.17096774193548,1.16129032258065,1.16451612903226,1.16774193548387,1.15806451612903,1.15806451612903,1.14838709677419,1.15806451612903,1.15806451612903,1.15161290322581,1.14516129032258,1.13548387096774,1.12258064516129,1.11935483870968,1.1,1.08064516129032,1.06774193548387,1.05483870967742,1.04193548387097,1.04193548387097,1.03870967741935,1.06129032258065,1.08709677419355,1.12258064516129,1.15483870967742,1.18709677419355,1.21612903225806,1.22903225806452,1.24193548387097,1.25483870967742,1.24516129032258,1.25483870967742,1.25806451612903,1.25161290322581,1.26451612903226,1.25806451612903,1.26129032258065,1.25483870967742,1.25161290322581,1.26451612903226,1.27096774193548,1.25806451612903,1.26129032258065,1.26774193548387,1.27741935483871,1.26129032258065,1.26451612903226,1.26774193548387,1.26129032258065,1.27741935483871,1.28709677419355,1.28709677419355,1.29354838709677,1.3,1.31612903225806,1.34193548387097,1.34516129032258,1.3258064516129,1.32258064516129,1.27741935483871,1.24838709677419,1.25806451612903,1.26451612903226,1.26451612903226,1.27096774193548,1.27096774193548,1.27096774193548,1.27741935483871,1.26451612903226,1.27096774193548,1.26774193548387,1.27096774193548,1.25806451612903,1.26129032258065,1.30967741935484,1.47096774193548,1.60967741935484,1.98709677419355,2.54516129032258,3.08709677419355,2.69354838709677,1.85161290322581,1.4258064516129,1.18064516129032,1.18709677419355,1.18709677419355,1.18064516129032,1.1741935483871,1.18064516129032,1.17741935483871,1.17741935483871,1.17741935483871,1.16774193548387,1.17096774193548,1.17741935483871,1.17096774193548,1.16129032258065,1.17096774193548,1.15806451612903,1.14838709677419,1.13870967741935,1.1258064516129,1.10967741935484,1.10322580645161,1.08387096774194,1.06774193548387,1.06451612903226,1.06774193548387,1.0741935483871,1.09677419354839,1.13870967741935,1.18064516129032,1.2,1.24838709677419,1.26129032258065,1.2741935483871,1.29032258064516,1.29677419354839,1.30645161290323,1.3,1.3,1.30967741935484,1.30967741935484,1.31935483870968,1.30967741935484,1.31290322580645,1.3258064516129,1.3258064516129,1.33870967741935,1.33225806451613,1.33548387096774,1.33548387096774,1.33870967741935,1.33548387096774,1.34193548387097,1.35161290322581,1.36451612903226,1.3741935483871,1.37096774193548,1.38064516129032,1.39032258064516
1.24516129032258,1.24193548387097,1.24193548387097,1.25161290322581,1.26451612903226,1.26129032258065,1.30322580645161,1.33225806451613,1.30645161290323,1.30645161290323,1.24193548387097,1.22903225806452,1.23225806451613,1.23870967741935,1.23870967741935,1.23870967741935,1.23870967741935,1.24193548387097,1.25806451612903,1.26129032258065,1.26451612903226,1.26774193548387,1.25161290322581,1.26774193548387,1.27741935483871,1.4,1.55483870967742,1.72258064516129,2.10967741935484,2.58709677419355,2.80967741935484,1.84516129032258,1.57741935483871,1.22903225806452,1.19677419354839,1.2,1.18709677419355,1.17741935483871,1.17096774193548,1.17096774193548,1.17096774193548,1.18709677419355,1.16774193548387,1.15483870967742,1.16774193548387,1.16129032258065,1.17096774193548,1.1741935483871,1.16451612903226,1.13548387096774,1.13870967741935,1.1258064516129,1.11935483870968,1.10322580645161,1.09032258064516,1.06774193548387,1.06129032258065,1.05806451612903,1.06451612903226,1.07741935483871,1.09354838709677,1.13225806451613,1.17741935483871,1.19677419354839,1.21612903225806,1.23870967741935,1.26129032258065,1.23870967741935,1.27096774193548,1.26129032258065,1.25483870967742,1.25483870967742,1.25806451612903,1.25483870967742,1.25806451612903,1.23870967741935,1.24838709677419,1.26451612903226,1.26451612903226,1.2741935483871,1.26774193548387,1.28387096774194,1.27096774193548,1.27741935483871,1.26774193548387,1.26129032258065,1.26129032258065,1.27741935483871,1.27741935483871,1.29032258064516,1.2741935483871,1.27741935483871,1.3,1.32258064516129,1.34193548387097,1.36451612903226,1.33870967741935,1.30967741935484,1.28709677419355,1.26451612903226,1.25806451612903,1.28064516129032,1.2741935483871,1.2741935483871,1.27741935483871,1.29032258064516,1.27741935483871,1.29677419354839,1.27741935483871,1.28387096774194,1.29677419354839,1.29354838709677,1.31935483870968,1.45161290322581,1.59354838709677,1.81290322580645,2.22903225806452,2.65806451612903,2.76774193548387,1.80322580645161,1.53225806451613,1.23548387096774,1.20967741935484,1.21612903225806,1.19677419354839,1.2,1.19032258064516,1.20322580645161,1.19354838709677,1.19677419354839,1.19354838709677,1.19032258064516,1.17741935483871,1.18709677419355,1.17741935483871,1.17741935483871,1.16451612903226,1.15483870967742,1.14193548387097,1.14516129032258,1.11290322580645,1.11612903225806,1.10322580645161,1.09354838709677,1.0741935483871,1.07741935483871,1.07741935483871,1.1,1.13225806451613,1.17096774193548,1.19677419354839,1.23548387096774,1.24193548387097,1.26129032258065,1.28064516129032,1.27096774193548,1.27741935483871,1.28709677419355,1.27096774193548,1.26451612903226,1.28387096774194,1.27741935483871,1.26451612903226,1.27741935483871,1.2741935483871,1.28709677419355,1.28387096774194,1.2741935483871,1.28709677419355,1.2741935483871,1.28064516129032,1.29032258064516,1.27741935483871,1.27741935483871,1.28064516129032,1.28387096774194,1.29677419354839,1.30645161290323,1.28064516129032,1.29677419354839,1.30322580645161,1.32258064516129,1.35161290322581,1.34838709677419,1.34516129032258,1.32258064516129,1.28387096774194,1.26451612903226,1.26774193548387,1.28064516129032,1.28064516129032,1.28387096774194,1.2741935483871,1.28064516129032,1.27096774193548,1.28387096774194,1.29032258064516,1.29032258064516,1.28064516129032,1.27741935483871,1.31290322580645,1.44193548387097,1.56774193548387,1.81290322580645,2.23870967741935,2.71935483870968,2.82258064516129,1.83870967741935,1.55161290322581,1.23225806451613,1.20322580645161,1.2,1.19032258064516,1.18709677419355,1.18387096774194,1.19032258064516,1.18064516129032,1.19032258064516,1.18387096774194,1.18064516129032,1.18387096774194,1.17741935483871,1.17096774193548,1.16451612903226,1.17096774193548,1.14516129032258,1.13548387096774,1.12258064516129,1.10967741935484,1.10322580645161,1.08064516129032,1.06774193548387,1.06451612903226,1.05161290322581,1.06451612903226,1.08387096774194,1.11290322580645,1.13870967741935,1.17096774193548,1.2,1.22258064516129,1.23225806451613,1.25483870967742,1.25161290322581,1.26129032258065,1.26451612903226,1.26129032258065,1.25483870967742,1.25483870967742,1.25161290322581,1.25806451612903,1.26129032258065,1.26129032258065,1.26451612903226,1.28064516129032,1.26774193548387,1.26774193548387,1.26451612903226,1.26451612903226,1.26774193548387,1.26774193548387,1.26774193548387,1.27096774193548,1.27741935483871,1.29354838709677,1.29677419354839,1.28387096774194,1.29677419354839,1.31612903225806,1.32903225806452,1.35483870967742,1.34193548387097,1.33870967741935,1.31935483870968,1.26451612903226,1.25483870967742,1.25806451612903,1.2741935483871,1.2741935483871,1.28387096774194,1.26774193548387,1.28387096774194,1.2741935483871,1.27096774193548,1.28064516129032,1.28064516129032,1.27741935483871,1.28387096774194,1.27741935483871,1.4,1.54838709677419,1.74193548387097,2.20322580645161,2.8,3.06774193548387,2.05806451612903,1.69354838709677,1.27741935483871,1.2,1.19677419354839,1.19032258064516,1.18709677419355,1.18064516129032,1.16774193548387,1.16774193548387,1.16774193548387,1.16774193548387,1.1741935483871,1.16129032258065,1.16129032258065,1.15483870967742,1.15483870967742,1.14193548387097,1.14193548387097,1.1258064516129,1.11290322580645,1.10645161290323,1.08387096774194,1.06774193548387,1.05806451612903,1.04838709677419,1.03225806451613,1.04838709677419,1.0741935483871,1.10322580645161,1.12903225806452,1.16129032258065,1.18709677419355,1.21935483870968,1.23870967741935,1.24516129032258,1.25161290322581,1.27096774193548,1.26129032258065,1.26129032258065,1.25806451612903,1.25483870967742,1.26129032258065,1.25161290322581,1.25806451612903,1.26129032258065,1.26451612903226,1.26129032258065,1.2741935483871,1.26774193548387,1.26774193548387,1.2741935483871,1.27096774193548,1.2741935483871,1.26774193548387,1.26774193548387,1.28387096774194,1.29677419354839,1.29354838709677,1.28709677419355,1.30322580645161,1.32258064516129,1.33548387096774,1.35483870967742,1.33870967741935,1.32258064516129,1.28387096774194,1.25161290322581,1.24838709677419,1.26451612903226,1.2741935483871,1.2741935483871,1.2741935483871,1.27096774193548,1.26774193548387,1.2741935483871,1.27096774193548,1.28064516129032,1.2741935483871,1.27741935483871,1.28387096774194,1.38064516129032,1.51612903225806,1.70645161290323,2.16774193548387,2.7741935483871,3.1,2.17741935483871,1.7258064516129,1.30645161290323,1.19354838709677,1.19032258064516,1.18387096774194,1.18064516129032,1.17741935483871,1.16774193548387,1.17096774193548,1.1741935483871,1.16451612903226,1.16451612903226,1.15483870967742,1.16451612903226,1.16451612903226,1.15806451612903,1.15483870967742,1.14193548387097,1.12903225806452,1.1258064516129,1.10645161290323,1.08709677419355,1.07741935483871,1.06451612903226,1.05161290322581,1.05161290322581,1.04838709677419,1.07096774193548,1.09677419354839,1.13225806451613,1.16451612903226,1.19677419354839,1.2258064516129,1.23870967741935,1.25161290322581,1.26451612903226,1.25483870967742,1.26451612903226,1.26774193548387,1.26129032258065,1.2741935483871,1.26774193548387,1.27096774193548,1.26451612903226,1.26129032258065,1.2741935483871,1.28064516129032,1.26774193548387,1.27096774193548,1.27741935483871,1.28709677419355,1.27096774193548,1.27096774193548,1.27741935483871,1.26774193548387,1.28709677419355,1.29677419354839,1.29354838709677,1.30322580645161,1.30967741935484,1.3258064516129,1.34838709677419,1.35161290322581,1.33225806451613,1.32903225806452,1.28387096774194,1.25483870967742,1.26451612903226,1.27096774193548,1.27096774193548,1.27741935483871,1.27741935483871,1.2741935483871,1.28387096774194,1.27096774193548,1.2741935483871,1.27096774193548,1.2741935483871,1.26129032258065,1.26451612903226,1.31290322580645,1.4741935483871,1.60967741935484,1.98709677419355,2.54516129032258,3.08709677419355,2.69354838709677,1.85161290322581,1.42258064516129,1.17741935483871,1.18387096774194,1.18387096774194,1.1741935483871,1.16774193548387,1.1741935483871,1.17096774193548,1.16774193548387,1.16774193548387,1.15483870967742,1.16129032258065,1.16774193548387,1.15806451612903,1.14838709677419,1.15483870967742,1.14193548387097,1.13225806451613,1.11935483870968,1.10645161290323,1.08709677419355,1.08064516129032,1.06129032258065,1.04516129032258,1.03870967741935,1.03870967741935,1.04516129032258,1.06774193548387,1.10967741935484,1.14516129032258,1.16774193548387,1.21290322580645,1.2258064516129,1.23548387096774,1.25161290322581,1.25483870967742,1.26129032258065,1.25483870967742,1.25161290322581,1.26129032258065,1.26129032258065,1.26774193548387,1.25806451612903,1.25806451612903,1.26774193548387,1.26451612903226,1.27741935483871,1.26774193548387,1.27096774193548,1.26774193548387,1.27096774193548,1.26774193548387,1.26774193548387,1.27741935483871,1.28709677419355,1.29677419354839,1.29032258064516,1.29677419354839,1.30322580645161,1.33225806451613,1.34516129032258,1.35483870967742,1.34193548387097,1.3258064516129,1.28064516129032,1.25806451612903,1.26129032258065,1.26774193548387,1.26451612903226,1.27096774193548,1.27096774193548,1.27096774193548,1.2741935483871,1.28064516129032,1.28064516129032,1.27741935483871,1.27096774193548,1.27741935483871,1.28064516129032,1.30322580645161,1.44193548387097,1.59032258064516,1.88709677419355,2.44193548387097,2.99354838709677,3.01290322580645,1.9258064516129,1.53225806451613,1.20322580645161,1.19354838709677,1.18709677419355,1.1741935483871,1.1741935483871,1.17096774193548,1.16774193548387,1.16774193548387,1.15806451612903,1.15806451612903,1.15806451612903,1.16129032258065,1.15161290322581,1.15806451612903,1.14838709677419,1.13870967741935,1.12903225806452,1.1258064516129,1.11612903225806,1.08709677419355,1.07096774193548,1.06451612903226,1.04838709677419,1.04193548387097,1.03548387096774,1.03225806451613,1.06451612903226,1.1,1.13225806451613,1.17096774193548,1.19677419354839,1.22258064516129,1.24193548387097,1.24838709677419,1.25161290322581,1.26451612903226,1.25161290322581,1.25806451612903,1.26129032258065,1.25806451612903,1.25483870967742,1.24838709677419,1.25806451612903,1.26774193548387,1.26774193548387,1.26451612903226,1.27096774193548,1.27096774193548,1.27096774193548,1.27096774193548,1.26451612903226,1.26774193548387,1.27741935483871,1.28064516129032,1.3,1.28709677419355,1.29677419354839,1.30322580645161,1.31612903225806,1.36129032258065,1.35161290322581,1.33870967741935,1.32258064516129,1.28387096774194,1.2741935483871,1.26129032258065,1.27096774193548,1.26451612903226,1.2741935483871,1.27741935483871,1.27741935483871,1.28064516129032,1.2741935483871,1.2741935483871,1.28709677419355,1.2741935483871,1.28064516129032,1.28064516129032,1.30322580645161,1.42903225806452,1.58387096774194,1.86451612903226,2.4,2.95806451612903,3.08387096774194,1.94516129032258,1.5741935483871,1.20645161290323,1.18064516129032,1.17741935483871,1.1741935483871,1.17096774193548,1.16774193548387,1.16774193548387,1.16129032258065,1.16451612903226,1.16774193548387,1.16451612903226,1.14838709677419,1.15806451612903,1.14838709677419,1.15806451612903,1.14838709677419,1.13870967741935,1.11935483870968,1.10322580645161,1.09677419354839,1.08064516129032,1.0741935483871,1.05806451612903,1.03225806451613,1.03548387096774,1.02903225806452,1.07096774193548,1.08387096774194,1.12903225806452,1.16774193548387,1.19677419354839,1.21612903225806,1.23225806451613,1.24193548387097,1.24516129032258,1.25806451612903,1.26129032258065,1.26129032258065,1.26451612903226,1.26774193548387,1.24838709677419,1.26451612903226,1.25483870967742,1.26129032258065,1.25806451612903,1.26451612903226,1.28064516129032,1.26451612903226,1.26451612903226,1.26129032258065,1.26774193548387,1.27096774193548,1.27096774193548,1.28387096774194,1.30645161290323,1.28709677419355,1.29032258064516,1.30322580645161,1.32258064516129,1.35161290322581,1.36774193548387,1.34516129032258,1.32258064516129,1.28064516129032,1.25806451612903,1.25806451612903,1.26774193548387,1.26451612903226,1.27096774193548,1.28387096774194,1.27741935483871,1.28064516129032,1.27096774193548,1.26774193548387,1.27741935483871,1.2741935483871,1.28387096774194,1.27741935483871,1.29354838709677,1.43870967741935,1.6,1.85483870967742,2.34193548387097,2.84193548387097,2.92258064516129,1.86129032258065,1.54516129032258,1.22903225806452,1.20322580645161,1.19354838709677,1.19354838709677,1.18709677419355,1.19032258064516,1.1741935483871,1.16774193548387,1.18064516129032,1.16451612903226,1.18064516129032,1.1741935483871,1.17741935483871,1.17096774193548,1.16774193548387,1.17096774193548,1.15161290322581,1.14516129032258,1.11612903225806,1.10967741935484,1.09677419354839,1.08387096774194,1.0741935483871,1.06129032258065,1.05483870967742,1.05483870967742,1.08064516129032,1.1,1.14838709677419,1.17741935483871,1.2,1.21935483870968,1.24838709677419,1.26451612903226,1.27741935483871,1.26451612903226,1.28387096774194,1.2741935483871,1.26129032258065,1.2741935483871,1.25161290322581,1.27741935483871,1.26129032258065,1.26451612903226,1.28387096774194,1.26774193548387,1.27741935483871,1.26129032258065,1.27096774193548,1.2741935483871,1.2741935483871,1.26451612903226,1.28064516129032,1.28387096774194,1.29677419354839,1.28064516129032,1.3,1.3,1.3,1.33870967741935,1.35483870967742,1.35483870967742,1.34193548387097,1.31612903225806,1.26129032258065,1.25161290322581,1.27096774193548,1.28064516129032,1.27096774193548,1.29032258064516,1.26451612903226,1.28387096774194,1.3,1.28387096774194,1.27096774193548,1.2741935483871,1.29032258064516,1.28064516129032,1.29032258064516,1.3258064516129,1.46129032258065,1.60645161290323,1.87096774193548,2.2741935483871,2.72258064516129,2.72258064516129,1.78064516129032,1.50967741935484,1.2258064516129,1.20967741935484,1.20967741935484,1.2,1.2,1.2,1.18387096774194,1.17741935483871,1.18387096774194,1.17096774193548,1.1741935483871,1.18387096774194,1.16774193548387,1.16451612903226,1.17096774193548,1.16774193548387,1.15483870967742,1.15161290322581,1.1258064516129,1.10645161290323,1.10322580645161,1.09677419354839,1.07741935483871,1.06451612903226,1.06129032258065,1.08064516129032,1.09677419354839,1.11935483870968,1.14838709677419,1.18387096774194,1.20967741935484,1.23548387096774,1.23548387096774,1.26451612903226,1.26451612903226,1.25806451612903,1.25806451612903,1.26129032258065,1.26129032258065,1.27096774193548,1.26129032258065,1.27096774193548,1.2741935483871,1.2741935483871,1.26451612903226,1.27741935483871,1.27096774193548,1.27741935483871,1.28064516129032,1.27096774193548,1.2741935483871,1.27741935483871,1.28387096774194,1.30645161290323,1.29354838709677,1.29677419354839,1.29354838709677,1.29677419354839,1.31612903225806,1.34193548387097,1.36129032258065,1.32903225806452,1.32903225806452,1.30645161290323,1.26451612903226,1.26451612903226,1.28064516129032,1.2741935483871,1.28064516129032,1.2741935483871,1.28064516129032,1.28064516129032,1.29677419354839,1.27096774193548,1.28387096774194,1.28387096774194,1.2741935483871,1.29032258064516,1.29354838709677,1.41290322580645,1.52903225806452,1.70645161290323,2.06129032258065,2.50322580645161,2.73548387096774,1.87741935483871,1.60645161290323,1.3,1.20322580645161,1.21935483870968,1.20967741935484,1.20322580645161,1.2,1.19677419354839,1.18387096774194,1.21935483870968,1.1741935483871,1.18064516129032,1.18064516129032,1.18709677419355,1.18064516129032,1.19032258064516,1.16451612903226,1.16129032258065,1.16129032258065,1.15483870967742,1.13870967741935,1.11290322580645,1.11290322580645,1.08709677419355,1.08064516129032,1.09032258064516,1.09354838709677,1.1,1.12258064516129,1.16774193548387,1.1741935483871,1.21612903225806,1.23870967741935,1.26451612903226,1.26129032258065,1.27096774193548,1.28064516129032,1.27741935483871,1.26774193548387,1.27096774193548,1.26451612903226,1.26774193548387,1.2741935483871,1.26451612903226,1.26451612903226,1.28064516129032,1.28709677419355,1.29354838709677,1.28387096774194,1.2741935483871,1.28387096774194,1.28064516129032,1.29032258064516,1.2741935483871,1.28387096774194,1.28709677419355,1.28709677419355,1.29354838709677,1.28064516129032,1.29677419354839,1.31290322580645,1.34193548387097,1.34838709677419,1.34838709677419,1.35806451612903,1.31935483870968,1.26774193548387,1.2741935483871,1.2741935483871,1.2741935483871,1.27096774193548,1.29677419354839,1.29677419354839,1.29032258064516,1.27741935483871,1.2741935483871,1.28064516129032,1.28387096774194,1.28064516129032,1.28387096774194,1.30322580645161,1.43870967741935,1.51612903225806,1.69354838709677,2.03548387096774,2.46774193548387,2.68064516129032,1.83870967741935,1.58709677419355,1.28064516129032,1.21935483870968,1.20645161290323,1.19677419354839,1.20645161290323,1.21290322580645,1.19032258064516,1.2,1.2,1.20645161290323,1.19354838709677,1.21935483870968,1.18709677419355,1.18387096774194,1.18387096774194,1.18064516129032,1.18387096774194,1.1741935483871,1.15161290322581,1.13548387096774,1.12903225806452,1.10967741935484,1.12258064516129,1.09354838709677,1.09354838709677,1.10967741935484,1.11935483870968,1.14193548387097,1.16129032258065,1.20967741935484,1.2258064516129,1.25483870967742,1.26129032258065,1.26774193548387,1.2741935483871,1.26129032258065,1.26129032258065,1.2741935483871,1.29032258064516,1.28064516129032,1.26774193548387,1.26451612903226,1.27096774193548,1.26774193548387,1.27096774193548,1.3,1.28064516129032,1.29354838709677,1.28709677419355,1.2741935483871,1.28064516129032,1.29032258064516,1.29032258064516,1.29677419354839,1.3,1.30322580645161,1.29677419354839,1.28709677419355,1.30322580645161,1.30967741935484,1.33548387096774,1.36129032258065,1.33870967741935,1.33225806451613,1.28064516129032,1.27096774193548,1.25806451612903,1.26774193548387,1.26451612903226,1.28064516129032,1.28064516129032,1.2741935483871,1.27741935483871,1.28064516129032,1.28387096774194,1.28709677419355,1.3,1.2741935483871,1.28064516129032,1.33225806451613,1.48064516129032,1.5741935483871,1.80322580645161,2.2,2.59354838709677,2.39677419354839,1.69032258064516,1.44838709677419,1.20645161290323,1.20645161290323,1.2,1.20967741935484,1.19677419354839,1.19032258064516,1.19032258064516,1.19032258064516,1.18064516129032,1.18709677419355,1.18064516129032,1.18709677419355,1.18709677419355,1.17096774193548,1.16451612903226,1.18387096774194,1.1741935483871,1.14516129032258,1.15483870967742,1.13870967741935,1.12258064516129,1.11935483870968,1.11290322580645,1.09677419354839,1.09677419354839,1.10967741935484,1.12258064516129,1.14193548387097,1.16129032258065,1.2,1.2258064516129,1.25483870967742,1.24516129032258,1.27096774193548,1.25806451612903,1.26451612903226,1.26451612903226,1.25806451612903,1.26129032258065,1.26129032258065,1.25806451612903,1.24838709677419,1.26451612903226,1.24838709677419,1.25806451612903,1.26451612903226,1.25806451612903,1.26774193548387,1.26451612903226,1.26451612903226,1.27096774193548,1.27096774193548,1.2741935483871,1.26774193548387,1.29354838709677,1.30322580645161,1.27741935483871,1.28387096774194,1.28064516129032,1.30645161290323,1.33548387096774,1.36129032258065,1.33225806451613,1.31935483870968,1.29032258064516,1.26129032258065,1.27096774193548,1.27096774193548,1.28064516129032,1.27741935483871,1.28387096774194,1.28709677419355,1.27741935483871,1.28064516129032,1.28709677419355,1.28064516129032,1.28709677419355,1.27741935483871,1.29032258064516,1.30645161290323,1.44193548387097,1.54838709677419,1.73870967741935,2.09677419354839,2.50322580645161,2.69354838709677,1.78064516129032,1.55161290322581,1.25161290322581,1.21290322580645,1.21290322580645,1.22258064516129,1.21290322580645,1.21290322580645,1.20645161290323,1.20645161290323,1.2,1.20322580645161,1.19677419354839,1.20967741935484,1.19677419354839,1.20322580645161,1.20967741935484,1.18709677419355,1.18709677419355,1.16451612903226,1.16451612903226,1.14838709677419,1.15161290322581,1.13225806451613,1.11612903225806,1.11612903225806,1.11290322580645,1.1258064516129,1.15806451612903,1.16451612903226,1.17741935483871,1.21935483870968,1.25483870967742,1.25483870967742,1.2741935483871,1.29677419354839,1.29677419354839,1.31612903225806,1.3,1.29677419354839,1.3,1.30645161290323,1.30322580645161,1.30645161290323,1.30322580645161,1.29677419354839,1.30967741935484,1.30967741935484,1.31612903225806,1.31290322580645,1.31290322580645,1.29677419354839,1.31290322580645,1.29354838709677,1.3258064516129,1.30967741935484,1.32903225806452,1.33548387096774,1.31935483870968,1.32903225806452,1.34193548387097,1.34193548387097,1.36451612903226,1.37741935483871,1.36129032258065,1.35483870967742,1.32903225806452,1.29032258064516,1.26774193548387,1.3,1.29677419354839,1.29354838709677,1.3,1.30967741935484,1.30645161290323,1.31290322580645,1.28709677419355,1.28709677419355,1.3,1.30322580645161
1.22258064516129,1.21290322580645,1.20967741935484,1.20645161290323,1.2,1.20967741935484,1.20322580645161,1.2,1.20322580645161,1.19677419354839,1.18709677419355,1.18387096774194,1.17741935483871,1.16451612903226,1.15806451612903,1.14193548387097,1.12258064516129,1.10967741935484,1.09677419354839,1.08709677419355,1.09032258064516,1.09354838709677,1.10645161290323,1.12903225806452,1.16774193548387,1.20645161290323,1.23548387096774,1.24838709677419,1.26774193548387,1.29032258064516,1.29032258064516,1.29677419354839,1.30322580645161,1.29354838709677,1.29354838709677,1.29677419354839,1.29354838709677,1.29354838709677,1.29354838709677,1.29032258064516,1.29677419354839,1.30967741935484,1.30322580645161,1.3,1.30322580645161,1.30645161290323,1.31290322580645,1.30322580645161,1.30967741935484,1.33225806451613,1.33225806451613,1.32903225806452,1.34838709677419,1.35161290322581,1.3741935483871,1.40967741935484,1.38387096774194,1.37096774193548,1.35806451612903,1.30645161290323,1.29032258064516,1.29032258064516,1.30322580645161,1.3,1.30322580645161,1.3,1.3,1.30967741935484,1.28709677419355,1.29354838709677,1.29354838709677,1.29677419354839,1.29354838709677,1.29354838709677,1.28387096774194,1.3258064516129,1.49032258064516,1.62258064516129,1.98387096774194,2.54516129032258,3.06774193548387,2.71935483870968,1.86774193548387,1.42903225806452,1.18709677419355,1.18387096774194,1.18709677419355,1.16774193548387,1.16451612903226,1.15483870967742,1.15806451612903,1.17096774193548,1.15806451612903,1.15806451612903,1.15483870967742,1.15806451612903,1.14838709677419,1.15161290322581,1.14838709677419,1.13548387096774,1.13225806451613,1.11935483870968,1.10322580645161,1.08387096774194,1.07096774193548,1.04838709677419,1.03548387096774,1.03548387096774,1.03870967741935,1.03870967741935,1.07741935483871,1.1,1.13870967741935,1.17096774193548,1.20967741935484,1.23225806451613,1.24193548387097,1.26129032258065,1.25806451612903,1.25483870967742,1.26451612903226,1.27096774193548,1.25806451612903,1.26129032258065,1.26774193548387,1.26129032258065,1.27096774193548,1.26451612903226,1.26774193548387,1.26774193548387,1.2741935483871,1.2741935483871,1.27741935483871,1.27096774193548,1.28709677419355,1.28709677419355,1.30322580645161,1.30322580645161,1.28387096774194,1.3,1.30967741935484,1.33548387096774,1.35483870967742,1.35806451612903,1.33870967741935,1.32258064516129,1.27741935483871,1.25161290322581,1.26129032258065,1.26774193548387,1.27741935483871,1.27741935483871,1.27096774193548,1.26774193548387,1.26774193548387,1.26774193548387,1.27096774193548,1.27741935483871,1.27096774193548,1.2741935483871,1.26129032258065,1.2741935483871,1.27741935483871,1.34193548387097,1.5,1.68064516129032,2.13548387096774,2.72903225806452,3.1,2.31612903225806,1.73870967741935,1.32903225806452,1.1741935483871,1.18064516129032,1.17096774193548,1.16451612903226,1.16451612903226,1.16451612903226,1.15806451612903,1.16451612903226,1.16774193548387,1.16451612903226,1.16129032258065,1.15161290322581,1.15161290322581,1.14838709677419,1.13870967741935,1.13548387096774,1.11612903225806,1.10645161290323,1.09032258064516,1.0741935483871,1.05806451612903,1.05806451612903,1.04193548387097,1.02903225806452,1.02903225806452,1.04193548387097,1.07096774193548,1.10967741935484,1.14838709677419,1.1741935483871,1.20645161290323,1.2258064516129,1.24516129032258,1.25161290322581,1.25161290322581,1.25806451612903,1.25806451612903,1.25483870967742,1.26451612903226,1.26774193548387,1.25483870967742,1.26129032258065,1.26451612903226,1.26129032258065,1.26129032258065,1.25806451612903,1.26129032258065,1.26451612903226,1.25806451612903,1.26774193548387,1.26774193548387,1.27741935483871,1.29032258064516,1.29032258064516,1.29677419354839,1.30322580645161,1.32258064516129,1.34838709677419,1.35483870967742,1.34516129032258,1.33548387096774,1.29354838709677,1.26129032258065,1.25483870967742,1.27096774193548,1.2741935483871,1.28064516129032,1.2741935483871,1.28064516129032,1.27741935483871,1.2741935483871,1.27741935483871,1.27096774193548,1.27741935483871,1.28387096774194,1.27096774193548,1.27741935483871,1.27741935483871,1.31290322580645,1.45483870967742,1.60967741935484,1.93548387096774,2.5,3.05161290322581,2.85483870967742,1.89032258064516,1.48064516129032,1.18387096774194,1.18709677419355,1.17741935483871,1.17741935483871,1.18064516129032,1.17741935483871,1.1741935483871,1.16774193548387,1.1741935483871,1.16774193548387,1.16451612903226,1.15806451612903,1.16129032258065,1.15806451612903,1.16774193548387,1.13548387096774,1.13225806451613,1.12258064516129,1.10322580645161,1.09677419354839,1.08387096774194,1.05806451612903,1.05161290322581,1.03548387096774,1.03870967741935,1.04838709677419,1.06451612903226,1.1,1.13870967741935,1.1741935483871,1.20322580645161,1.21612903225806,1.23870967741935,1.25161290322581,1.25161290322581,1.26451612903226,1.26129032258065,1.26129032258065,1.26774193548387,1.26451612903226,1.27096774193548,1.26774193548387,1.27096774193548,1.27096774193548,1.27741935483871,1.2741935483871,1.28064516129032,1.27741935483871,1.27741935483871,1.28064516129032,1.28709677419355,1.29032258064516,1.30645161290323,1.31935483870968,1.29677419354839,1.30645161290323,1.32903225806452,1.35806451612903,1.37096774193548,1.34838709677419,1.33548387096774,1.31935483870968,1.26129032258065,1.26129032258065,1.27096774193548,1.27096774193548,1.27741935483871,1.29032258064516,1.28387096774194,1.2741935483871,1.26774193548387,1.27741935483871,1.2741935483871,1.28064516129032,1.27741935483871,1.26774193548387,1.27741935483871,1.27741935483871,1.33548387096774,1.49032258064516,1.67096774193548,2.1,2.66129032258065,3.11935483870968,2.51290322580645,1.78387096774194,1.38064516129032,1.18064516129032,1.18064516129032,1.1741935483871,1.1741935483871,1.16774193548387,1.1741935483871,1.16129032258065,1.15806451612903,1.16774193548387,1.16129032258065,1.16129032258065,1.16451612903226,1.16129032258065,1.15161290322581,1.14838709677419,1.13548387096774,1.13225806451613,1.11612903225806,1.09677419354839,1.08064516129032,1.06774193548387,1.05483870967742,1.03870967741935,1.02903225806452,1.02903225806452,1.03548387096774,1.06774193548387,1.09677419354839,1.13548387096774,1.16451612903226,1.19354838709677,1.21935483870968,1.23225806451613,1.24516129032258,1.25483870967742,1.25161290322581,1.24838709677419,1.25483870967742,1.25161290322581,1.25161290322581,1.25161290322581,1.25483870967742,1.25806451612903,1.26774193548387,1.26451612903226,1.26129032258065,1.27096774193548,1.26451612903226,1.26774193548387,1.25806451612903,1.26774193548387,1.2741935483871,1.29032258064516,1.29354838709677,1.28709677419355,1.29677419354839,1.30322580645161,1.3258064516129,1.34516129032258,1.34193548387097,1.32903225806452,1.31612903225806,1.26451612903226,1.24838709677419,1.25161290322581,1.26451612903226,1.27096774193548,1.26774193548387,1.26451612903226,1.26451612903226,1.27096774193548,1.26774193548387,1.26774193548387,1.26451612903226,1.26774193548387,1.26774193548387,1.26129032258065,1.29032258064516,1.44516129032258,1.6,1.9258064516129,2.49354838709677,3.03225806451613,2.84193548387097,1.88387096774194,1.44516129032258,1.16774193548387,1.18064516129032,1.1741935483871,1.16451612903226,1.16774193548387,1.16129032258065,1.16451612903226,1.16774193548387,1.16451612903226,1.16129032258065,1.17096774193548,1.16451612903226,1.17096774193548,1.16451612903226,1.16129032258065,1.14516129032258,1.13870967741935,1.13548387096774,1.12258064516129,1.10967741935484,1.10322580645161,1.08064516129032,1.06129032258065,1.07096774193548,1.05161290322581,1.05483870967742,1.08387096774194,1.11612903225806,1.16129032258065,1.19354838709677,1.22258064516129,1.24516129032258,1.25161290322581,1.26451612903226,1.27741935483871,1.27741935483871,1.27741935483871,1.28387096774194,1.27096774193548,1.27741935483871,1.27741935483871,1.28387096774194,1.2741935483871,1.28387096774194,1.28387096774194,1.27741935483871,1.27741935483871,1.28064516129032,1.27741935483871,1.28064516129032,1.28064516129032,1.2741935483871,1.28064516129032,1.3,1.31290322580645,1.3,1.3,1.30645161290323,1.33548387096774,1.35806451612903,1.36129032258065,1.33548387096774,1.33548387096774,1.29032258064516,1.26129032258065,1.26129032258065,1.2741935483871,1.2741935483871,1.27741935483871,1.26451612903226,1.26774193548387,1.27096774193548,1.2741935483871,1.27741935483871,1.27741935483871,1.26129032258065,1.27096774193548,1.26774193548387,1.29032258064516,1.4,1.55483870967742,1.80967741935484,2.30967741935484,2.91290322580645,3.15161290322581,1.98064516129032,1.63225806451613,1.22258064516129,1.18064516129032,1.1741935483871,1.16774193548387,1.16774193548387,1.15483870967742,1.15806451612903,1.16451612903226,1.17096774193548,1.16774193548387,1.15483870967742,1.15483870967742,1.15483870967742,1.15161290322581,1.13870967741935,1.14193548387097,1.12903225806452,1.11612903225806,1.10967741935484,1.08387096774194,1.0741935483871,1.05161290322581,1.03870967741935,1.0258064516129,1.0258064516129,1.03225806451613,1.04516129032258,1.07096774193548,1.1258064516129,1.15483870967742,1.18387096774194,1.20967741935484,1.23870967741935,1.23870967741935,1.25161290322581,1.26129032258065,1.25161290322581,1.25806451612903,1.25806451612903,1.25161290322581,1.25806451612903,1.25806451612903,1.26129032258065,1.25161290322581,1.25161290322581,1.26774193548387,1.24838709677419,1.26451612903226,1.26129032258065,1.26451612903226,1.26774193548387,1.26451612903226,1.2741935483871,1.27741935483871,1.28709677419355,1.29677419354839,1.28709677419355,1.30645161290323,1.31290322580645,1.32903225806452,1.36129032258065,1.34516129032258,1.33225806451613,1.31935483870968,1.26129032258065,1.25806451612903,1.26451612903226,1.26451612903226,1.27096774193548,1.27741935483871,1.27741935483871,1.28387096774194,1.27741935483871,1.28064516129032,1.27741935483871,1.28064516129032,1.2741935483871,1.29354838709677,1.27741935483871,1.31935483870968,1.45483870967742,1.61612903225806,1.92258064516129,2.49677419354839,3.03870967741935,2.91935483870968,1.91290322580645,1.47741935483871,1.19032258064516,1.19354838709677,1.18064516129032,1.1741935483871,1.16774193548387,1.16451612903226,1.1741935483871,1.16451612903226,1.16451612903226,1.16774193548387,1.16129032258065,1.15806451612903,1.15161290322581,1.15161290322581,1.14838709677419,1.13870967741935,1.13225806451613,1.11612903225806,1.1,1.09032258064516,1.08709677419355,1.07096774193548,1.04838709677419,1.04193548387097,1.03548387096774,1.04838709677419,1.06129032258065,1.09032258064516,1.13225806451613,1.16129032258065,1.20322580645161,1.2258064516129,1.24193548387097,1.24838709677419,1.26129032258065,1.26129032258065,1.25483870967742,1.26774193548387,1.25483870967742,1.26129032258065,1.26774193548387,1.25483870967742,1.25806451612903,1.27096774193548,1.25806451612903,1.26774193548387,1.27096774193548,1.26774193548387,1.27741935483871,1.27741935483871,1.2741935483871,1.28064516129032,1.28387096774194,1.29032258064516,1.30967741935484,1.3,1.31612903225806,1.30967741935484,1.32903225806452,1.35806451612903,1.36774193548387,1.34193548387097,1.33225806451613,1.28709677419355,1.26129032258065,1.26129032258065,1.26774193548387,1.2741935483871,1.27741935483871,1.28064516129032,1.28064516129032,1.28064516129032,1.27741935483871,1.27741935483871,1.28387096774194,1.28064516129032,1.2741935483871,1.27741935483871,1.2741935483871,1.32258064516129,1.48709677419355,1.66451612903226,2.08387096774194,2.64516129032258,3.1258064516129,2.5741935483871,1.79354838709677,1.39032258064516,1.19032258064516,1.2,1.18387096774194,1.17741935483871,1.17096774193548,1.18064516129032,1.16774193548387,1.16451612903226,1.17096774193548,1.16451612903226,1.16129032258065,1.15806451612903,1.15161290322581,1.15483870967742,1.15161290322581,1.13870967741935,1.13548387096774,1.12258064516129,1.10967741935484,1.08709677419355,1.0741935483871,1.05161290322581,1.05161290322581,1.04193548387097,1.03548387096774,1.04838709677419,1.06451612903226,1.10322580645161,1.13548387096774,1.18387096774194,1.2,1.2258064516129,1.23548387096774,1.26129032258065,1.25161290322581,1.26129032258065,1.25483870967742,1.24838709677419,1.24838709677419,1.24838709677419,1.24193548387097,1.25806451612903,1.25483870967742,1.25161290322581,1.25806451612903,1.26774193548387,1.26774193548387,1.26129032258065,1.26451612903226,1.26129032258065,1.27096774193548,1.26774193548387,1.28709677419355,1.29032258064516,1.28709677419355,1.27741935483871,1.3,1.3258064516129,1.33225806451613,1.34838709677419,1.34838709677419,1.31935483870968,1.3,1.25806451612903,1.26129032258065,1.25806451612903,1.27096774193548,1.26129032258065,1.26129032258065,1.27096774193548,1.26774193548387,1.28387096774194,1.27741935483871,1.26774193548387,1.2741935483871,1.25806451612903,1.26451612903226,1.27096774193548,1.31290322580645,1.47741935483871,1.63225806451613,2.00322580645161,2.53548387096774,3.04516129032258,2.63548387096774,1.83548387096774,1.40322580645161,1.17741935483871,1.19354838709677,1.1741935483871,1.1741935483871,1.17741935483871,1.17096774193548,1.16451612903226,1.16129032258065,1.16129032258065,1.17096774193548,1.15806451612903,1.15806451612903,1.14838709677419,1.16451612903226,1.14516129032258,1.13870967741935,1.14516129032258,1.10967741935484,1.11290322580645,1.09354838709677,1.08387096774194,1.07741935483871,1.06774193548387,1.03548387096774,1.04838709677419,1.06451612903226,1.07096774193548,1.11612903225806,1.14838709677419,1.16451612903226,1.20645161290323,1.23548387096774,1.25806451612903,1.26451612903226,1.25483870967742,1.26774193548387,1.27741935483871,1.2741935483871,1.26774193548387,1.26774193548387,1.26774193548387,1.28064516129032,1.26451612903226,1.27096774193548,1.26774193548387,1.27741935483871,1.28064516129032,1.28709677419355,1.29032258064516,1.28709677419355,1.29354838709677,1.3,1.29032258064516,1.29032258064516,1.29677419354839,1.29677419354839,1.30967741935484,1.31612903225806,1.3258064516129,1.35806451612903,1.36451612903226,1.36129032258065,1.34838709677419,1.29677419354839,1.26451612903226,1.29032258064516,1.27096774193548,1.28709677419355,1.28387096774194,1.27741935483871,1.29354838709677,1.27741935483871,1.27741935483871,1.28064516129032,1.28709677419355,1.29032258064516,1.27096774193548,1.28709677419355,1.29032258064516,1.43548387096774,1.57741935483871,1.79677419354839,2.18064516129032,2.69032258064516,2.93548387096774,1.9,1.61290322580645,1.25806451612903,1.20645161290323,1.20322580645161,1.20322580645161,1.19032258064516,1.19354838709677,1.2,1.18387096774194,1.18064516129032,1.19032258064516,1.17741935483871,1.18064516129032,1.16451612903226,1.16451612903226,1.16129032258065,1.16129032258065,1.13225806451613,1.14516129032258,1.12258064516129,1.11935483870968,1.08709677419355,1.09354838709677,1.08064516129032,1.06129032258065,1.05806451612903,1.08064516129032,1.07741935483871,1.11612903225806,1.13870967741935,1.19354838709677,1.20645161290323,1.22903225806452,1.23548387096774,1.25806451612903,1.27096774193548,1.24838709677419,1.26451612903226,1.26451612903226,1.27741935483871,1.26129032258065,1.25806451612903,1.26774193548387,1.26129032258065,1.26774193548387,1.27096774193548,1.25806451612903,1.27096774193548,1.28387096774194,1.28387096774194,1.26774193548387,1.2741935483871,1.29032258064516,1.26774193548387,1.26451612903226,1.27741935483871,1.29677419354839,1.30322580645161,1.29354838709677,1.31290322580645,1.32903225806452,1.32903225806452,1.37096774193548,1.34193548387097,1.32258064516129,1.29032258064516,1.25161290322581,1.27096774193548,1.28064516129032,1.28064516129032,1.28709677419355,1.29354838709677,1.28387096774194,1.29354838709677,1.3,1.29032258064516,1.29032258064516,1.2741935483871,1.28387096774194,1.28387096774194,1.32258064516129,1.46129032258065,1.6258064516129,1.85161290322581,2.27096774193548,2.67096774193548,2.51290322580645,1.73870967741935,1.4741935483871,1.21612903225806,1.19677419354839,1.20967741935484,1.20967741935484,1.18387096774194,1.19354838709677,1.2,1.20645161290323,1.19032258064516,1.2,1.19354838709677,1.19354838709677,1.19677419354839,1.19677419354839,1.20322580645161,1.20322580645161,1.16451612903226,1.17096774193548,1.14838709677419,1.11935483870968,1.11935483870968,1.09354838709677,1.09677419354839,1.06129032258065,1.09032258064516,1.07741935483871,1.10645161290323,1.13548387096774,1.15483870967742,1.16451612903226,1.21612903225806,1.20322580645161,1.23548387096774,1.25806451612903,1.25161290322581,1.24516129032258,1.23870967741935,1.23548387096774,1.22903225806452,1.25161290322581,1.22258064516129,1.23225806451613,1.24838709677419,1.24838709677419,1.24193548387097,1.22903225806452,1.23548387096774,1.25161290322581,1.23548387096774,1.25483870967742,1.24516129032258,1.24838709677419,1.23225806451613,1.26129032258065,1.25806451612903,1.27096774193548,1.28064516129032,1.27741935483871,1.28064516129032,1.28387096774194,1.30967741935484,1.33870967741935,1.31935483870968,1.31935483870968,1.30967741935484,1.26774193548387,1.26451612903226,1.26774193548387,1.26451612903226,1.27741935483871,1.2741935483871,1.28387096774194,1.28709677419355,1.28064516129032,1.28387096774194,1.29354838709677,1.29032258064516,1.28709677419355,1.30645161290323,1.34838709677419,1.47741935483871,1.61612903225806,1.84193548387097,2.26774193548387,2.66774193548387,2.39354838709677,1.70322580645161,1.4258064516129,1.21935483870968,1.22258064516129,1.21935483870968,1.22258064516129,1.20967741935484,1.20645161290323,1.20645161290323,1.20645161290323,1.18387096774194,1.20322580645161,1.20322580645161,1.19032258064516,1.20645161290323,1.20322580645161,1.18709677419355,1.19677419354839,1.18709677419355,1.17741935483871,1.16774193548387,1.14516129032258,1.15161290322581,1.12903225806452,1.10967741935484,1.10645161290323,1.1,1.11612903225806,1.12903225806452,1.17096774193548,1.18387096774194,1.21935483870968,1.25806451612903,1.26774193548387,1.2741935483871,1.28064516129032,1.28709677419355,1.31290322580645,1.3,1.29354838709677,1.30967741935484,1.29354838709677,1.29677419354839,1.28387096774194,1.29677419354839,1.3,1.28064516129032,1.31612903225806,1.30967741935484,1.31290322580645,1.29354838709677,1.3,1.3,1.30967741935484,1.3,1.3,1.31612903225806,1.32258064516129,1.31290322580645,1.30645161290323,1.30967741935484,1.30645161290323,1.34193548387097,1.37741935483871,1.37096774193548,1.34193548387097,1.3258064516129,1.28064516129032,1.29032258064516,1.2741935483871,1.28064516129032,1.28709677419355,1.29032258064516,1.29354838709677,1.29354838709677,1.28387096774194,1.2741935483871,1.30645161290323,1.2741935483871,1.28709677419355,1.31290322580645,1.31290322580645,1.48064516129032,1.58387096774194,1.79677419354839,2.19354838709677,2.59677419354839,2.56451612903226,1.72903225806452,1.50322580645161,1.23548387096774,1.23548387096774,1.20967741935484,1.2,1.19354838709677,1.20322580645161,1.19032258064516,1.19677419354839,1.2,1.18387096774194,1.18387096774194,1.18709677419355,1.18387096774194,1.19354838709677,1.18064516129032,1.16774193548387,1.15161290322581,1.14516129032258,1.13225806451613,1.12258064516129,1.10645161290323,1.09677419354839,1.09032258064516,1.08064516129032,1.0741935483871,1.08387096774194,1.09032258064516,1.13870967741935,1.15483870967742,1.18064516129032,1.2,1.21612903225806,1.23548387096774,1.25161290322581,1.23225806451613,1.25483870967742,1.25483870967742,1.24838709677419,1.24193548387097,1.24838709677419,1.23225806451613,1.24193548387097,1.23225806451613,1.23225806451613,1.24516129032258,1.23870967741935,1.23870967741935,1.23870967741935,1.24193548387097,1.23548387096774,1.23870967741935,1.23870967741935,1.23548387096774,1.22258064516129,1.23548387096774,1.25161290322581,1.25483870967742,1.24516129032258,1.24838709677419,1.24838709677419,1.28064516129032,1.30645161290323,1.30645161290323,1.27741935483871,1.27741935483871,1.24193548387097,1.21935483870968,1.2258064516129,1.23548387096774,1.23870967741935,1.23870967741935,1.25161290322581,1.24516129032258,1.24193548387097,1.24516129032258,1.25806451612903,1.24516129032258,1.24516129032258,1.26129032258065,1.26129032258065,1.38709677419355,1.50967741935484,1.66774193548387,2.05161290322581,2.56451612903226,2.80967741935484,1.90645161290323,1.6,1.28387096774194,1.2,1.20645161290323,1.2,1.2,1.20322580645161,1.2,1.20322580645161,1.20967741935484,1.20322580645161,1.21935483870968,1.21290322580645,1.21612903225806,1.22903225806452,1.23225806451613,1.21935483870968,1.22903225806452,1.22903225806452,1.23548387096774,1.20967741935484,1.22258064516129,1.20322580645161,1.19677419354839,1.19354838709677,1.19354838709677,1.21935483870968,1.23870967741935,1.2741935483871,1.30967741935484
1.26451612903226,1.26129032258065,1.25161290322581,1.26774193548387,1.24838709677419,1.26774193548387,1.25806451612903,1.26774193548387,1.26129032258065,1.26129032258065,1.29677419354839,1.28709677419355,1.28064516129032,1.28064516129032,1.3,1.30322580645161,1.34516129032258,1.33870967741935,1.34193548387097,1.34193548387097,1.31612903225806,1.25806451612903,1.25806451612903,1.25483870967742,1.2741935483871,1.26451612903226,1.2741935483871,1.2741935483871,1.27096774193548,1.2741935483871,1.27741935483871,1.28064516129032,1.26129032258065,1.26129032258065,1.28064516129032,1.26451612903226,1.26451612903226,1.31290322580645,1.4741935483871,1.60322580645161,1.96451612903226,2.5258064516129,3.08064516129032,2.73225806451613,1.86129032258065,1.43548387096774,1.17741935483871,1.18064516129032,1.1741935483871,1.1741935483871,1.18387096774194,1.15806451612903,1.15161290322581,1.15483870967742,1.15161290322581,1.15161290322581,1.15483870967742,1.15483870967742,1.14838709677419,1.13870967741935,1.15161290322581,1.12258064516129,1.11935483870968,1.10645161290323,1.09677419354839,1.08387096774194,1.05483870967742,1.05161290322581,1.05161290322581,1.02258064516129,1.03548387096774,1.04193548387097,1.05806451612903,1.09354838709677,1.13548387096774,1.16129032258065,1.20322580645161,1.22258064516129,1.2258064516129,1.25161290322581,1.22903225806452,1.25483870967742,1.25161290322581,1.24516129032258,1.25161290322581,1.25161290322581,1.25161290322581,1.24838709677419,1.25806451612903,1.26129032258065,1.25161290322581,1.25806451612903,1.26451612903226,1.2741935483871,1.26129032258065,1.25161290322581,1.24516129032258,1.2741935483871,1.28709677419355,1.28709677419355,1.2741935483871,1.29677419354839,1.30322580645161,1.3258064516129,1.35483870967742,1.33870967741935,1.33548387096774,1.31935483870968,1.27096774193548,1.24193548387097,1.26451612903226,1.25806451612903,1.27096774193548,1.26774193548387,1.27096774193548,1.28064516129032,1.27096774193548,1.28064516129032,1.27741935483871,1.28387096774194,1.26129032258065,1.26129032258065,1.27096774193548,1.2741935483871,1.28709677419355,1.42903225806452,1.55806451612903,1.86129032258065,2.41290322580645,2.97096774193548,3.06774193548387,1.95161290322581,1.54838709677419,1.20322580645161,1.19677419354839,1.17741935483871,1.1741935483871,1.17741935483871,1.16774193548387,1.17096774193548,1.17096774193548,1.15806451612903,1.15806451612903,1.16451612903226,1.16774193548387,1.14838709677419,1.16774193548387,1.15161290322581,1.13870967741935,1.12903225806452,1.13548387096774,1.10645161290323,1.10322580645161,1.0741935483871,1.07096774193548,1.04193548387097,1.03548387096774,1.02258064516129,1.04193548387097,1.07096774193548,1.1,1.13548387096774,1.16774193548387,1.21612903225806,1.22258064516129,1.23225806451613,1.25483870967742,1.26129032258065,1.26774193548387,1.25483870967742,1.25161290322581,1.26774193548387,1.26129032258065,1.27096774193548,1.25161290322581,1.26774193548387,1.26774193548387,1.27096774193548,1.27741935483871,1.25806451612903,1.28387096774194,1.26774193548387,1.26774193548387,1.26129032258065,1.28064516129032,1.29677419354839,1.30322580645161,1.29677419354839,1.29677419354839,1.31290322580645,1.3258064516129,1.34838709677419,1.36129032258065,1.34838709677419,1.33548387096774,1.2741935483871,1.25483870967742,1.26774193548387,1.26129032258065,1.27741935483871,1.29032258064516,1.27741935483871,1.2741935483871,1.2741935483871,1.27741935483871,1.27096774193548,1.27741935483871,1.27741935483871,1.26129032258065,1.27741935483871,1.28064516129032,1.29354838709677,1.37741935483871,1.53548387096774,1.73225806451613,2.19354838709677,2.82258064516129,3.13225806451613,2.08709677419355,1.71935483870968,1.28387096774194,1.18709677419355,1.1741935483871,1.18064516129032,1.17096774193548,1.19354838709677,1.1741935483871,1.1741935483871,1.1741935483871,1.15806451612903,1.16774193548387,1.16774193548387,1.15483870967742,1.18064516129032,1.1741935483871,1.14193548387097,1.15483870967742,1.11935483870968,1.12258064516129,1.11612903225806,1.09354838709677,1.08064516129032,1.05806451612903,1.05161290322581,1.05161290322581,1.04516129032258,1.05806451612903,1.07741935483871,1.12258064516129,1.14516129032258,1.19032258064516,1.23548387096774,1.23548387096774,1.25806451612903,1.25161290322581,1.25806451612903,1.25483870967742,1.26451612903226,1.2741935483871,1.2741935483871,1.26129032258065,1.26774193548387,1.2741935483871,1.26451612903226,1.27741935483871,1.2741935483871,1.27741935483871,1.27741935483871,1.28064516129032,1.28064516129032,1.26129032258065,1.28064516129032,1.29677419354839,1.30645161290323,1.30645161290323,1.28709677419355,1.30322580645161,1.3258064516129,1.34193548387097,1.35806451612903,1.33225806451613,1.3258064516129,1.29677419354839,1.26129032258065,1.26129032258065,1.25483870967742,1.26451612903226,1.27741935483871,1.2741935483871,1.28387096774194,1.26774193548387,1.28064516129032,1.26774193548387,1.2741935483871,1.28064516129032,1.27096774193548,1.27096774193548,1.26774193548387,1.27741935483871,1.31935483870968,1.5,1.6741935483871,2.10645161290323,2.6741935483871,3.10645161290323,2.46129032258065,1.7741935483871,1.37741935483871,1.18064516129032,1.18387096774194,1.17741935483871,1.18387096774194,1.16774193548387,1.16774193548387,1.16451612903226,1.16774193548387,1.16451612903226,1.16451612903226,1.16774193548387,1.16774193548387,1.15806451612903,1.15483870967742,1.15161290322581,1.15161290322581,1.12258064516129,1.11935483870968,1.09677419354839,1.08387096774194,1.05161290322581,1.05806451612903,1.03870967741935,1.04516129032258,1.03225806451613,1.03870967741935,1.06774193548387,1.10967741935484,1.15161290322581,1.17741935483871,1.19032258064516,1.2258064516129,1.24193548387097,1.24516129032258,1.25483870967742,1.25806451612903,1.26451612903226,1.25806451612903,1.26129032258065,1.26451612903226,1.25806451612903,1.25806451612903,1.27096774193548,1.26129032258065,1.25483870967742,1.26774193548387,1.26129032258065,1.26774193548387,1.27096774193548,1.26129032258065,1.28709677419355,1.25483870967742,1.28387096774194,1.28709677419355,1.2741935483871,1.29032258064516,1.3,1.33225806451613,1.34193548387097,1.34838709677419,1.33870967741935,1.32258064516129,1.26774193548387,1.25161290322581,1.27096774193548,1.25806451612903,1.27096774193548,1.2741935483871,1.26451612903226,1.28064516129032,1.2741935483871,1.28064516129032,1.28387096774194,1.25806451612903,1.26774193548387,1.26774193548387,1.2741935483871,1.27096774193548,1.28387096774194,1.40322580645161,1.55483870967742,1.74193548387097,2.2,2.7741935483871,3.05806451612903,2.03870967741935,1.7,1.29677419354839,1.19354838709677,1.2258064516129,1.18064516129032,1.16451612903226,1.18709677419355,1.18064516129032,1.17096774193548,1.18709677419355,1.1741935483871,1.16774193548387,1.17741935483871,1.16774193548387,1.17096774193548,1.16129032258065,1.15806451612903,1.15161290322581,1.12903225806452,1.13870967741935,1.10322580645161,1.08709677419355,1.09354838709677,1.06451612903226,1.05483870967742,1.04516129032258,1.04193548387097,1.05806451612903,1.09677419354839,1.1258064516129,1.15806451612903,1.17741935483871,1.21935483870968,1.24193548387097,1.26129032258065,1.25161290322581,1.26129032258065,1.25806451612903,1.25483870967742,1.25806451612903,1.28064516129032,1.26774193548387,1.28064516129032,1.28709677419355,1.27096774193548,1.28709677419355,1.28387096774194,1.28064516129032,1.30645161290323,1.27741935483871,1.28709677419355,1.28064516129032,1.28709677419355,1.29677419354839,1.29677419354839,1.30322580645161,1.30967741935484,1.30967741935484,1.30322580645161,1.35161290322581,1.36451612903226,1.34838709677419,1.33548387096774,1.30967741935484,1.26774193548387,1.26451612903226,1.28064516129032,1.28387096774194,1.28387096774194,1.27096774193548,1.29677419354839,1.29677419354839,1.28064516129032,1.2741935483871,1.28387096774194,1.27741935483871,1.2741935483871,1.27741935483871,1.26774193548387,1.30967741935484,1.36774193548387,1.51935483870968,1.70322580645161,2.10645161290323,2.59677419354839,2.84516129032258,1.98387096774194,1.64838709677419,1.30322580645161,1.2,1.2258064516129,1.20967741935484,1.20967741935484,1.19677419354839,1.19032258064516,1.2,1.20967741935484,1.19677419354839,1.17741935483871,1.19354838709677,1.17741935483871,1.18387096774194,1.18064516129032,1.16774193548387,1.16129032258065,1.14838709677419,1.13548387096774,1.11290322580645,1.11935483870968,1.09032258064516,1.09032258064516,1.05161290322581,1.0741935483871,1.06129032258065,1.05806451612903,1.10967741935484,1.13548387096774,1.16774193548387,1.22258064516129,1.21935483870968,1.23225806451613,1.23870967741935,1.26451612903226,1.27096774193548,1.26774193548387,1.26129032258065,1.26451612903226,1.27741935483871,1.25806451612903,1.28387096774194,1.27741935483871,1.25483870967742,1.27096774193548,1.26129032258065,1.27096774193548,1.28064516129032,1.27096774193548,1.27741935483871,1.29032258064516,1.25483870967742,1.28387096774194,1.28709677419355,1.29354838709677,1.3,1.30645161290323,1.29032258064516,1.30645161290323,1.34838709677419,1.36129032258065,1.34838709677419,1.33548387096774,1.30645161290323,1.25483870967742,1.25483870967742,1.25806451612903,1.25806451612903,1.28709677419355,1.2741935483871,1.27741935483871,1.27741935483871,1.3,1.28064516129032,1.29354838709677,1.27096774193548,1.28064516129032,1.27096774193548,1.29677419354839,1.39677419354839,1.50322580645161,1.6741935483871,2.06451612903226,2.44838709677419,2.75806451612903,2.00645161290323,1.62903225806452,1.32258064516129,1.20967741935484,1.21290322580645,1.20645161290323,1.20967741935484,1.2,1.19677419354839,1.19677419354839,1.19032258064516,1.2,1.16129032258065,1.19354838709677,1.18064516129032,1.17741935483871,1.1741935483871,1.16451612903226,1.16129032258065,1.16451612903226,1.13225806451613,1.13548387096774,1.12258064516129,1.09677419354839,1.09354838709677,1.09354838709677,1.0741935483871,1.07741935483871,1.08064516129032,1.11290322580645,1.13870967741935,1.17741935483871,1.19354838709677,1.22903225806452,1.24516129032258,1.26129032258065,1.26129032258065,1.29032258064516,1.27096774193548,1.26774193548387,1.29032258064516,1.25806451612903,1.28387096774194,1.27096774193548,1.26774193548387,1.28064516129032,1.2741935483871,1.27741935483871,1.27741935483871,1.28064516129032,1.27741935483871,1.27096774193548,1.28387096774194,1.27096774193548,1.27741935483871,1.26451612903226,1.28709677419355,1.29354838709677,1.29354838709677,1.30322580645161,1.31612903225806,1.3258064516129,1.34516129032258,1.37096774193548,1.34193548387097,1.33548387096774,1.30322580645161,1.27741935483871,1.25483870967742,1.25806451612903,1.27741935483871,1.27741935483871,1.28387096774194,1.27741935483871,1.2741935483871,1.2741935483871,1.27096774193548,1.27741935483871,1.2741935483871,1.2741935483871,1.28387096774194,1.31612903225806,1.49677419354839,1.58709677419355,1.9258064516129,2.4258064516129,2.9258064516129,2.65161290322581,1.81290322580645,1.43870967741935,1.19354838709677,1.20322580645161,1.18387096774194,1.2,1.18387096774194,1.17741935483871,1.18387096774194,1.18387096774194,1.15161290322581,1.18064516129032,1.15806451612903,1.1741935483871,1.16451612903226,1.16451612903226,1.14838709677419,1.13870967741935,1.13870967741935,1.13225806451613,1.12903225806452,1.1,1.08709677419355,1.08064516129032,1.06451612903226,1.04516129032258,1.06129032258065,1.05483870967742,1.08709677419355,1.11612903225806,1.15161290322581,1.20322580645161,1.21612903225806,1.23870967741935,1.25161290322581,1.25806451612903,1.28064516129032,1.24838709677419,1.25161290322581,1.27741935483871,1.25483870967742,1.25806451612903,1.26451612903226,1.26129032258065,1.25161290322581,1.25806451612903,1.26451612903226,1.25806451612903,1.27096774193548,1.26451612903226,1.28064516129032,1.26774193548387,1.26129032258065,1.26451612903226,1.27096774193548,1.28387096774194,1.28064516129032,1.3,1.28064516129032,1.29354838709677,1.3,1.31935483870968,1.34193548387097,1.34516129032258,1.34193548387097,1.3258064516129,1.29032258064516,1.25161290322581,1.26129032258065,1.27096774193548,1.28387096774194,1.28387096774194,1.27096774193548,1.26774193548387,1.27741935483871,1.27096774193548,1.27096774193548,1.28064516129032,1.2741935483871,1.26451612903226,1.27741935483871,1.30967741935484,1.45806451612903,1.59677419354839,1.93870967741935,2.5,3.02903225806452,2.73548387096774,1.87096774193548,1.44516129032258,1.19032258064516,1.15806451612903,1.18064516129032,1.18064516129032,1.18709677419355,1.16129032258065,1.16129032258065,1.17741935483871,1.16451612903226,1.17096774193548,1.16129032258065,1.15806451612903,1.15161290322581,1.16451612903226,1.13870967741935,1.13225806451613,1.12258064516129,1.12903225806452,1.10322580645161,1.08709677419355,1.08064516129032,1.06451612903226,1.05161290322581,1.04516129032258,1.04838709677419,1.05483870967742,1.07741935483871,1.10967741935484,1.17096774193548,1.1741935483871,1.20322580645161,1.23225806451613,1.24516129032258,1.24516129032258,1.25161290322581,1.25806451612903,1.27096774193548,1.25161290322581,1.26451612903226,1.25161290322581,1.25806451612903,1.2741935483871,1.25161290322581,1.25483870967742,1.26451612903226,1.27096774193548,1.26774193548387,1.2741935483871,1.2741935483871,1.2741935483871,1.27741935483871,1.26774193548387,1.27096774193548,1.29032258064516,1.31290322580645,1.29032258064516,1.3,1.30645161290323,1.31935483870968,1.34193548387097,1.36774193548387,1.34516129032258,1.32258064516129,1.31935483870968,1.27096774193548,1.26451612903226,1.2741935483871,1.28064516129032,1.27741935483871,1.29032258064516,1.2741935483871,1.2741935483871,1.25806451612903,1.2741935483871,1.28387096774194,1.2741935483871,1.27741935483871,1.28064516129032,1.27741935483871,1.35161290322581,1.49677419354839,1.6741935483871,2.09354838709677,2.66129032258065,3.09354838709677,2.49354838709677,1.79032258064516,1.3741935483871,1.2,1.16451612903226,1.17741935483871,1.1741935483871,1.18064516129032,1.17741935483871,1.1741935483871,1.17096774193548,1.16129032258065,1.16451612903226,1.15161290322581,1.1741935483871,1.14516129032258,1.15806451612903,1.15483870967742,1.15483870967742,1.13225806451613,1.12258064516129,1.10967741935484,1.09677419354839,1.08064516129032,1.06129032258065,1.05483870967742,1.04838709677419,1.04193548387097,1.06451612903226,1.10967741935484,1.11290322580645,1.17096774193548,1.19354838709677,1.21612903225806,1.24193548387097,1.25483870967742,1.25483870967742,1.25161290322581,1.26451612903226,1.26451612903226,1.26129032258065,1.26451612903226,1.25483870967742,1.26451612903226,1.24193548387097,1.24838709677419,1.26129032258065,1.25806451612903,1.24838709677419,1.25806451612903,1.25161290322581,1.25806451612903,1.26774193548387,1.26774193548387,1.26129032258065,1.26774193548387,1.29677419354839,1.28064516129032,1.27096774193548,1.29032258064516,1.31290322580645,1.33548387096774,1.36774193548387,1.33548387096774,1.33225806451613,1.31612903225806,1.25483870967742,1.25483870967742,1.27096774193548,1.26451612903226,1.27096774193548,1.28387096774194,1.28709677419355,1.27096774193548,1.26129032258065,1.27741935483871,1.26451612903226,1.27741935483871,1.26451612903226,1.26774193548387,1.2741935483871,1.2741935483871,1.43870967741935,1.5741935483871,1.8741935483871,2.41935483870968,2.9741935483871,3.04193548387097,1.95483870967742,1.55806451612903,1.20322580645161,1.18064516129032,1.18064516129032,1.1741935483871,1.17741935483871,1.16451612903226,1.1741935483871,1.15483870967742,1.17096774193548,1.16129032258065,1.16774193548387,1.14838709677419,1.15806451612903,1.15483870967742,1.14838709677419,1.13870967741935,1.13870967741935,1.10967741935484,1.11935483870968,1.08387096774194,1.07741935483871,1.07096774193548,1.04193548387097,1.05161290322581,1.04193548387097,1.03225806451613,1.06129032258065,1.1,1.12258064516129,1.17096774193548,1.18709677419355,1.22258064516129,1.21935483870968,1.24193548387097,1.24193548387097,1.25806451612903,1.26129032258065,1.26129032258065,1.25806451612903,1.25483870967742,1.26129032258065,1.25483870967742,1.26774193548387,1.26774193548387,1.25161290322581,1.2741935483871,1.23870967741935,1.25483870967742,1.26451612903226,1.26451612903226,1.26451612903226,1.25806451612903,1.26451612903226,1.29677419354839,1.29032258064516,1.27741935483871,1.31290322580645,1.30645161290323,1.33225806451613,1.35161290322581,1.33548387096774,1.33225806451613,1.30967741935484,1.26129032258065,1.25483870967742,1.25161290322581,1.26451612903226,1.27096774193548,1.26774193548387,1.27096774193548,1.26129032258065,1.27741935483871,1.27741935483871,1.27096774193548,1.26451612903226,1.26774193548387,1.2741935483871,1.28387096774194,1.27741935483871,1.4,1.5258064516129,1.75483870967742,2.21935483870968,2.85161290322581,3.15161290322581,2.06129032258065,1.69677419354839,1.28387096774194,1.2,1.19354838709677,1.19354838709677,1.19354838709677,1.20322580645161,1.18064516129032,1.18709677419355,1.19032258064516,1.18387096774194,1.17096774193548,1.19354838709677,1.1741935483871,1.18064516129032,1.15806451612903,1.15806451612903,1.15483870967742,1.14838709677419,1.13225806451613,1.11612903225806,1.09677419354839,1.09032258064516,1.07096774193548,1.07741935483871,1.05483870967742,1.05483870967742,1.07741935483871,1.10322580645161,1.13870967741935,1.17096774193548,1.20645161290323,1.23225806451613,1.24516129032258,1.26451612903226,1.26774193548387,1.27741935483871,1.2741935483871,1.27741935483871,1.27096774193548,1.25483870967742,1.26774193548387,1.2741935483871,1.27096774193548,1.27741935483871,1.26774193548387,1.27096774193548,1.27096774193548,1.27096774193548,1.27741935483871,1.28064516129032,1.27741935483871,1.26774193548387,1.28387096774194,1.28709677419355,1.29677419354839,1.2741935483871,1.29677419354839,1.30645161290323,1.32258064516129,1.35483870967742,1.33870967741935,1.33225806451613,1.30645161290323,1.25483870967742,1.23870967741935,1.25806451612903,1.25483870967742,1.26774193548387,1.27096774193548,1.26774193548387,1.26451612903226,1.2741935483871,1.26451612903226,1.26774193548387,1.27741935483871,1.25161290322581,1.26129032258065,1.26129032258065,1.27096774193548,1.28387096774194,1.43870967741935,1.58064516129032,1.89032258064516,2.4258064516129,2.98709677419355,2.99032258064516,1.92258064516129,1.5258064516129,1.19032258064516,1.18064516129032,1.16774193548387,1.16774193548387,1.16129032258065,1.16451612903226,1.16129032258065,1.15161290322581,1.16129032258065,1.15161290322581,1.15806451612903,1.16774193548387,1.15483870967742,1.14193548387097,1.13548387096774,1.13548387096774,1.12258064516129,1.10967741935484,1.10322580645161,1.08064516129032,1.06774193548387,1.06451612903226,1.03870967741935,1.02903225806452,1.03225806451613,1.02903225806452,1.05483870967742,1.08387096774194,1.12258064516129,1.15483870967742,1.18387096774194,1.20967741935484,1.22903225806452,1.23548387096774,1.24193548387097,1.24838709677419,1.25161290322581,1.23548387096774,1.24516129032258,1.24838709677419,1.23870967741935,1.25161290322581,1.25161290322581,1.24193548387097,1.25483870967742,1.25483870967742,1.25806451612903,1.25806451612903,1.25483870967742,1.26129032258065,1.26451612903226,1.27741935483871,1.28387096774194,1.29032258064516,1.29354838709677,1.27096774193548,1.30322580645161,1.31935483870968,1.34838709677419,1.36129032258065,1.33548387096774,1.32258064516129,1.29032258064516,1.25483870967742,1.25161290322581,1.25161290322581,1.26451612903226,1.27741935483871,1.28064516129032,1.28064516129032,1.28387096774194,1.2741935483871,1.27096774193548,1.27096774193548,1.27096774193548,1.28064516129032,1.26774193548387,1.26129032258065,1.29032258064516,1.40645161290323,1.55483870967742,1.77741935483871,2.26129032258065,2.89677419354839,3.15806451612903,2.02258064516129,1.68064516129032,1.25806451612903,1.19677419354839,1.20967741935484,1.18709677419355,1.17096774193548,1.17741935483871,1.18064516129032,1.17096774193548,1.18387096774194,1.17096774193548,1.18064516129032,1.18064516129032,1.17741935483871,1.18064516129032,1.16451612903226,1.16129032258065,1.15483870967742,1.14516129032258,1.14193548387097,1.11935483870968,1.11290322580645,1.10645161290323,1.08709677419355,1.08387096774194,1.08064516129032,1.06774193548387,1.09677419354839,1.12258064516129,1.15806451612903,1.19677419354839,1.22903225806452,1.24516129032258,1.27096774193548,1.28387096774194,1.29354838709677,1.3,1.29677419354839,1.30322580645161,1.30322580645161,1.30645161290323,1.30967741935484,1.29032258064516,1.30322580645161,1.31290322580645,1.30322580645161,1.31612903225806,1.29677419354839,1.30967741935484,1.30967741935484,1.31612903225806,1.28709677419355,1.31935483870968,1.31612903225806,1.33548387096774,1.3258064516129,1.32258064516129,1.33225806451613,1.35483870967742,1.38709677419355,1.40967741935484,1.3741935483871,1.36451612903226,1.33870967741935,1.29032258064516,1.3,1.29677419354839,1.30967741935484,1.30322580645161
2.82903225806452,3.16129032258065,2.12903225806452,1.73870967741935,1.3,1.19677419354839,1.19354838709677,1.19354838709677,1.19032258064516,1.19032258064516,1.19677419354839,1.1741935483871,1.18064516129032,1.18064516129032,1.16451612903226,1.18064516129032,1.18064516129032,1.16129032258065,1.17096774193548,1.15483870967742,1.14516129032258,1.13548387096774,1.12258064516129,1.10967741935484,1.06774193548387,1.07096774193548,1.06774193548387,1.04838709677419,1.03548387096774,1.03870967741935,1.05483870967742,1.08387096774194,1.12903225806452,1.16451612903226,1.20645161290323,1.21935483870968,1.23225806451613,1.25161290322581,1.25483870967742,1.26129032258065,1.26129032258065,1.26451612903226,1.25806451612903,1.25806451612903,1.26774193548387,1.27096774193548,1.25806451612903,1.26774193548387,1.26129032258065,1.25806451612903,1.26774193548387,1.27096774193548,1.2741935483871,1.26451612903226,1.27096774193548,1.26451612903226,1.27741935483871,1.29354838709677,1.29354838709677,1.28064516129032,1.30322580645161,1.31935483870968,1.34516129032258,1.35161290322581,1.34516129032258,1.3258064516129,1.30645161290323,1.26129032258065,1.26451612903226,1.25806451612903,1.27096774193548,1.27096774193548,1.28064516129032,1.26451612903226,1.27096774193548,1.26774193548387,1.27096774193548,1.26774193548387,1.26129032258065,1.26451612903226,1.27096774193548,1.26129032258065,1.26774193548387,1.28709677419355,1.41290322580645,1.58064516129032,1.84838709677419,2.35806451612903,2.94516129032258,3.14838709677419,1.95806451612903,1.59677419354839,1.21290322580645,1.17741935483871,1.17096774193548,1.17096774193548,1.16451612903226,1.16774193548387,1.16129032258065,1.16774193548387,1.13870967741935,1.15483870967742,1.15483870967742,1.15806451612903,1.16451612903226,1.15161290322581,1.15161290322581,1.15161290322581,1.13225806451613,1.12258064516129,1.11935483870968,1.1,1.08709677419355,1.08387096774194,1.04193548387097,1.04838709677419,1.04516129032258,1.05161290322581,1.06129032258065,1.10322580645161,1.13225806451613,1.1741935483871,1.20967741935484,1.23548387096774,1.25161290322581,1.26774193548387,1.28387096774194,1.2741935483871,1.26774193548387,1.27741935483871,1.28709677419355,1.2741935483871,1.27096774193548,1.28387096774194,1.27096774193548,1.28387096774194,1.28064516129032,1.27096774193548,1.28709677419355,1.28064516129032,1.28064516129032,1.28387096774194,1.28709677419355,1.28709677419355,1.29354838709677,1.31612903225806,1.30322580645161,1.3,1.32258064516129,1.33548387096774,1.36129032258065,1.37096774193548,1.34193548387097,1.34516129032258,1.26774193548387,1.25806451612903,1.26451612903226,1.27096774193548,1.26774193548387,1.27741935483871,1.28064516129032,1.27741935483871,1.2741935483871,1.27096774193548,1.27096774193548,1.28064516129032,1.25483870967742,1.27096774193548,1.26774193548387,1.26774193548387,1.28387096774194,1.39677419354839,1.52903225806452,1.75161290322581,2.22258064516129,2.85483870967742,3.16451612903226,2.06451612903226,1.69354838709677,1.2741935483871,1.18387096774194,1.18387096774194,1.17096774193548,1.17741935483871,1.16129032258065,1.16451612903226,1.17741935483871,1.17096774193548,1.18064516129032,1.1741935483871,1.17096774193548,1.15806451612903,1.15806451612903,1.15161290322581,1.14838709677419,1.14193548387097,1.11935483870968,1.13225806451613,1.10322580645161,1.06774193548387,1.06451612903226,1.05161290322581,1.03548387096774,1.03225806451613,1.0258064516129,1.04838709677419,1.06451612903226,1.09354838709677,1.13548387096774,1.1741935483871,1.19032258064516,1.21290322580645,1.23225806451613,1.24516129032258,1.24193548387097,1.24516129032258,1.24516129032258,1.24193548387097,1.25161290322581,1.25806451612903,1.24838709677419,1.24838709677419,1.24516129032258,1.26129032258065,1.26129032258065,1.26129032258065,1.26451612903226,1.25806451612903,1.25806451612903,1.26129032258065,1.27741935483871,1.29677419354839,1.28387096774194,1.28709677419355,1.29032258064516,1.29032258064516,1.30967741935484,1.34193548387097,1.36129032258065,1.34193548387097,1.31935483870968,1.3,1.25161290322581,1.25483870967742,1.27096774193548,1.25806451612903,1.2741935483871,1.2741935483871,1.2741935483871,1.27096774193548,1.27096774193548,1.2741935483871,1.26774193548387,1.26451612903226,1.27096774193548,1.27741935483871,1.28064516129032,1.28709677419355,1.30322580645161,1.44516129032258,1.59354838709677,1.89354838709677,2.45806451612903,3.00322580645161,3.06774193548387,1.94516129032258,1.53870967741935,1.20645161290323,1.19354838709677,1.19354838709677,1.17741935483871,1.17096774193548,1.1741935483871,1.18064516129032,1.1741935483871,1.1741935483871,1.16451612903226,1.16129032258065,1.15806451612903,1.17096774193548,1.16451612903226,1.15483870967742,1.14193548387097,1.1258064516129,1.13548387096774,1.10967741935484,1.1,1.07741935483871,1.06129032258065,1.05483870967742,1.02903225806452,1.03870967741935,1.03870967741935,1.04838709677419,1.08064516129032,1.1258064516129,1.16129032258065,1.19354838709677,1.22903225806452,1.23225806451613,1.25483870967742,1.26129032258065,1.2741935483871,1.26451612903226,1.26774193548387,1.26129032258065,1.26451612903226,1.27096774193548,1.26451612903226,1.27096774193548,1.25161290322581,1.27741935483871,1.25806451612903,1.2741935483871,1.27096774193548,1.26451612903226,1.2741935483871,1.26774193548387,1.28064516129032,1.3,1.30322580645161,1.29032258064516,1.31290322580645,1.30645161290323,1.33548387096774,1.35806451612903,1.35161290322581,1.33870967741935,1.33225806451613,1.2741935483871,1.26451612903226,1.2741935483871,1.2741935483871,1.2741935483871,1.28387096774194,1.28709677419355,1.28064516129032,1.27741935483871,1.28387096774194,1.27741935483871,1.27741935483871,1.27096774193548,1.26774193548387,1.26129032258065,1.26774193548387,1.29354838709677,1.45483870967742,1.61612903225806,1.92258064516129,2.5,3.04193548387097,2.90967741935484,1.89032258064516,1.46774193548387,1.1741935483871,1.18387096774194,1.18387096774194,1.17096774193548,1.16451612903226,1.16451612903226,1.15806451612903,1.15806451612903,1.16451612903226,1.13870967741935,1.14516129032258,1.15161290322581,1.14838709677419,1.14838709677419,1.14838709677419,1.13225806451613,1.11935483870968,1.12903225806452,1.1,1.08709677419355,1.06774193548387,1.05483870967742,1.04838709677419,1.0258064516129,1.01935483870968,1.02903225806452,1.05161290322581,1.09032258064516,1.1258064516129,1.16451612903226,1.19032258064516,1.23225806451613,1.23548387096774,1.24838709677419,1.24838709677419,1.25806451612903,1.26129032258065,1.26774193548387,1.24838709677419,1.26129032258065,1.26451612903226,1.26129032258065,1.26129032258065,1.26451612903226,1.26774193548387,1.26774193548387,1.26451612903226,1.27741935483871,1.2741935483871,1.24838709677419,1.26774193548387,1.27096774193548,1.29032258064516,1.30322580645161,1.28387096774194,1.29354838709677,1.30645161290323,1.32903225806452,1.34516129032258,1.36129032258065,1.35161290322581,1.33225806451613,1.29354838709677,1.26451612903226,1.25483870967742,1.26129032258065,1.2741935483871,1.27741935483871,1.27741935483871,1.27741935483871,1.27096774193548,1.27741935483871,1.28064516129032,1.28064516129032,1.28064516129032,1.27096774193548,1.27741935483871,1.27741935483871,1.29354838709677,1.43225806451613,1.57096774193548,1.86129032258065,2.38064516129032,2.95806451612903,3.15161290322581,1.96129032258065,1.60322580645161,1.22903225806452,1.18709677419355,1.19677419354839,1.16774193548387,1.1741935483871,1.17741935483871,1.17096774193548,1.17741935483871,1.1741935483871,1.17096774193548,1.17741935483871,1.15483870967742,1.16774193548387,1.15483870967742,1.15806451612903,1.14838709677419,1.14838709677419,1.1258064516129,1.11935483870968,1.10645161290323,1.08709677419355,1.06129032258065,1.05483870967742,1.04516129032258,1.04838709677419,1.03870967741935,1.05483870967742,1.08709677419355,1.1258064516129,1.15806451612903,1.19032258064516,1.21612903225806,1.23548387096774,1.24516129032258,1.24838709677419,1.25161290322581,1.24838709677419,1.25161290322581,1.24838709677419,1.25161290322581,1.24838709677419,1.23870967741935,1.25806451612903,1.24838709677419,1.25161290322581,1.26129032258065,1.25806451612903,1.25161290322581,1.25806451612903,1.26129032258065,1.25806451612903,1.26774193548387,1.26774193548387,1.28709677419355,1.28064516129032,1.27741935483871,1.29677419354839,1.30967741935484,1.33870967741935,1.35483870967742,1.35483870967742,1.33548387096774,1.32258064516129,1.26451612903226,1.25806451612903,1.26774193548387,1.27741935483871,1.27741935483871,1.29032258064516,1.28064516129032,1.28387096774194,1.28387096774194,1.29032258064516,1.28709677419355,1.28709677419355,1.28064516129032,1.28064516129032,1.28387096774194,1.29354838709677,1.38387096774194,1.52903225806452,1.73225806451613,2.20645161290323,2.81612903225806,3.14516129032258,2.12258064516129,1.71612903225806,1.29677419354839,1.19354838709677,1.20322580645161,1.19032258064516,1.18709677419355,1.18064516129032,1.17741935483871,1.16129032258065,1.17741935483871,1.16774193548387,1.18387096774194,1.16129032258065,1.16129032258065,1.15806451612903,1.15161290322581,1.16451612903226,1.13870967741935,1.13225806451613,1.11612903225806,1.09354838709677,1.08709677419355,1.07741935483871,1.05806451612903,1.04516129032258,1.03870967741935,1.03548387096774,1.05161290322581,1.0741935483871,1.11612903225806,1.15483870967742,1.18387096774194,1.20645161290323,1.23870967741935,1.25806451612903,1.26451612903226,1.26451612903226,1.26774193548387,1.24838709677419,1.25806451612903,1.27096774193548,1.25483870967742,1.26129032258065,1.26774193548387,1.26451612903226,1.2741935483871,1.26774193548387,1.26774193548387,1.26451612903226,1.27741935483871,1.2741935483871,1.26451612903226,1.26774193548387,1.2741935483871,1.28709677419355,1.27741935483871,1.27741935483871,1.29677419354839,1.30645161290323,1.32258064516129,1.33870967741935,1.33225806451613,1.34516129032258,1.32903225806452,1.28387096774194,1.23548387096774,1.26451612903226,1.26451612903226,1.26129032258065,1.27096774193548,1.2741935483871,1.28064516129032,1.26129032258065,1.26774193548387,1.27096774193548,1.26774193548387,1.26451612903226,1.26451612903226,1.26451612903226,1.25806451612903,1.27096774193548,1.34516129032258,1.48387096774194,1.69677419354839,2.15806451612903,2.76129032258065,3.13870967741935,2.29032258064516,1.73870967741935,1.31612903225806,1.16774193548387,1.1741935483871,1.16774193548387,1.17096774193548,1.16129032258065,1.15483870967742,1.15161290322581,1.15483870967742,1.14193548387097,1.14838709677419,1.15161290322581,1.13548387096774,1.14516129032258,1.13870967741935,1.1258064516129,1.13225806451613,1.10645161290323,1.1,1.08709677419355,1.07096774193548,1.05483870967742,1.05806451612903,1.04516129032258,1.02903225806452,1.03225806451613,1.05161290322581,1.08709677419355,1.12258064516129,1.16774193548387,1.20645161290323,1.22903225806452,1.26129032258065,1.27741935483871,1.29354838709677,1.3,1.31290322580645,1.28387096774194,1.28709677419355,1.29354838709677,1.30645161290323,1.29032258064516,1.29354838709677,1.29677419354839,1.3,1.3,1.30322580645161,1.30645161290323,1.3,1.29032258064516,1.29354838709677,1.29677419354839,1.31612903225806,1.34193548387097,1.32258064516129,1.31612903225806,1.33225806451613,1.34516129032258,1.36451612903226,1.39354838709677,1.35806451612903,1.34838709677419,1.31935483870968,1.27096774193548,1.2741935483871,1.26451612903226,1.27741935483871,1.28387096774194,1.2741935483871,1.27096774193548,1.2741935483871,1.26774193548387,1.26451612903226,1.27741935483871,1.26129032258065,1.26451612903226,1.28387096774194,1.27096774193548,1.27096774193548,1.30322580645161,1.46129032258065,1.62258064516129,1.96774193548387,2.51612903225806,3.05483870967742,2.78387096774194,1.84838709677419,1.4258064516129,1.16774193548387,1.16774193548387,1.1741935483871,1.1741935483871,1.15806451612903,1.14838709677419,1.15806451612903,1.15483870967742,1.14516129032258,1.14193548387097,1.14516129032258,1.14838709677419,1.13548387096774,1.12903225806452,1.12903225806452,1.11935483870968,1.11935483870968,1.10967741935484,1.08709677419355,1.07096774193548,1.07096774193548,1.03870967741935,1.03225806451613,1.03225806451613,1.01612903225806,1.03548387096774,1.03548387096774,1.09677419354839,1.11612903225806,1.15806451612903,1.2,1.20645161290323,1.22903225806452,1.23548387096774,1.25806451612903,1.26451612903226,1.25806451612903,1.25161290322581,1.24516129032258,1.26129032258065,1.25483870967742,1.25161290322581,1.25483870967742,1.26774193548387,1.28064516129032,1.27096774193548,1.26451612903226,1.2741935483871,1.25806451612903,1.27096774193548,1.27096774193548,1.27741935483871,1.3,1.3,1.28709677419355,1.29354838709677,1.29354838709677,1.31935483870968,1.34838709677419,1.34838709677419,1.33225806451613,1.32903225806452,1.27741935483871,1.26451612903226,1.27741935483871,1.26129032258065,1.26451612903226,1.28387096774194,1.27741935483871,1.28064516129032,1.2741935483871,1.27741935483871,1.27741935483871,1.27741935483871,1.27096774193548,1.28064516129032,1.28387096774194,1.29677419354839,1.34838709677419,1.50322580645161,1.70967741935484,2.10645161290323,2.61612903225806,2.97741935483871,2.25483870967742,1.71612903225806,1.32258064516129,1.18709677419355,1.18709677419355,1.19677419354839,1.19354838709677,1.16774193548387,1.17096774193548,1.18709677419355,1.17096774193548,1.17741935483871,1.18387096774194,1.16774193548387,1.18064516129032,1.16774193548387,1.15806451612903,1.15161290322581,1.15161290322581,1.14193548387097,1.1258064516129,1.10645161290323,1.10322580645161,1.08387096774194,1.0741935483871,1.04193548387097,1.02258064516129,1.05161290322581,1.08387096774194,1.07741935483871,1.10645161290323,1.16129032258065,1.19032258064516,1.2258064516129,1.25806451612903,1.27096774193548,1.26451612903226,1.27096774193548,1.25806451612903,1.30967741935484,1.26774193548387,1.26129032258065,1.2741935483871,1.28064516129032,1.27741935483871,1.29354838709677,1.28064516129032,1.28709677419355,1.3,1.2741935483871,1.27741935483871,1.30967741935484,1.29032258064516,1.29032258064516,1.29677419354839,1.30645161290323,1.30645161290323,1.31290322580645,1.29354838709677,1.32903225806452,1.33225806451613,1.35483870967742,1.3741935483871,1.3741935483871,1.35806451612903,1.33870967741935,1.26451612903226,1.26774193548387,1.29032258064516,1.28064516129032,1.29032258064516,1.3,1.29354838709677,1.28387096774194,1.28709677419355,1.29354838709677,1.25806451612903,1.28709677419355,1.28387096774194,1.29032258064516,1.28387096774194,1.31290322580645,1.42258064516129,1.57741935483871,1.76774193548387,2.16451612903226,2.66774193548387,2.87741935483871,1.89354838709677,1.6258064516129,1.26774193548387,1.20967741935484,1.20967741935484,1.20645161290323,1.21290322580645,1.20322580645161,1.18709677419355,1.1741935483871,1.19354838709677,1.17741935483871,1.18064516129032,1.17096774193548,1.18064516129032,1.18709677419355,1.17741935483871,1.15806451612903,1.12903225806452,1.13225806451613,1.14838709677419,1.11612903225806,1.09354838709677,1.08387096774194,1.07741935483871,1.08064516129032,1.07741935483871,1.06129032258065,1.09032258064516,1.10322580645161,1.12903225806452,1.18387096774194,1.2,1.23225806451613,1.23548387096774,1.25806451612903,1.25483870967742,1.26451612903226,1.28064516129032,1.26774193548387,1.25161290322581,1.26451612903226,1.28064516129032,1.27096774193548,1.27741935483871,1.26774193548387,1.26451612903226,1.26129032258065,1.28387096774194,1.27741935483871,1.26129032258065,1.27741935483871,1.28064516129032,1.29032258064516,1.27741935483871,1.29032258064516,1.30645161290323,1.28064516129032,1.28709677419355,1.31612903225806,1.3258064516129,1.31935483870968,1.34193548387097,1.33870967741935,1.32258064516129,1.32258064516129,1.25483870967742,1.25483870967742,1.25806451612903,1.25161290322581,1.27096774193548,1.28709677419355,1.2741935483871,1.26451612903226,1.27741935483871,1.28387096774194,1.2741935483871,1.27096774193548,1.26774193548387,1.26129032258065,1.28709677419355,1.33548387096774,1.49354838709677,1.64516129032258,1.95161290322581,2.35483870967742,2.72903225806452,2.31290322580645,1.71290322580645,1.36774193548387,1.18387096774194,1.19032258064516,1.20322580645161,1.20322580645161,1.18064516129032,1.18387096774194,1.18064516129032,1.1741935483871,1.19354838709677,1.15161290322581,1.16129032258065,1.17741935483871,1.15806451612903,1.15806451612903,1.17096774193548,1.15483870967742,1.14838709677419,1.11612903225806,1.11612903225806,1.09354838709677,1.08387096774194,1.08387096774194,1.07096774193548,1.05483870967742,1.06451612903226,1.07096774193548,1.09677419354839,1.1,1.16451612903226,1.19032258064516,1.20322580645161,1.23548387096774,1.24838709677419,1.25161290322581,1.24838709677419,1.25806451612903,1.27096774193548,1.24516129032258,1.25161290322581,1.27741935483871,1.26129032258065,1.26774193548387,1.26774193548387,1.25161290322581,1.26129032258065,1.2741935483871,1.28064516129032,1.26774193548387,1.2741935483871,1.26774193548387,1.26774193548387,1.26774193548387,1.27741935483871,1.29032258064516,1.30967741935484,1.29032258064516,1.27741935483871,1.29032258064516,1.30322580645161,1.31612903225806,1.34193548387097,1.35483870967742,1.33548387096774,1.31935483870968,1.29032258064516,1.26129032258065,1.28064516129032,1.26451612903226,1.28387096774194,1.28387096774194,1.29032258064516,1.29354838709677,1.29032258064516,1.29677419354839,1.28064516129032,1.27741935483871,1.31290322580645,1.28387096774194,1.30645161290323,1.36451612903226,1.53548387096774,1.66129032258065,2.00645161290323,2.4258064516129,2.81290322580645,2.22258064516129,1.70322580645161,1.39354838709677,1.21612903225806,1.2258064516129,1.22258064516129,1.22258064516129,1.22903225806452,1.22258064516129,1.20967741935484,1.20645161290323,1.20645161290323,1.21612903225806,1.20645161290323,1.2,1.20645161290323,1.19032258064516,1.18387096774194,1.18709677419355,1.17096774193548,1.15483870967742,1.16774193548387,1.12903225806452,1.11935483870968,1.1,1.09032258064516,1.06774193548387,1.0741935483871,1.08709677419355,1.11612903225806,1.13870967741935,1.17096774193548,1.21935483870968,1.23548387096774,1.25161290322581,1.26451612903226,1.28387096774194,1.2741935483871,1.27741935483871,1.2741935483871,1.28387096774194,1.28064516129032,1.27741935483871,1.27741935483871,1.29354838709677,1.28387096774194,1.28064516129032,1.29354838709677,1.29354838709677,1.29677419354839,1.27741935483871,1.28387096774194,1.28064516129032,1.28709677419355,1.28387096774194,1.28709677419355,1.27741935483871,1.30322580645161,1.30322580645161,1.30645161290323,1.3,1.30645161290323,1.32903225806452,1.36451612903226,1.35161290322581,1.33225806451613,1.32258064516129,1.27096774193548,1.25806451612903,1.26129032258065,1.26774193548387,1.28064516129032,1.26129032258065,1.27096774193548,1.2741935483871,1.26451612903226,1.2741935483871,1.27096774193548,1.26774193548387,1.26774193548387,1.26129032258065,1.27741935483871,1.30645161290323,1.43870967741935,1.59032258064516,1.88064516129032,2.4,2.91612903225806,2.87096774193548,1.87741935483871,1.51612903225806,1.19354838709677,1.19354838709677,1.18709677419355,1.18387096774194,1.1741935483871,1.15806451612903,1.16451612903226,1.16451612903226,1.16451612903226,1.15483870967742,1.15806451612903,1.16774193548387,1.16129032258065,1.15483870967742,1.14838709677419,1.13870967741935,1.12903225806452,1.11935483870968,1.11290322580645,1.1,1.08064516129032,1.07096774193548,1.05161290322581,1.04193548387097,1.05161290322581,1.05806451612903,1.07741935483871,1.11612903225806,1.1258064516129,1.1741935483871,1.20967741935484,1.23225806451613,1.24193548387097,1.24838709677419,1.24838709677419,1.24516129032258,1.25483870967742,1.25161290322581,1.24193548387097,1.25483870967742,1.25161290322581,1.22903225806452,1.23870967741935,1.24838709677419,1.25161290322581,1.25161290322581,1.25483870967742,1.25483870967742,1.25161290322581,1.24516129032258,1.24516129032258,1.26774193548387,1.24193548387097,1.26129032258065,1.25483870967742,1.2741935483871,1.25806451612903,1.26451612903226,1.28387096774194,1.3,1.32903225806452,1.29677419354839,1.29354838709677,1.2741935483871,1.23225806451613,1.22258064516129,1.22258064516129,1.24516129032258,1.22903225806452,1.23225806451613,1.24193548387097,1.23548387096774,1.22903225806452,1.23548387096774,1.22903225806452,1.23870967741935,1.2258064516129,1.22903225806452,1.2258064516129,1.24516129032258,1.37096774193548,1.51290322580645,1.77096774193548,2.25483870967742,2.84838709677419,3.09354838709677,1.96774193548387,1.61290322580645,1.20645161290323,1.15483870967742,1.14838709677419,1.14516129032258,1.14838709677419,1.14838709677419,1.13870967741935,1.14838709677419,1.14516129032258,1.16129032258065,1.13548387096774,1.13870967741935,1.14516129032258,1.14516129032258,1.14193548387097,1.13225806451613,1.12903225806452,1.12903225806452,1.11290322580645,1.10967741935484
