1.35806451612903,1.36129032258065,1.34838709677419,1.35483870967742,1.34516129032258,1.3741935483871,1.35806451612903,1.35161290322581,1.35806451612903,1.34838709677419,1.36129032258065,1.35806451612903,1.36129032258065,1.34838709677419,1.37096774193548,1.36451612903226,1.36451612903226,1.35806451612903,1.35806451612903,1.36129032258065,1.40322580645161,1.37096774193548,1.39354838709677,1.38387096774194,1.40322580645161,1.39354838709677,1.43225806451613,1.42258064516129,1.45483870967742,1.45161290322581,1.41935483870968,1.41290322580645,1.37096774193548,1.36129032258065,1.37096774193548,1.37096774193548,1.38064516129032,1.3741935483871,1.37741935483871,1.61290322580645,2.11612903225806,2.64838709677419,2.64516129032258,1.49354838709677,0.996774193548387,1.16129032258065,1.26129032258065,1.34193548387097,1.28387096774194,1.35161290322581,1.30967741935484,1.32903225806452,1.30967741935484,1.34516129032258,1.31612903225806,1.35161290322581,1.33225806451613,1.35161290322581,1.30645161290323,1.32258064516129,1.31612903225806,1.32903225806452,1.33548387096774,1.33548387096774,1.34516129032258,1.34193548387097,1.35161290322581,1.33225806451613,1.35483870967742,1.36129032258065,1.39354838709677,1.37741935483871,1.40967741935484,1.39032258064516,1.4258064516129,1.41612903225806,1.44516129032258,1.41935483870968,1.42903225806452,1.41290322580645,1.4,1.40645161290323,1.40967741935484,1.4,1.4,1.40645161290323,1.39677419354839,1.39354838709677,1.39032258064516,1.39354838709677,1.39354838709677,1.40322580645161,1.3741935483871,1.37741935483871,1.3741935483871,1.38064516129032,1.36451612903226,1.39677419354839,1.37741935483871,1.40322580645161,1.38387096774194,1.4,1.38709677419355,1.40967741935484,1.39354838709677,1.39677419354839,1.40645161290323,1.39354838709677,1.37741935483871,1.38709677419355,1.40322580645161,1.38709677419355,1.39032258064516,1.38387096774194,1.40322580645161,1.3741935483871,1.38064516129032,1.3741935483871,1.38387096774194,1.35483870967742,1.38064516129032,1.36129032258065,1.39032258064516,1.34516129032258,1.37096774193548,1.35483870967742,1.37096774193548,1.35806451612903,1.36129032258065,1.36774193548387,1.38064516129032,1.37741935483871,1.36774193548387,1.37741935483871,1.36774193548387,1.36451612903226,1.3741935483871,1.38709677419355,1.39354838709677,1.42903225806452,1.39677419354839,1.4258064516129,1.42258064516129,1.46129032258065,1.43225806451613,1.44193548387097,1.40967741935484,1.41290322580645,1.37741935483871,1.36129032258065,1.35806451612903,1.38387096774194,1.36129032258065,1.35806451612903,1.4258064516129,1.73548387096774,2.34838709677419,2.81935483870968,2.44838709677419,1.28387096774194,1.08064516129032,1.19677419354839,1.3,1.30967741935484,1.3258064516129,1.30645161290323,1.33225806451613,1.3,1.33870967741935,1.30322580645161,1.33225806451613,1.30322580645161,1.32903225806452,1.3258064516129,1.3258064516129,1.30967741935484,1.33870967741935,1.31612903225806,1.31935483870968,1.32903225806452,1.33225806451613,1.32258064516129,1.34193548387097,1.34838709677419,1.34516129032258,1.35161290322581,1.35161290322581,1.38709677419355,1.36774193548387,1.39032258064516,1.38387096774194,1.42258064516129,1.41935483870968,1.42903225806452,1.40645161290323,1.43225806451613,1.38709677419355,1.40322580645161,1.39354838709677,1.40322580645161,1.38709677419355,1.4,1.37741935483871,1.3741935483871,1.39677419354839,1.37741935483871,1.36451612903226,1.37741935483871,1.38387096774194,1.36774193548387,1.38387096774194,1.37741935483871,1.37741935483871,1.36451612903226,1.37096774193548,1.35161290322581,1.37741935483871,1.34516129032258,1.37741935483871,1.35483870967742,1.37096774193548,1.36451612903226,1.38387096774194,1.36129032258065,1.38064516129032,1.36129032258065,1.38064516129032,1.34838709677419,1.36774193548387,1.36451612903226,1.35483870967742,1.36129032258065,1.35806451612903,1.36129032258065,1.35806451612903,1.35806451612903,1.34516129032258,1.35161290322581,1.35483870967742,1.35806451612903,1.33225806451613,1.35483870967742,1.32903225806452,1.35806451612903,1.32258064516129,1.34838709677419,1.34838709677419,1.36774193548387,1.35806451612903,1.35483870967742,1.3258064516129,1.33225806451613,1.36129032258065,1.36129032258065,1.36129032258065,1.39354838709677,1.40645161290323,1.39354838709677,1.42903225806452,1.44193548387097,1.43870967741935,1.46129032258065,1.44193548387097,1.42258064516129,1.43870967741935,1.40645161290323,1.41612903225806,1.43225806451613,1.43870967741935,1.43548387096774,1.43870967741935,1.53548387096774,1.96451612903226,2.51935483870968,2.93870967741935,2.20645161290323,1.33548387096774,1.25483870967742,1.3,1.31290322580645,1.27096774193548,1.27096774193548,1.27096774193548,1.30322580645161,1.34193548387097,1.35483870967742,1.34193548387097,1.33225806451613,1.31290322580645,1.3258064516129,1.30645161290323,1.32258064516129,1.3,1.30967741935484,1.32903225806452,1.32258064516129,1.29677419354839,1.33548387096774,1.29032258064516,1.3258064516129,1.31290322580645,1.31935483870968,1.30645161290323,1.33870967741935,1.33870967741935,1.35483870967742,1.36451612903226,1.38387096774194,1.40322580645161,1.4,1.40645161290323,1.38387096774194,1.38387096774194,1.36129032258065,1.3741935483871,1.37096774193548,1.39032258064516,1.36451612903226,1.35806451612903,1.35806451612903,1.3741935483871,1.34193548387097,1.39032258064516,1.36774193548387,1.35806451612903,1.3258064516129,1.36451612903226,1.36129032258065,1.37096774193548,1.35806451612903,1.34193548387097,1.37741935483871,1.36451612903226,1.36451612903226,1.38709677419355,1.39677419354839,1.38387096774194,1.38709677419355,1.38387096774194,1.38709677419355,1.35483870967742,1.4,1.38064516129032,1.39354838709677,1.37741935483871,1.39032258064516,1.37096774193548,1.39032258064516,1.37096774193548,1.40967741935484,1.39354838709677,1.37741935483871,1.38064516129032,1.38387096774194,1.38387096774194,1.37096774193548,1.38387096774194,1.3741935483871,1.39677419354839,1.36129032258065,1.37741935483871,1.38387096774194,1.37741935483871,1.34838709677419,1.38387096774194,1.38709677419355,1.40967741935484,1.40967741935484,1.4258064516129,1.40967741935484,1.44838709677419,1.44516129032258,1.48064516129032,1.44193548387097,1.45483870967742,1.40645161290323,1.38387096774194,1.37096774193548,1.38064516129032,1.3741935483871,1.3741935483871,1.39032258064516,1.41290322580645,1.6741935483871,2.20322580645161,2.70322580645161,2.62903225806452,1.45806451612903,1.03225806451613,1.18387096774194,1.25483870967742,1.33548387096774,1.32903225806452,1.36129032258065,1.33870967741935,1.38064516129032,1.33870967741935,1.36774193548387,1.35161290322581,1.3741935483871,1.35806451612903,1.38064516129032,1.37096774193548,1.39032258064516,1.37096774193548,1.3741935483871,1.39677419354839,1.36451612903226,1.39354838709677,1.3741935483871,1.40322580645161,1.40967741935484,1.40322580645161,1.41290322580645,1.4258064516129,1.41935483870968,1.43548387096774,1.42903225806452,1.45161290322581,1.42258064516129,1.44516129032258,1.41935483870968,1.40322580645161,1.38709677419355,1.39032258064516,1.36451612903226,1.34838709677419,1.35483870967742,1.36451612903226,1.32903225806452,1.31935483870968,1.33548387096774,1.31935483870968,1.3258064516129,1.31290322580645,1.32903225806452,1.31612903225806,1.34516129032258,1.32258064516129,1.3258064516129,1.33870967741935,1.33548387096774,1.3258064516129,1.36129032258065,1.33225806451613,1.35483870967742,1.33870967741935,1.36774193548387,1.36451612903226,1.36774193548387,1.35161290322581,1.35806451612903,1.36129032258065,1.34838709677419,1.31612903225806,1.33225806451613,1.33548387096774,1.32903225806452,1.3258064516129,1.33548387096774,1.34516129032258,1.33870967741935,1.35161290322581,1.34516129032258,1.35161290322581,1.33225806451613,1.36774193548387,1.34838709677419,1.35161290322581,1.35161290322581,1.36774193548387,1.35161290322581,1.37741935483871,1.34838709677419,1.37741935483871,1.36774193548387,1.38064516129032,1.35806451612903,1.38064516129032,1.36451612903226,1.36774193548387,1.37096774193548,1.3741935483871,1.39677419354839,1.40645161290323,1.41290322580645,1.39354838709677,1.45806451612903,1.44516129032258,1.45161290322581,1.43548387096774,1.44193548387097,1.41290322580645,1.41290322580645,1.35483870967742,1.39354838709677,1.36774193548387,1.38387096774194,1.38064516129032,1.38064516129032,1.58387096774194,2.06129032258065,2.65161290322581,2.80322580645161,1.74516129032258,1.09354838709677,1.19032258064516,1.27096774193548,1.34516129032258,1.33548387096774,1.32903225806452,1.33548387096774,1.35161290322581,1.3258064516129,1.34193548387097,1.3258064516129,1.34193548387097,1.31290322580645,1.33870967741935,1.31612903225806,1.34193548387097,1.30967741935484,1.3258064516129,1.31290322580645,1.34838709677419,1.32903225806452,1.32903225806452,1.34516129032258,1.33870967741935,1.34516129032258,1.35483870967742,1.35483870967742,1.36451612903226,1.39032258064516,1.40967741935484,1.40967741935484,1.41290322580645,1.44193548387097,1.44516129032258,1.43548387096774,1.41290322580645,1.42258064516129,1.39032258064516,1.41290322580645,1.40645161290323,1.39677419354839,1.39677419354839,1.40645161290323,1.4,1.39677419354839,1.38387096774194,1.39677419354839,1.38387096774194,1.39677419354839,1.38064516129032,1.38064516129032,1.38064516129032,1.3741935483871,1.36129032258065,1.3741935483871,1.3741935483871,1.38387096774194,1.39677419354839,1.38064516129032,1.40322580645161,1.36774193548387,1.39354838709677,1.3741935483871,1.40967741935484,1.36451612903226,1.40645161290323,1.38387096774194,1.38387096774194,1.37741935483871,1.39354838709677,1.38064516129032,1.39032258064516,1.38064516129032,1.37096774193548,1.3741935483871,1.36451612903226,1.37741935483871,1.35161290322581,1.36451612903226,1.35483870967742,1.38064516129032,1.36129032258065,1.3741935483871,1.36129032258065,1.38064516129032,1.36129032258065,1.38064516129032,1.36129032258065,1.3741935483871,1.3741935483871,1.38387096774194,1.36129032258065,1.38709677419355,1.3741935483871,1.40322580645161,1.40645161290323,1.38709677419355,1.40967741935484,1.44516129032258,1.44516129032258,1.43870967741935,1.45806451612903,1.4258064516129,1.41290322580645,1.38387096774194,1.36451612903226,1.36129032258065,1.38064516129032,1.36129032258065,1.38709677419355,1.39354838709677,1.63870967741935,2.1,2.63870967741935,2.55483870967742,1.46129032258065,1.06451612903226,1.18709677419355,1.26129032258065,1.34193548387097,1.32903225806452,1.34193548387097,1.33870967741935,1.33870967741935,1.34838709677419,1.34193548387097,1.34516129032258,1.33225806451613,1.34193548387097,1.32903225806452,1.35806451612903,1.33225806451613,1.33870967741935,1.33225806451613,1.35483870967742,1.31935483870968,1.35161290322581,1.34516129032258,1.36129032258065,1.33225806451613,1.35483870967742,1.35483870967742,1.38064516129032,1.3741935483871,1.39032258064516,1.38387096774194,1.41290322580645,1.41612903225806,1.4258064516129,1.41290322580645,1.41612903225806,1.43225806451613,1.40967741935484,1.4,1.4,1.40322580645161,1.39677419354839,1.41290322580645,1.39032258064516,1.40645161290323,1.38064516129032,1.40322580645161,1.37741935483871,1.38387096774194,1.3741935483871,1.38064516129032,1.35161290322581,1.37096774193548,1.36451612903226,1.38709677419355,1.36451612903226,1.37741935483871,1.36129032258065,1.38709677419355,1.38064516129032,1.36774193548387,1.38064516129032,1.37741935483871,1.38709677419355,1.3741935483871,1.38387096774194,1.36774193548387,1.37741935483871,1.37096774193548,1.38064516129032,1.36774193548387,1.38709677419355,1.35483870967742,1.35483870967742,1.35483870967742,1.3741935483871,1.35806451612903,1.37741935483871,1.36774193548387,1.3741935483871,1.36451612903226,1.35483870967742,1.34838709677419,1.37096774193548,1.37096774193548,1.35161290322581,1.37096774193548,1.33548387096774,1.36129032258065,1.34838709677419,1.37741935483871,1.36774193548387,1.39677419354839,1.39354838709677,1.39354838709677,1.42258064516129,1.45483870967742,1.42903225806452,1.45483870967742,1.42903225806452,1.4,1.36129032258065,1.3741935483871,1.35806451612903,1.35161290322581,1.35161290322581,1.37096774193548,1.35806451612903,1.51290322580645,1.93225806451613,2.46774193548387,2.72903225806452,1.71612903225806,1.06774193548387,1.14193548387097,1.24193548387097,1.28709677419355,1.35161290322581,1.31935483870968,1.36129032258065,1.3258064516129,1.33870967741935,1.31935483870968,1.33870967741935,1.3258064516129,1.34838709677419,1.32258064516129,1.33548387096774,1.31935483870968,1.31290322580645,1.30322580645161,1.34516129032258,1.34193548387097,1.3258064516129,1.33870967741935,1.33225806451613,1.35161290322581,1.32258064516129,1.35161290322581,1.37741935483871,1.3741935483871,1.39032258064516,1.41612903225806,1.38387096774194,1.43548387096774,1.42903225806452,1.45161290322581,1.42903225806452,1.41290322580645,1.38709677419355,1.43225806451613,1.39677419354839,1.41290322580645,1.38387096774194,1.4,1.40645161290323,1.4258064516129,1.3741935483871,1.36774193548387,1.38064516129032,1.39677419354839,1.38387096774194,1.36451612903226,1.36129032258065,1.37096774193548,1.39354838709677,1.37096774193548,1.38709677419355,1.33225806451613,1.37741935483871,1.40967741935484,1.37741935483871,1.36774193548387,1.39677419354839,1.39677419354839,1.38387096774194,1.35806451612903,1.37096774193548,1.38387096774194,1.38064516129032,1.37741935483871,1.37741935483871,1.36129032258065,1.38387096774194,1.38064516129032,1.4,1.38387096774194,1.36451612903226,1.36774193548387,1.36774193548387,1.36451612903226,1.35483870967742,1.38709677419355,1.37096774193548,1.38709677419355,1.36451612903226,1.37096774193548,1.37741935483871,1.4,1.3741935483871,1.39677419354839,1.38387096774194,1.41935483870968,1.42258064516129,1.40322580645161,1.43548387096774,1.46129032258065,1.44193548387097,1.44838709677419,1.44516129032258,1.4,1.39354838709677,1.37741935483871,1.38709677419355,1.35806451612903,1.3741935483871,1.38064516129032,1.3741935483871,1.53870967741935,2.05483870967742,2.60645161290323,2.83225806451613,1.73870967741935,1.05483870967742,1.13225806451613,1.24193548387097,1.31612903225806,1.33870967741935,1.33225806451613,1.34516129032258,1.33870967741935,1.34193548387097,1.34193548387097,1.3258064516129,1.33225806451613,1.33225806451613,1.35161290322581,1.32903225806452,1.33225806451613,1.3258064516129,1.35806451612903,1.34193548387097,1.34516129032258,1.33548387096774,1.34838709677419,1.33548387096774,1.36451612903226,1.33548387096774,1.37096774193548,1.35483870967742,1.3741935483871,1.3741935483871,1.40322580645161,1.4,1.4258064516129,1.42903225806452,1.42258064516129,1.4258064516129,1.41290322580645,1.40645161290323,1.4,1.40645161290323,1.38064516129032,1.4,1.37741935483871,1.39677419354839,1.36774193548387,1.38709677419355,1.37096774193548,1.39032258064516,1.3741935483871,1.36129032258065,1.35161290322581,1.37096774193548,1.36129032258065,1.36129032258065,1.34516129032258,1.37096774193548,1.34193548387097,1.36129032258065,1.36129032258065,1.35161290322581,1.35161290322581,1.34516129032258,1.37741935483871,1.35161290322581,1.36451612903226,1.35161290322581,1.37741935483871,1.36451612903226,1.39354838709677,1.35483870967742,1.3741935483871,1.34516129032258,1.38387096774194,1.34838709677419,1.37096774193548,1.35806451612903,1.37741935483871,1.36774193548387,1.38709677419355,1.3741935483871,1.36451612903226,1.36451612903226,1.35806451612903,1.36129032258065,1.36774193548387,1.36129032258065,1.35806451612903,1.36774193548387,1.36129032258065,1.37741935483871,1.37096774193548,1.36774193548387,1.36451612903226,1.38387096774194,1.39354838709677,1.42258064516129,1.40322580645161,1.41612903225806,1.44193548387097,1.47096774193548,1.44516129032258,1.43870967741935,1.41290322580645,1.42903225806452,1.38709677419355,1.37096774193548,1.35483870967742,1.38709677419355,1.36129032258065,1.36774193548387,1.41612903225806,1.63548387096774,2.1741935483871,2.73870967741935,2.67741935483871,1.51612903225806,1.05483870967742,1.16451612903226,1.27741935483871,1.3,1.31612903225806,1.30645161290323,1.31612903225806,1.30322580645161,1.33225806451613,1.30322580645161,1.31290322580645,1.30322580645161,1.30967741935484,1.3,1.32903225806452,1.28064516129032,1.31612903225806,1.31290322580645,1.30967741935484,1.31612903225806,1.31612903225806,1.33548387096774,1.32903225806452,1.34193548387097,1.30645161290323,1.35161290322581,1.34838709677419,1.37096774193548,1.36774193548387,1.38064516129032,1.38387096774194,1.41935483870968,1.41935483870968,1.43225806451613,1.40645161290323,1.41612903225806,1.41612903225806,1.37096774193548,1.40322580645161,1.41612903225806,1.38387096774194,1.38709677419355,1.4,1.41612903225806,1.36129032258065,1.37096774193548,1.39677419354839,1.37741935483871,1.3741935483871,1.38709677419355,1.39032258064516,1.34516129032258,1.35483870967742,1.38064516129032,1.4,1.38064516129032,1.38064516129032,1.3741935483871,1.40645161290323,1.40322580645161,1.42258064516129,1.39032258064516,1.43548387096774,1.40967741935484,1.41612903225806,1.39677419354839,1.38709677419355,1.41290322580645,1.40645161290323,1.38387096774194,1.37096774193548,1.39032258064516,1.38709677419355,1.39677419354839,1.39354838709677,1.39032258064516,1.3741935483871,1.36129032258065,1.37096774193548,1.40645161290323,1.36129032258065,1.39032258064516,1.36451612903226,1.40322580645161,1.35483870967742,1.38709677419355,1.3741935483871,1.39354838709677,1.3741935483871,1.41612903225806,1.40322580645161,1.40322580645161,1.41612903225806,1.43548387096774,1.46774193548387,1.48064516129032,1.47096774193548,1.43225806451613,1.40645161290323,1.38387096774194,1.38709677419355,1.37741935483871,1.38387096774194,1.38387096774194,1.38064516129032,1.38709677419355,1.64193548387097,2.13870967741935,2.61612903225806,2.6,1.41612903225806,1.03548387096774,1.16451612903226,1.26451612903226,1.31612903225806,1.3258064516129,1.32903225806452,1.33225806451613,1.32903225806452,1.35483870967742,1.3258064516129,1.32903225806452,1.32903225806452,1.33225806451613,1.31612903225806,1.30967741935484,1.3258064516129,1.35483870967742,1.30645161290323,1.34193548387097,1.33548387096774,1.32258064516129,1.32903225806452,1.33870967741935,1.31935483870968,1.3258064516129,1.35161290322581,1.34838709677419,1.36129032258065,1.37096774193548,1.37741935483871,1.39032258064516,1.40967741935484,1.4,1.4258064516129,1.39032258064516,1.39677419354839,1.39032258064516,1.41612903225806,1.37741935483871,1.4,1.36451612903226,1.39677419354839,1.34193548387097,1.38709677419355,1.36129032258065,1.3741935483871,1.36774193548387,1.38064516129032,1.36774193548387,1.35806451612903,1.37096774193548,1.36774193548387,1.37741935483871,1.38064516129032,1.37096774193548,1.36774193548387,1.39032258064516,1.38387096774194,1.37741935483871,1.38387096774194,1.41290322580645,1.37741935483871,1.39677419354839,1.36451612903226,1.40645161290323,1.38387096774194,1.40645161290323,1.34838709677419,1.38064516129032,1.37741935483871,1.38064516129032,1.36129032258065,1.3741935483871,1.36774193548387,1.37741935483871,1.35161290322581,1.37096774193548,1.35806451612903,1.36774193548387,1.35161290322581,1.3741935483871,1.35161290322581,1.36774193548387,1.37096774193548,1.36774193548387,1.36451612903226,1.36774193548387,1.36451612903226,1.36129032258065,1.38387096774194,1.38709677419355,1.42258064516129,1.39032258064516,1.44838709677419,1.4258064516129,1.44193548387097,1.4258064516129,1.4258064516129,1.40967741935484,1.39032258064516,1.34838709677419,1.36451612903226,1.35161290322581,1.36129032258065,1.36774193548387,1.35483870967742,1.55806451612903,2.03225806451613,2.65161290322581,2.87741935483871,1.80322580645161,1.05161290322581,1.11935483870968,1.24193548387097,1.31612903225806,1.30322580645161,1.32903225806452,1.3,1.3258064516129,1.30322580645161,1.31935483870968,1.30322580645161,1.32258064516129,1.30967741935484,1.33548387096774,1.30967741935484,1.31935483870968,1.30967741935484,1.30967741935484,1.31612903225806,1.32258064516129,1.31935483870968,1.32258064516129,1.32903225806452,1.32258064516129,1.33548387096774,1.34193548387097,1.34838709677419,1.36774193548387,1.39032258064516,1.38709677419355,1.4,1.41290322580645,1.44516129032258,1.43548387096774,1.43548387096774,1.40967741935484,1.41935483870968,1.40645161290323,1.40322580645161,1.39032258064516,1.40322580645161,1.4,1.40322580645161,1.36774193548387,1.4,1.4,1.39032258064516,1.40645161290323,1.3741935483871,1.39354838709677,1.38709677419355,1.40645161290323,1.39354838709677,1.40322580645161,1.38064516129032,1.40645161290323,1.36774193548387,1.40322580645161,1.38709677419355,1.42258064516129,1.4,1.4,1.41290322580645,1.40967741935484,1.41935483870968,1.42903225806452,1.42903225806452,1.43548387096774,1.42258064516129,1.41290322580645
1.40645161290323,1.4,1.42258064516129,1.39354838709677,1.38387096774194,1.38709677419355,1.41612903225806,1.38064516129032,1.4258064516129,1.38064516129032,1.3741935483871,1.3741935483871,1.40322580645161,1.39677419354839,1.38709677419355,1.38709677419355,1.38709677419355,1.39354838709677,1.39677419354839,1.40967741935484,1.38387096774194,1.41935483870968,1.41612903225806,1.46774193548387,1.44838709677419,1.46451612903226,1.44193548387097,1.43225806451613,1.41935483870968,1.40645161290323,1.3741935483871,1.40967741935484,1.3741935483871,1.39354838709677,1.37741935483871,1.43870967741935,1.7,2.26774193548387,2.71290322580645,2.4741935483871,1.28387096774194,1.06774193548387,1.20322580645161,1.28709677419355,1.33548387096774,1.33870967741935,1.34838709677419,1.33870967741935,1.32903225806452,1.32903225806452,1.35806451612903,1.33870967741935,1.36129032258065,1.33548387096774,1.33548387096774,1.32903225806452,1.35806451612903,1.31290322580645,1.34193548387097,1.32903225806452,1.32258064516129,1.33225806451613,1.35161290322581,1.32903225806452,1.33870967741935,1.36774193548387,1.34838709677419,1.38064516129032,1.36774193548387,1.37741935483871,1.38064516129032,1.40967741935484,1.40967741935484,1.43870967741935,1.40645161290323,1.43870967741935,1.38709677419355,1.4,1.38064516129032,1.40967741935484,1.35806451612903,1.38064516129032,1.36129032258065,1.37741935483871,1.36129032258065,1.36774193548387,1.3741935483871,1.35161290322581,1.35161290322581,1.35161290322581,1.35161290322581,1.34838709677419,1.36774193548387,1.35483870967742,1.37096774193548,1.36774193548387,1.36774193548387,1.37096774193548,1.39677419354839,1.37096774193548,1.39677419354839,1.3741935483871,1.4,1.37741935483871,1.39032258064516,1.37741935483871,1.39032258064516,1.36774193548387,1.38064516129032,1.36451612903226,1.3741935483871,1.35483870967742,1.36129032258065,1.35161290322581,1.36451612903226,1.37096774193548,1.3741935483871,1.35806451612903,1.35483870967742,1.35806451612903,1.35161290322581,1.36451612903226,1.34516129032258,1.37741935483871,1.35483870967742,1.3741935483871,1.35161290322581,1.36774193548387,1.35483870967742,1.38064516129032,1.3741935483871,1.38387096774194,1.39032258064516,1.40322580645161,1.40967741935484,1.44516129032258,1.43870967741935,1.45483870967742,1.43548387096774,1.43225806451613,1.40322580645161,1.38709677419355,1.36451612903226,1.36129032258065,1.36774193548387,1.35483870967742,1.37741935483871,1.33870967741935,1.52903225806452,1.96129032258065,2.60322580645161,2.89677419354839,1.98709677419355,1.0741935483871,1.1258064516129,1.23870967741935,1.31612903225806,1.30645161290323,1.32258064516129,1.3258064516129,1.32258064516129,1.32903225806452,1.32903225806452,1.33225806451613,1.33548387096774,1.3258064516129,1.32258064516129,1.3258064516129,1.3258064516129,1.33870967741935,1.32903225806452,1.35161290322581,1.33548387096774,1.34516129032258,1.32258064516129,1.36129032258065,1.32903225806452,1.34838709677419,1.34193548387097,1.37096774193548,1.36129032258065,1.39354838709677,1.39354838709677,1.41935483870968,1.42903225806452,1.44838709677419,1.43870967741935,1.44516129032258,1.42903225806452,1.40322580645161,1.41935483870968,1.39354838709677,1.41612903225806,1.39032258064516,1.4,1.38387096774194,1.38709677419355,1.38064516129032,1.39354838709677,1.37096774193548,1.38387096774194,1.37741935483871,1.39032258064516,1.3741935483871,1.38064516129032,1.37741935483871,1.36451612903226,1.37096774193548,1.38387096774194,1.3741935483871,1.38064516129032,1.36774193548387,1.3741935483871,1.38709677419355,1.37741935483871,1.38064516129032,1.37741935483871,1.38064516129032,1.3741935483871,1.39032258064516,1.3741935483871,1.38064516129032,1.36129032258065,1.39354838709677,1.36451612903226,1.38709677419355,1.35806451612903,1.3741935483871,1.35161290322581,1.3741935483871,1.35806451612903,1.37096774193548,1.36774193548387,1.36451612903226,1.35806451612903,1.37741935483871,1.35806451612903,1.37741935483871,1.35806451612903,1.38709677419355,1.3741935483871,1.35483870967742,1.37741935483871,1.35483870967742,1.3741935483871,1.36774193548387,1.39677419354839,1.38387096774194,1.38709677419355,1.39354838709677,1.43548387096774,1.41612903225806,1.42258064516129,1.4258064516129,1.41290322580645,1.36774193548387,1.37096774193548,1.34838709677419,1.35806451612903,1.3258064516129,1.35806451612903,1.36129032258065,1.41290322580645,1.65161290322581,2.21612903225806,2.70645161290323,2.49354838709677,1.33548387096774,1.04838709677419,1.19032258064516,1.27741935483871,1.32258064516129,1.31290322580645,1.35806451612903,1.31935483870968,1.35161290322581,1.35161290322581,1.35161290322581,1.33870967741935,1.36774193548387,1.33548387096774,1.34838709677419,1.32258064516129,1.34838709677419,1.31935483870968,1.33548387096774,1.34838709677419,1.3258064516129,1.34193548387097,1.33870967741935,1.32258064516129,1.36451612903226,1.34838709677419,1.34193548387097,1.35483870967742,1.36451612903226,1.40967741935484,1.38387096774194,1.43548387096774,1.41935483870968,1.44193548387097,1.41290322580645,1.4258064516129,1.4258064516129,1.4,1.38709677419355,1.4,1.4,1.41290322580645,1.3741935483871,1.38709677419355,1.40322580645161,1.40645161290323,1.4,1.37096774193548,1.36451612903226,1.37096774193548,1.38064516129032,1.37096774193548,1.3741935483871,1.37741935483871,1.34838709677419,1.34516129032258,1.36774193548387,1.35806451612903,1.36129032258065,1.36774193548387,1.36774193548387,1.34516129032258,1.39354838709677,1.37741935483871,1.38387096774194,1.37741935483871,1.38387096774194,1.36774193548387,1.38064516129032,1.37096774193548,1.37741935483871,1.36774193548387,1.36129032258065,1.37096774193548,1.35161290322581,1.35806451612903,1.35483870967742,1.35483870967742,1.3258064516129,1.36451612903226,1.33225806451613,1.37096774193548,1.31612903225806,1.35806451612903,1.35806451612903,1.36774193548387,1.36129032258065,1.38709677419355,1.36774193548387,1.40645161290323,1.39032258064516,1.42258064516129,1.44193548387097,1.43870967741935,1.46451612903226,1.45806451612903,1.41935483870968,1.40645161290323,1.39677419354839,1.37741935483871,1.39354838709677,1.36451612903226,1.40645161290323,1.3741935483871,1.45806451612903,1.87741935483871,2.5258064516129,2.90645161290323,2.15806451612903,1.1,1.1,1.19677419354839,1.3258064516129,1.32258064516129,1.35806451612903,1.34193548387097,1.34516129032258,1.34193548387097,1.34516129032258,1.34516129032258,1.35483870967742,1.34193548387097,1.3258064516129,1.34516129032258,1.33548387096774,1.35161290322581,1.34193548387097,1.35161290322581,1.33548387096774,1.34516129032258,1.33870967741935,1.36129032258065,1.34193548387097,1.34838709677419,1.35806451612903,1.37741935483871,1.36129032258065,1.39354838709677,1.39032258064516,1.41612903225806,1.40645161290323,1.43225806451613,1.44193548387097,1.44193548387097,1.41935483870968,1.4258064516129,1.4,1.40645161290323,1.39032258064516,1.38709677419355,1.40645161290323,1.3741935483871,1.38709677419355,1.37741935483871,1.39677419354839,1.37096774193548,1.38387096774194,1.35483870967742,1.3741935483871,1.35806451612903,1.38387096774194,1.36451612903226,1.3741935483871,1.36774193548387,1.38387096774194,1.36451612903226,1.3741935483871,1.37741935483871,1.37741935483871,1.3741935483871,1.36451612903226,1.36774193548387,1.36774193548387,1.38064516129032,1.39032258064516,1.38387096774194,1.36129032258065,1.37096774193548,1.36774193548387,1.3741935483871,1.35806451612903,1.36451612903226,1.36774193548387,1.37741935483871,1.35483870967742,1.37741935483871,1.33870967741935,1.36451612903226,1.35161290322581,1.36451612903226,1.35483870967742,1.36129032258065,1.35483870967742,1.35806451612903,1.35806451612903,1.36774193548387,1.34516129032258,1.34516129032258,1.36129032258065,1.35806451612903,1.38387096774194,1.37741935483871,1.42258064516129,1.38709677419355,1.40322580645161,1.41612903225806,1.44516129032258,1.41935483870968,1.43548387096774,1.40322580645161,1.39354838709677,1.36451612903226,1.36451612903226,1.35161290322581,1.36129032258065,1.36129032258065,1.37096774193548,1.41612903225806,1.72258064516129,2.34838709677419,2.83225806451613,2.51290322580645,1.35483870967742,1.08064516129032,1.20322580645161,1.30645161290323,1.30967741935484,1.33225806451613,1.30645161290323,1.31935483870968,1.30645161290323,1.33870967741935,1.30967741935484,1.33548387096774,1.30967741935484,1.31935483870968,1.31290322580645,1.32903225806452,1.30322580645161,1.31290322580645,1.31612903225806,1.32903225806452,1.31290322580645,1.32258064516129,1.31290322580645,1.32903225806452,1.34193548387097,1.31935483870968,1.33225806451613,1.34838709677419,1.34838709677419,1.3741935483871,1.39677419354839,1.39032258064516,1.41612903225806,1.41290322580645,1.42258064516129,1.38064516129032,1.41290322580645,1.39354838709677,1.39354838709677,1.39354838709677,1.4,1.38064516129032,1.38709677419355,1.37096774193548,1.39354838709677,1.39032258064516,1.38387096774194,1.37741935483871,1.36129032258065,1.39354838709677,1.38709677419355,1.39677419354839,1.39032258064516,1.38709677419355,1.37096774193548,1.38709677419355,1.39032258064516,1.38387096774194,1.36129032258065,1.39032258064516,1.36451612903226,1.39354838709677,1.37096774193548,1.38064516129032,1.38064516129032,1.3741935483871,1.36774193548387,1.38064516129032,1.37741935483871,1.39354838709677,1.38387096774194,1.36451612903226,1.39354838709677,1.37096774193548,1.36451612903226,1.38709677419355,1.38709677419355,1.35806451612903,1.3741935483871,1.37741935483871,1.38064516129032,1.36774193548387,1.36129032258065,1.36129032258065,1.3741935483871,1.38064516129032,1.4,1.36774193548387,1.4,1.39354838709677,1.43548387096774,1.44838709677419,1.41612903225806,1.42903225806452,1.4258064516129,1.4,1.37096774193548,1.3741935483871,1.35806451612903,1.35161290322581,1.3741935483871,1.39032258064516,1.36451612903226,1.5741935483871,2.07096774193548,2.64838709677419,2.74838709677419,1.65161290322581,0.987096774193548,1.15161290322581,1.2258064516129,1.31935483870968,1.32903225806452,1.33225806451613,1.3258064516129,1.34193548387097,1.32903225806452,1.30967741935484,1.3258064516129,1.33225806451613,1.35806451612903,1.32258064516129,1.3258064516129,1.34516129032258,1.35161290322581,1.32258064516129,1.35483870967742,1.32903225806452,1.33548387096774,1.33548387096774,1.33225806451613,1.3258064516129,1.37096774193548,1.33870967741935,1.38709677419355,1.39354838709677,1.40645161290323,1.4,1.42258064516129,1.42258064516129,1.4258064516129,1.43548387096774,1.42903225806452,1.40645161290323,1.4,1.37741935483871,1.38387096774194,1.38064516129032,1.3741935483871,1.3741935483871,1.37096774193548,1.37741935483871,1.37741935483871,1.38709677419355,1.36451612903226,1.38387096774194,1.36129032258065,1.39354838709677,1.36451612903226,1.38387096774194,1.35806451612903,1.39354838709677,1.3741935483871,1.39354838709677,1.38064516129032,1.38709677419355,1.39032258064516,1.40967741935484,1.38387096774194,1.4,1.38709677419355,1.39032258064516,1.39677419354839,1.38064516129032,1.39032258064516,1.37741935483871,1.39354838709677,1.37096774193548,1.37741935483871,1.38387096774194,1.38709677419355,1.36451612903226,1.38064516129032,1.34838709677419,1.38709677419355,1.35483870967742,1.38387096774194,1.35483870967742,1.36451612903226,1.35806451612903,1.38709677419355,1.3741935483871,1.36774193548387,1.36451612903226,1.37096774193548,1.36774193548387,1.38387096774194,1.39032258064516,1.39032258064516,1.41612903225806,1.39677419354839,1.4258064516129,1.43548387096774,1.44838709677419,1.42903225806452,1.43548387096774,1.40967741935484,1.39677419354839,1.36129032258065,1.3741935483871,1.35483870967742,1.3741935483871,1.36774193548387,1.3741935483871,1.56774193548387,2.06129032258065,2.64838709677419,2.87741935483871,1.80967741935484,1.06451612903226,1.14516129032258,1.24193548387097,1.32258064516129,1.32258064516129,1.3258064516129,1.31935483870968,1.32258064516129,1.31290322580645,1.32258064516129,1.32258064516129,1.33870967741935,1.30322580645161,1.32258064516129,1.29354838709677,1.32258064516129,1.3,1.32903225806452,1.28387096774194,1.30645161290323,1.31290322580645,1.31290322580645,1.30322580645161,1.3258064516129,1.3258064516129,1.32258064516129,1.3258064516129,1.35161290322581,1.36774193548387,1.37096774193548,1.39032258064516,1.39677419354839,1.41935483870968,1.41935483870968,1.42903225806452,1.40967741935484,1.41612903225806,1.38064516129032,1.39677419354839,1.37741935483871,1.39354838709677,1.37096774193548,1.39677419354839,1.36774193548387,1.37096774193548,1.37096774193548,1.3741935483871,1.37741935483871,1.35483870967742,1.35806451612903,1.37741935483871,1.37096774193548,1.38387096774194,1.35806451612903,1.36451612903226,1.37096774193548,1.36129032258065,1.4,1.37096774193548,1.37741935483871,1.38064516129032,1.38064516129032,1.38387096774194,1.39677419354839,1.38387096774194,1.39677419354839,1.38387096774194,1.40322580645161,1.38064516129032,1.38387096774194,1.38709677419355,1.38709677419355,1.36774193548387,1.37741935483871,1.35483870967742,1.36451612903226,1.37741935483871,1.3741935483871,1.37096774193548,1.35161290322581,1.37096774193548,1.38387096774194,1.4,1.37096774193548,1.4,1.36451612903226,1.40322580645161,1.35161290322581,1.39354838709677,1.38709677419355,1.41290322580645,1.39677419354839,1.41290322580645,1.40645161290323,1.44838709677419,1.44193548387097,1.44193548387097,1.45483870967742,1.45483870967742,1.4,1.38387096774194,1.37096774193548,1.37096774193548,1.39677419354839,1.38064516129032,1.36451612903226,1.43548387096774,1.78709677419355,2.36129032258065,2.82258064516129,2.30645161290323,1.18387096774194,1.03548387096774,1.2,1.26774193548387,1.31290322580645,1.31290322580645,1.32258064516129,1.33225806451613,1.3258064516129,1.31935483870968,1.34193548387097,1.31612903225806,1.33225806451613,1.32903225806452,1.33225806451613,1.31612903225806,1.35161290322581,1.33225806451613,1.33548387096774,1.33548387096774,1.31935483870968,1.30967741935484,1.33225806451613,1.33548387096774,1.33870967741935,1.34838709677419,1.32903225806452,1.37741935483871,1.34516129032258,1.41612903225806,1.39032258064516,1.4258064516129,1.41935483870968,1.43225806451613,1.43225806451613,1.41935483870968,1.38064516129032,1.39032258064516,1.37741935483871,1.37096774193548,1.36129032258065,1.38064516129032,1.38387096774194,1.3741935483871,1.3741935483871,1.37096774193548,1.3741935483871,1.34193548387097,1.39032258064516,1.34838709677419,1.36774193548387,1.36451612903226,1.37741935483871,1.35806451612903,1.38064516129032,1.36129032258065,1.39032258064516,1.39354838709677,1.36774193548387,1.38064516129032,1.40322580645161,1.39677419354839,1.40322580645161,1.38064516129032,1.39677419354839,1.40322580645161,1.38064516129032,1.4,1.38387096774194,1.39677419354839,1.35161290322581,1.36774193548387,1.38709677419355,1.37096774193548,1.36129032258065,1.36774193548387,1.35806451612903,1.35806451612903,1.35483870967742,1.35483870967742,1.34193548387097,1.37096774193548,1.34838709677419,1.36451612903226,1.36129032258065,1.35483870967742,1.36774193548387,1.38387096774194,1.38709677419355,1.39354838709677,1.40967741935484,1.4258064516129,1.44193548387097,1.43870967741935,1.44193548387097,1.4258064516129,1.4258064516129,1.38709677419355,1.38387096774194,1.35806451612903,1.35806451612903,1.36129032258065,1.38064516129032,1.33548387096774,1.52258064516129,1.94838709677419,2.6,2.92903225806452,2.02258064516129,1.08387096774194,1.1,1.21935483870968,1.30967741935484,1.3258064516129,1.32903225806452,1.33225806451613,1.32258064516129,1.34838709677419,1.34516129032258,1.33548387096774,1.31935483870968,1.34193548387097,1.32903225806452,1.31290322580645,1.31612903225806,1.34193548387097,1.30967741935484,1.34838709677419,1.3258064516129,1.34193548387097,1.3258064516129,1.34838709677419,1.31935483870968,1.34516129032258,1.33870967741935,1.37096774193548,1.36451612903226,1.36451612903226,1.38709677419355,1.40322580645161,1.41935483870968,1.42903225806452,1.43870967741935,1.42903225806452,1.42903225806452,1.4,1.40967741935484,1.39677419354839,1.4,1.38709677419355,1.40645161290323,1.37096774193548,1.4,1.38064516129032,1.39354838709677,1.37096774193548,1.39354838709677,1.37741935483871,1.38387096774194,1.3741935483871,1.37741935483871,1.3741935483871,1.37741935483871,1.3741935483871,1.3741935483871,1.3741935483871,1.38064516129032,1.38709677419355,1.36451612903226,1.37096774193548,1.37096774193548,1.38387096774194,1.3741935483871,1.3741935483871,1.36451612903226,1.39032258064516,1.36774193548387,1.38387096774194,1.38064516129032,1.38387096774194,1.3741935483871,1.38387096774194,1.37096774193548,1.37741935483871,1.35806451612903,1.37096774193548,1.35483870967742,1.37096774193548,1.36451612903226,1.35806451612903,1.3741935483871,1.35806451612903,1.37741935483871,1.36451612903226,1.35161290322581,1.36774193548387,1.37096774193548,1.36774193548387,1.37741935483871,1.37096774193548,1.41612903225806,1.39677419354839,1.4,1.41290322580645,1.43870967741935,1.43225806451613,1.44193548387097,1.41290322580645,1.40645161290323,1.39032258064516,1.38709677419355,1.35483870967742,1.36774193548387,1.36774193548387,1.35161290322581,1.35161290322581,1.43870967741935,1.78709677419355,2.41612903225806,2.84516129032258,2.34193548387097,1.26129032258065,1.07741935483871,1.22258064516129,1.29032258064516,1.3258064516129,1.30322580645161,1.32258064516129,1.3,1.31612903225806,1.31290322580645,1.31935483870968,1.31290322580645,1.31935483870968,1.3,1.31290322580645,1.30322580645161,1.31290322580645,1.3,1.30645161290323,1.29677419354839,1.30967741935484,1.30645161290323,1.32258064516129,1.33225806451613,1.3258064516129,1.33225806451613,1.33548387096774,1.36451612903226,1.35161290322581,1.39354838709677,1.37741935483871,1.4,1.41612903225806,1.44193548387097,1.42258064516129,1.41935483870968,1.41612903225806,1.41290322580645,1.4,1.38709677419355,1.38709677419355,1.39032258064516,1.41612903225806,1.41612903225806,1.38387096774194,1.39677419354839,1.41935483870968,1.37741935483871,1.39354838709677,1.38387096774194,1.39354838709677,1.40645161290323,1.40322580645161,1.37096774193548,1.39677419354839,1.38064516129032,1.40645161290323,1.36774193548387,1.40322580645161,1.36774193548387,1.3741935483871,1.38709677419355,1.39354838709677,1.36129032258065,1.37741935483871,1.39677419354839,1.38387096774194,1.38064516129032,1.39677419354839,1.37741935483871,1.37096774193548,1.36451612903226,1.37096774193548,1.3741935483871,1.3258064516129,1.38064516129032,1.35806451612903,1.35161290322581,1.36129032258065,1.37096774193548,1.33548387096774,1.37741935483871,1.34838709677419,1.34838709677419,1.33225806451613,1.37741935483871,1.37096774193548,1.36451612903226,1.39677419354839,1.39032258064516,1.4,1.43870967741935,1.4258064516129,1.41612903225806,1.42903225806452,1.40322580645161,1.38709677419355,1.34516129032258,1.37741935483871,1.36774193548387,1.35483870967742,1.35483870967742,1.36451612903226,1.44193548387097,1.89677419354839,2.49354838709677,2.86451612903226,2.01290322580645,1.04838709677419,1.08387096774194,1.21290322580645,1.29354838709677,1.31612903225806,1.31935483870968,1.35483870967742,1.31290322580645,1.34193548387097,1.34516129032258,1.30967741935484,1.35161290322581,1.3258064516129,1.35161290322581,1.32903225806452,1.34838709677419,1.31290322580645,1.3258064516129,1.34193548387097,1.34516129032258,1.33225806451613,1.34838709677419,1.33225806451613,1.36774193548387,1.33225806451613,1.36451612903226,1.3741935483871,1.39677419354839,1.37741935483871,1.39677419354839,1.42258064516129,1.4258064516129,1.45483870967742,1.44516129032258,1.43870967741935,1.42258064516129,1.42903225806452,1.39677419354839,1.40322580645161,1.40322580645161,1.40322580645161,1.38709677419355,1.4,1.38387096774194,1.39032258064516,1.38064516129032,1.40322580645161,1.36774193548387,1.38387096774194,1.38064516129032,1.38064516129032,1.3741935483871,1.39354838709677,1.38064516129032,1.4,1.38709677419355,1.39354838709677,1.4,1.41290322580645,1.41612903225806,1.40645161290323,1.40322580645161,1.40645161290323,1.41290322580645,1.40967741935484,1.42258064516129,1.39032258064516,1.40967741935484,1.39677419354839,1.41290322580645,1.39677419354839,1.41290322580645,1.39032258064516,1.39354838709677,1.39032258064516,1.39677419354839,1.38709677419355,1.39354838709677,1.38387096774194,1.39354838709677,1.37096774193548,1.38064516129032,1.38387096774194,1.38709677419355,1.38387096774194,1.3741935483871,1.37741935483871,1.3741935483871,1.38709677419355,1.39677419354839,1.40967741935484,1.40967741935484,1.43548387096774,1.39677419354839,1.46129032258065,1.44193548387097,1.46451612903226,1.43225806451613,1.44838709677419,1.39032258064516,1.39677419354839,1.36774193548387
1.38387096774194,1.39677419354839,1.37096774193548,1.38064516129032,1.38709677419355,1.38387096774194,1.3741935483871,1.36451612903226,1.39354838709677,1.36774193548387,1.38064516129032,1.36774193548387,1.37741935483871,1.35161290322581,1.3741935483871,1.36774193548387,1.3741935483871,1.36774193548387,1.38064516129032,1.36129032258065,1.37741935483871,1.35483870967742,1.38387096774194,1.36451612903226,1.39354838709677,1.39032258064516,1.40967741935484,1.40645161290323,1.41935483870968,1.43225806451613,1.44193548387097,1.43870967741935,1.43225806451613,1.40967741935484,1.37096774193548,1.37741935483871,1.35161290322581,1.36451612903226,1.35161290322581,1.38387096774194,1.34838709677419,1.5,1.90322580645161,2.55806451612903,2.85161290322581,2.06774193548387,1.14516129032258,1.13870967741935,1.22258064516129,1.31612903225806,1.30967741935484,1.32903225806452,1.31612903225806,1.30967741935484,1.31935483870968,1.32258064516129,1.30322580645161,1.30967741935484,1.30645161290323,1.30645161290323,1.30645161290323,1.29354838709677,1.31935483870968,1.31290322580645,1.32258064516129,1.27741935483871,1.31612903225806,1.31612903225806,1.32903225806452,1.29677419354839,1.32903225806452,1.31290322580645,1.33870967741935,1.33225806451613,1.36774193548387,1.35161290322581,1.38064516129032,1.39354838709677,1.41290322580645,1.40322580645161,1.41612903225806,1.4,1.4,1.38387096774194,1.38709677419355,1.4,1.39354838709677,1.39354838709677,1.38064516129032,1.4,1.37741935483871,1.39032258064516,1.37096774193548,1.40645161290323,1.38387096774194,1.39677419354839,1.38064516129032,1.38709677419355,1.38709677419355,1.39032258064516,1.38064516129032,1.37741935483871,1.38387096774194,1.36774193548387,1.3741935483871,1.39677419354839,1.39032258064516,1.38387096774194,1.38709677419355,1.38387096774194,1.39032258064516,1.38387096774194,1.38387096774194,1.3741935483871,1.38709677419355,1.38064516129032,1.38064516129032,1.36774193548387,1.38709677419355,1.4,1.39354838709677,1.36129032258065,1.38709677419355,1.36774193548387,1.38709677419355,1.36129032258065,1.40322580645161,1.3741935483871,1.35483870967742,1.39032258064516,1.35806451612903,1.36129032258065,1.37096774193548,1.36129032258065,1.40967741935484,1.40322580645161,1.38064516129032,1.41935483870968,1.41290322580645,1.46451612903226,1.42903225806452,1.43548387096774,1.43225806451613,1.36451612903226,1.32903225806452,1.36129032258065,1.35161290322581,1.35483870967742,1.34193548387097,1.36129032258065,1.4,1.67741935483871,2.25161290322581,2.73870967741935,2.52903225806452,1.30322580645161,1.03548387096774,1.16774193548387,1.28387096774194,1.29677419354839,1.34193548387097,1.31612903225806,1.34838709677419,1.30967741935484,1.32903225806452,1.33870967741935,1.34516129032258,1.33225806451613,1.33548387096774,1.31935483870968,1.35161290322581,1.32258064516129,1.3258064516129,1.3258064516129,1.33548387096774,1.31290322580645,1.34193548387097,1.32258064516129,1.3258064516129,1.31935483870968,1.32903225806452,1.36129032258065,1.36129032258065,1.39032258064516,1.39677419354839,1.40645161290323,1.40967741935484,1.44193548387097,1.4258064516129,1.46451612903226,1.41935483870968,1.42903225806452,1.39354838709677,1.4258064516129,1.39032258064516,1.39354838709677,1.37096774193548,1.40645161290323,1.38064516129032,1.38387096774194,1.38387096774194,1.38387096774194,1.38709677419355,1.35806451612903,1.38387096774194,1.38387096774194,1.38064516129032,1.39032258064516,1.36774193548387,1.37741935483871,1.38064516129032,1.37741935483871,1.38387096774194,1.38709677419355,1.40967741935484,1.39032258064516,1.40645161290323,1.39354838709677,1.41612903225806,1.39677419354839,1.39677419354839,1.38387096774194,1.39032258064516,1.3741935483871,1.39677419354839,1.36774193548387,1.38064516129032,1.38064516129032,1.37096774193548,1.36451612903226,1.37096774193548,1.36451612903226,1.36129032258065,1.36774193548387,1.35806451612903,1.35483870967742,1.36129032258065,1.36129032258065,1.35161290322581,1.35483870967742,1.34193548387097,1.35806451612903,1.34193548387097,1.37096774193548,1.36774193548387,1.38709677419355,1.37096774193548,1.39677419354839,1.40967741935484,1.41935483870968,1.41612903225806,1.4258064516129,1.41935483870968,1.40967741935484,1.38064516129032,1.35806451612903,1.36451612903226,1.35161290322581,1.35806451612903,1.35806451612903,1.35161290322581,1.49677419354839,1.96451612903226,2.58387096774194,2.91612903225806,2,1.11612903225806,1.10967741935484,1.22258064516129,1.30967741935484,1.32258064516129,1.3258064516129,1.33225806451613,1.3258064516129,1.33225806451613,1.32903225806452,1.33225806451613,1.31290322580645,1.32903225806452,1.33870967741935,1.32903225806452,1.32903225806452,1.31935483870968,1.32903225806452,1.31935483870968,1.33548387096774,1.31935483870968,1.34193548387097,1.31935483870968,1.35161290322581,1.33870967741935,1.34838709677419,1.34516129032258,1.38064516129032,1.37741935483871,1.39677419354839,1.40322580645161,1.41935483870968,1.4258064516129,1.44193548387097,1.43548387096774,1.41935483870968,1.42258064516129,1.41612903225806,1.40645161290323,1.39677419354839,1.38709677419355,1.38709677419355,1.39354838709677,1.38064516129032,1.39677419354839,1.36774193548387,1.38709677419355,1.36774193548387,1.39032258064516,1.35806451612903,1.39032258064516,1.35806451612903,1.39677419354839,1.3741935483871,1.38709677419355,1.37096774193548,1.37096774193548,1.38064516129032,1.3741935483871,1.37096774193548,1.38709677419355,1.37741935483871,1.38709677419355,1.38709677419355,1.4,1.38709677419355,1.38709677419355,1.39354838709677,1.39677419354839,1.39354838709677,1.3741935483871,1.38709677419355,1.36451612903226,1.37741935483871,1.36129032258065,1.37741935483871,1.35806451612903,1.3741935483871,1.34516129032258,1.38387096774194,1.34838709677419,1.35806451612903,1.35806451612903,1.37096774193548,1.35806451612903,1.36129032258065,1.37096774193548,1.3741935483871,1.3741935483871,1.36451612903226,1.36774193548387,1.37741935483871,1.39032258064516,1.38064516129032,1.4258064516129,1.38064516129032,1.43548387096774,1.4258064516129,1.45806451612903,1.42258064516129,1.39677419354839,1.37096774193548,1.36451612903226,1.35806451612903,1.35161290322581,1.33870967741935,1.37741935483871,1.34838709677419,1.38709677419355,1.66129032258065,2.22258064516129,2.77096774193548,2.57096774193548,1.40645161290323,1.03870967741935,1.16451612903226,1.26451612903226,1.31612903225806,1.31290322580645,1.31935483870968,1.31290322580645,1.32903225806452,1.31290322580645,1.3258064516129,1.29677419354839,1.34193548387097,1.33225806451613,1.31612903225806,1.31935483870968,1.31935483870968,1.33225806451613,1.33870967741935,1.31935483870968,1.33225806451613,1.35161290322581,1.34193548387097,1.35161290322581,1.35161290322581,1.36774193548387,1.34838709677419,1.39354838709677,1.38064516129032,1.40967741935484,1.40645161290323,1.42258064516129,1.43225806451613,1.46451612903226,1.44193548387097,1.44838709677419,1.42903225806452,1.4258064516129,1.41290322580645,1.40967741935484,1.41612903225806,1.41612903225806,1.38709677419355,1.39032258064516,1.36774193548387,1.39032258064516,1.37096774193548,1.3741935483871,1.37096774193548,1.38387096774194,1.37741935483871,1.36129032258065,1.36451612903226,1.38064516129032,1.36451612903226,1.36129032258065,1.38064516129032,1.37096774193548,1.35806451612903,1.37096774193548,1.39032258064516,1.34516129032258,1.3741935483871,1.34838709677419,1.38064516129032,1.35806451612903,1.36451612903226,1.3741935483871,1.3741935483871,1.34838709677419,1.37096774193548,1.36451612903226,1.35806451612903,1.35483870967742,1.36774193548387,1.36774193548387,1.34516129032258,1.36129032258065,1.3741935483871,1.34516129032258,1.37096774193548,1.39032258064516,1.3741935483871,1.37096774193548,1.34516129032258,1.38387096774194,1.38387096774194,1.40322580645161,1.38709677419355,1.4,1.38709677419355,1.45806451612903,1.43548387096774,1.42258064516129,1.40645161290323,1.40645161290323,1.39032258064516,1.35806451612903,1.36129032258065,1.36451612903226,1.35161290322581,1.36774193548387,1.35161290322581,1.43870967741935,1.85161290322581,2.44193548387097,2.87096774193548,2.15483870967742,1.09677419354839,1.06774193548387,1.18064516129032,1.26451612903226,1.34516129032258,1.31612903225806,1.33225806451613,1.32903225806452,1.35806451612903,1.32258064516129,1.36129032258065,1.33225806451613,1.35161290322581,1.32258064516129,1.34516129032258,1.33548387096774,1.34516129032258,1.34838709677419,1.32903225806452,1.35161290322581,1.34193548387097,1.34838709677419,1.33870967741935,1.36774193548387,1.34516129032258,1.38064516129032,1.36129032258065,1.4,1.38064516129032,1.42258064516129,1.40645161290323,1.43870967741935,1.43870967741935,1.44838709677419,1.41612903225806,1.43548387096774,1.4,1.41290322580645,1.39032258064516,1.39032258064516,1.38709677419355,1.38064516129032,1.38064516129032,1.3741935483871,1.38064516129032,1.37096774193548,1.38064516129032,1.36774193548387,1.3741935483871,1.35161290322581,1.3741935483871,1.35806451612903,1.39677419354839,1.35806451612903,1.38387096774194,1.35483870967742,1.38709677419355,1.38064516129032,1.38064516129032,1.35806451612903,1.39032258064516,1.38387096774194,1.39354838709677,1.3741935483871,1.38064516129032,1.38709677419355,1.38709677419355,1.37741935483871,1.36774193548387,1.38387096774194,1.36451612903226,1.36451612903226,1.37741935483871,1.36774193548387,1.35161290322581,1.37741935483871,1.36451612903226,1.38387096774194,1.35161290322581,1.3741935483871,1.36129032258065,1.38387096774194,1.35483870967742,1.36451612903226,1.36129032258065,1.38709677419355,1.35483870967742,1.36774193548387,1.35483870967742,1.36129032258065,1.36129032258065,1.3741935483871,1.38387096774194,1.40322580645161,1.40322580645161,1.41290322580645,1.45161290322581,1.43225806451613,1.45483870967742,1.4258064516129,1.42258064516129,1.39354838709677,1.39032258064516,1.36451612903226,1.37096774193548,1.35161290322581,1.36129032258065,1.36451612903226,1.40967741935484,1.63225806451613,2.18709677419355,2.76129032258065,2.74838709677419,1.59032258064516,1.05806451612903,1.15806451612903,1.29032258064516,1.3258064516129,1.32258064516129,1.33548387096774,1.31935483870968,1.33870967741935,1.31290322580645,1.32903225806452,1.32258064516129,1.33225806451613,1.31612903225806,1.33870967741935,1.30322580645161,1.33548387096774,1.31935483870968,1.33225806451613,1.31935483870968,1.34838709677419,1.33225806451613,1.34838709677419,1.34516129032258,1.35161290322581,1.34193548387097,1.35483870967742,1.37096774193548,1.37096774193548,1.39677419354839,1.39677419354839,1.4258064516129,1.43225806451613,1.44838709677419,1.43870967741935,1.45483870967742,1.41935483870968,1.4258064516129,1.39677419354839,1.40967741935484,1.38387096774194,1.4,1.37096774193548,1.38709677419355,1.38064516129032,1.38387096774194,1.37096774193548,1.38387096774194,1.36774193548387,1.37096774193548,1.36774193548387,1.36129032258065,1.36451612903226,1.38064516129032,1.37096774193548,1.34838709677419,1.37741935483871,1.35806451612903,1.37741935483871,1.35806451612903,1.36451612903226,1.35806451612903,1.36774193548387,1.34838709677419,1.37741935483871,1.35483870967742,1.38709677419355,1.35483870967742,1.37096774193548,1.36451612903226,1.38387096774194,1.36129032258065,1.37096774193548,1.34193548387097,1.37096774193548,1.34193548387097,1.34516129032258,1.35161290322581,1.35161290322581,1.34516129032258,1.34838709677419,1.36451612903226,1.33548387096774,1.34838709677419,1.34516129032258,1.35483870967742,1.33870967741935,1.36451612903226,1.33225806451613,1.36129032258065,1.34838709677419,1.35483870967742,1.34838709677419,1.36774193548387,1.37096774193548,1.39354838709677,1.38064516129032,1.40967741935484,1.41935483870968,1.41935483870968,1.44516129032258,1.43870967741935,1.43225806451613,1.39032258064516,1.37096774193548,1.38387096774194,1.37741935483871,1.37096774193548,1.3741935483871,1.37096774193548,1.44838709677419,1.6741935483871,2.22258064516129,2.69677419354839,2.55483870967742,1.3741935483871,1.0741935483871,1.16129032258065,1.31612903225806,1.36451612903226,1.35806451612903,1.34838709677419,1.35483870967742,1.35161290322581,1.36774193548387,1.35806451612903,1.33870967741935,1.33870967741935,1.36451612903226,1.35483870967742,1.35161290322581,1.34516129032258,1.34193548387097,1.37096774193548,1.34193548387097,1.35806451612903,1.33225806451613,1.35483870967742,1.35483870967742,1.37741935483871,1.34193548387097,1.37096774193548,1.37096774193548,1.40967741935484,1.37741935483871,1.41290322580645,1.39677419354839,1.43870967741935,1.44193548387097,1.43870967741935,1.43548387096774,1.43225806451613,1.41290322580645,1.38709677419355,1.41935483870968,1.39354838709677,1.39677419354839,1.38387096774194,1.38709677419355,1.36774193548387,1.38064516129032,1.37096774193548,1.37096774193548,1.36774193548387,1.38064516129032,1.34838709677419,1.35806451612903,1.34193548387097,1.34193548387097,1.39032258064516,1.3741935483871,1.37096774193548,1.36451612903226,1.34193548387097,1.37741935483871,1.37096774193548,1.38709677419355,1.37741935483871,1.36774193548387,1.37096774193548,1.38709677419355,1.38064516129032,1.36129032258065,1.36774193548387,1.35161290322581,1.37741935483871,1.35806451612903,1.37741935483871,1.34516129032258,1.38064516129032,1.36129032258065,1.3741935483871,1.34838709677419,1.3741935483871,1.35483870967742,1.38064516129032,1.35483870967742,1.35483870967742,1.39677419354839,1.35806451612903,1.37096774193548,1.36774193548387,1.37741935483871,1.38064516129032,1.4,1.38387096774194,1.39354838709677,1.40645161290323,1.44193548387097,1.43870967741935,1.44193548387097,1.44838709677419,1.44838709677419,1.41612903225806,1.40322580645161,1.36451612903226,1.39354838709677,1.36774193548387,1.36129032258065,1.3741935483871,1.38064516129032,1.42903225806452,1.7741935483871,2.42903225806452,2.86129032258065,2.39677419354839,1.19354838709677,1.06774193548387,1.18387096774194,1.3,1.3258064516129,1.34838709677419,1.32258064516129,1.3258064516129,1.33870967741935,1.33870967741935,1.31935483870968,1.3258064516129,1.31290322580645,1.34838709677419,1.31935483870968,1.33225806451613,1.30645161290323,1.33548387096774,1.31612903225806,1.33548387096774,1.3258064516129,1.33225806451613,1.33225806451613,1.32903225806452,1.33225806451613,1.33870967741935,1.36129032258065,1.35806451612903,1.38064516129032,1.37096774193548,1.39354838709677,1.39354838709677,1.42903225806452,1.41935483870968,1.44193548387097,1.40645161290323,1.41290322580645,1.38387096774194,1.39354838709677,1.38709677419355,1.41290322580645,1.37741935483871,1.38064516129032,1.3741935483871,1.38064516129032,1.37096774193548,1.38064516129032,1.35483870967742,1.37096774193548,1.36774193548387,1.36774193548387,1.35806451612903,1.35161290322581,1.37096774193548,1.36451612903226,1.38387096774194,1.37096774193548,1.39032258064516,1.37096774193548,1.38064516129032,1.37096774193548,1.4,1.38709677419355,1.39677419354839,1.37096774193548,1.40322580645161,1.3741935483871,1.39032258064516,1.3741935483871,1.39032258064516,1.38064516129032,1.3741935483871,1.37741935483871,1.37741935483871,1.3741935483871,1.38709677419355,1.3741935483871,1.36774193548387,1.36451612903226,1.37096774193548,1.38709677419355,1.36129032258065,1.39032258064516,1.35483870967742,1.37096774193548,1.35161290322581,1.38709677419355,1.35161290322581,1.38064516129032,1.35483870967742,1.37096774193548,1.36451612903226,1.38064516129032,1.3741935483871,1.39354838709677,1.38709677419355,1.41935483870968,1.40967741935484,1.43548387096774,1.43870967741935,1.43870967741935,1.44193548387097,1.41935483870968,1.41935483870968,1.38064516129032,1.36774193548387,1.34838709677419,1.38064516129032,1.34516129032258,1.38387096774194,1.33870967741935,1.52258064516129,1.93548387096774,2.59354838709677,2.84516129032258,1.99354838709677,1.12903225806452,1.13870967741935,1.24193548387097,1.3258064516129,1.32258064516129,1.31612903225806,1.31290322580645,1.33225806451613,1.31290322580645,1.3258064516129,1.31612903225806,1.31290322580645,1.32258064516129,1.32258064516129,1.33548387096774,1.30322580645161,1.31935483870968,1.31935483870968,1.32903225806452,1.3258064516129,1.3258064516129,1.33548387096774,1.35483870967742,1.3258064516129,1.35483870967742,1.34516129032258,1.35161290322581,1.33548387096774,1.36774193548387,1.36129032258065,1.40322580645161,1.40645161290323,1.41612903225806,1.41290322580645,1.40967741935484,1.39677419354839,1.40967741935484,1.38387096774194,1.37096774193548,1.40322580645161,1.3741935483871,1.39032258064516,1.36129032258065,1.38064516129032,1.3741935483871,1.38387096774194,1.34516129032258,1.37741935483871,1.36129032258065,1.37096774193548,1.36774193548387,1.39032258064516,1.3741935483871,1.36774193548387,1.37096774193548,1.38064516129032,1.36774193548387,1.38709677419355,1.3741935483871,1.37096774193548,1.35483870967742,1.37741935483871,1.39032258064516,1.38064516129032,1.38064516129032,1.35161290322581,1.38387096774194,1.39032258064516,1.39032258064516,1.38709677419355,1.39354838709677,1.36774193548387,1.39677419354839,1.37096774193548,1.39677419354839,1.36774193548387,1.38064516129032,1.38064516129032,1.3741935483871,1.36451612903226,1.38064516129032,1.37741935483871,1.3741935483871,1.39677419354839,1.3741935483871,1.39677419354839,1.38064516129032,1.39354838709677,1.37096774193548,1.42258064516129,1.40645161290323,1.42903225806452,1.40645161290323,1.47096774193548,1.43870967741935,1.4741935483871,1.44193548387097,1.43548387096774,1.4,1.40322580645161,1.35806451612903,1.37741935483871,1.36451612903226,1.35806451612903,1.38709677419355,1.35161290322581,1.57096774193548,2.06451612903226,2.61290322580645,2.75806451612903,1.64516129032258,1.03225806451613,1.16451612903226,1.20967741935484,1.33548387096774,1.31290322580645,1.34193548387097,1.32903225806452,1.33548387096774,1.33870967741935,1.35161290322581,1.34193548387097,1.33870967741935,1.33548387096774,1.33870967741935,1.32903225806452,1.34838709677419,1.3258064516129,1.30967741935484,1.35806451612903,1.31612903225806,1.32903225806452,1.34516129032258,1.34838709677419,1.31935483870968,1.36451612903226,1.35161290322581,1.33870967741935,1.36451612903226,1.38064516129032,1.3741935483871,1.41935483870968,1.41290322580645,1.43548387096774,1.42258064516129,1.41935483870968,1.40967741935484,1.41290322580645,1.39354838709677,1.39032258064516,1.38387096774194,1.39677419354839,1.36774193548387,1.39354838709677,1.39032258064516,1.37741935483871,1.38064516129032,1.38387096774194,1.37741935483871,1.37741935483871,1.36451612903226,1.3741935483871,1.37741935483871,1.35161290322581,1.38387096774194,1.36129032258065,1.39354838709677,1.36774193548387,1.38387096774194,1.36129032258065,1.40322580645161,1.37096774193548,1.38709677419355,1.38709677419355,1.40967741935484,1.38387096774194,1.38064516129032,1.36774193548387,1.37096774193548,1.36774193548387,1.39032258064516,1.3741935483871,1.36774193548387,1.36774193548387,1.3741935483871,1.36451612903226,1.36129032258065,1.37096774193548,1.34516129032258,1.36129032258065,1.34516129032258,1.36129032258065,1.35483870967742,1.36774193548387,1.33870967741935,1.36129032258065,1.35806451612903,1.35161290322581,1.33548387096774,1.36129032258065,1.36129032258065,1.38064516129032,1.37741935483871,1.38387096774194,1.39032258064516,1.43225806451613,1.43870967741935,1.42258064516129,1.41290322580645,1.41612903225806,1.41290322580645,1.36774193548387,1.36451612903226,1.34838709677419,1.36774193548387,1.33870967741935,1.3741935483871,1.34516129032258,1.58387096774194,2.07741935483871,2.68387096774194,2.79677419354839,1.70322580645161,1.03870967741935,1.13225806451613,1.24193548387097,1.30645161290323,1.30645161290323,1.3258064516129,1.32903225806452,1.31612903225806,1.33225806451613,1.32903225806452,1.31935483870968,1.3258064516129,1.33225806451613,1.32258064516129,1.34516129032258,1.31290322580645,1.32903225806452,1.30645161290323,1.32903225806452,1.30967741935484,1.33548387096774,1.31935483870968,1.32903225806452,1.31935483870968,1.35806451612903,1.34516129032258,1.35806451612903,1.36451612903226,1.37741935483871,1.38064516129032,1.41290322580645,1.41935483870968,1.44516129032258,1.43225806451613,1.43870967741935,1.43548387096774,1.4258064516129,1.41612903225806,1.40322580645161,1.40967741935484,1.38387096774194,1.40967741935484,1.38709677419355,1.41935483870968,1.38709677419355,1.40322580645161,1.38709677419355,1.4,1.38387096774194,1.40967741935484,1.38709677419355,1.4,1.4,1.39677419354839,1.38387096774194,1.39032258064516,1.39354838709677,1.38709677419355,1.39354838709677,1.39354838709677,1.41290322580645,1.39677419354839,1.41612903225806,1.40322580645161,1.40645161290323,1.4,1.41935483870968,1.39677419354839,1.41612903225806,1.39677419354839,1.41935483870968,1.39354838709677,1.41935483870968,1.39032258064516,1.42903225806452,1.39677419354839,1.41290322580645,1.39032258064516,1.40645161290323,1.39677419354839,1.40322580645161,1.41290322580645,1.40645161290323,1.4,1.40322580645161
1.41935483870968,1.39677419354839,1.3741935483871,1.37741935483871,1.38387096774194,1.38709677419355,1.39677419354839,1.37096774193548,1.38064516129032,1.39354838709677,1.3741935483871,1.39677419354839,1.38709677419355,1.4,1.37741935483871,1.42903225806452,1.38387096774194,1.43225806451613,1.43225806451613,1.4741935483871,1.43548387096774,1.46129032258065,1.4258064516129,1.41935483870968,1.39677419354839,1.38064516129032,1.37741935483871,1.37096774193548,1.36774193548387,1.39354838709677,1.37096774193548,1.44516129032258,1.80967741935484,2.43548387096774,2.87096774193548,2.3258064516129,1.16129032258065,1.10322580645161,1.19677419354839,1.30322580645161,1.35483870967742,1.3258064516129,1.34516129032258,1.32903225806452,1.36129032258065,1.33870967741935,1.35483870967742,1.34193548387097,1.35161290322581,1.34193548387097,1.36774193548387,1.33225806451613,1.35161290322581,1.34193548387097,1.34838709677419,1.34838709677419,1.34516129032258,1.36774193548387,1.34516129032258,1.36774193548387,1.36774193548387,1.38064516129032,1.37096774193548,1.38387096774194,1.39032258064516,1.40322580645161,1.40967741935484,1.43548387096774,1.4258064516129,1.47096774193548,1.4258064516129,1.4258064516129,1.4,1.41612903225806,1.38387096774194,1.4,1.38064516129032,1.38387096774194,1.38387096774194,1.38387096774194,1.37096774193548,1.3741935483871,1.3741935483871,1.37096774193548,1.37741935483871,1.36129032258065,1.37096774193548,1.36129032258065,1.36774193548387,1.36129032258065,1.37096774193548,1.35806451612903,1.37096774193548,1.3741935483871,1.39354838709677,1.37096774193548,1.38387096774194,1.38387096774194,1.39032258064516,1.35806451612903,1.4,1.37096774193548,1.38387096774194,1.37096774193548,1.3741935483871,1.37096774193548,1.37096774193548,1.36774193548387,1.35483870967742,1.36774193548387,1.36451612903226,1.37096774193548,1.36129032258065,1.36451612903226,1.34516129032258,1.37741935483871,1.35483870967742,1.36451612903226,1.35161290322581,1.36129032258065,1.33870967741935,1.36774193548387,1.35483870967742,1.35806451612903,1.35483870967742,1.39354838709677,1.3741935483871,1.40645161290323,1.39677419354839,1.42258064516129,1.42258064516129,1.42903225806452,1.42903225806452,1.40322580645161,1.39677419354839,1.35483870967742,1.36129032258065,1.33870967741935,1.36129032258065,1.34516129032258,1.36774193548387,1.39354838709677,1.69032258064516,2.26774193548387,2.84838709677419,2.6,1.43548387096774,1.03548387096774,1.18709677419355,1.27096774193548,1.30967741935484,1.31612903225806,1.30967741935484,1.31290322580645,1.31612903225806,1.31290322580645,1.30967741935484,1.31290322580645,1.3258064516129,1.31290322580645,1.28709677419355,1.31612903225806,1.30322580645161,1.31935483870968,1.30322580645161,1.32258064516129,1.30967741935484,1.32258064516129,1.30645161290323,1.3258064516129,1.31935483870968,1.34516129032258,1.3258064516129,1.34838709677419,1.35483870967742,1.38064516129032,1.38064516129032,1.39354838709677,1.4,1.41935483870968,1.42903225806452,1.40645161290323,1.4,1.4,1.39677419354839,1.39032258064516,1.38387096774194,1.36451612903226,1.38709677419355,1.3741935483871,1.39032258064516,1.35483870967742,1.38709677419355,1.3741935483871,1.38387096774194,1.36774193548387,1.38387096774194,1.35483870967742,1.37741935483871,1.35161290322581,1.37096774193548,1.36451612903226,1.35483870967742,1.35483870967742,1.35806451612903,1.35806451612903,1.36774193548387,1.36129032258065,1.34838709677419,1.38064516129032,1.34516129032258,1.37741935483871,1.34516129032258,1.36451612903226,1.34838709677419,1.38709677419355,1.35806451612903,1.37096774193548,1.34193548387097,1.35483870967742,1.33870967741935,1.36129032258065,1.35161290322581,1.37096774193548,1.35161290322581,1.3741935483871,1.34516129032258,1.36774193548387,1.36451612903226,1.36129032258065,1.36451612903226,1.36129032258065,1.3741935483871,1.35806451612903,1.3741935483871,1.39354838709677,1.41290322580645,1.38387096774194,1.44193548387097,1.45483870967742,1.47741935483871,1.45806451612903,1.45161290322581,1.41935483870968,1.43225806451613,1.38387096774194,1.41612903225806,1.38709677419355,1.39032258064516,1.39354838709677,1.40322580645161,1.38709677419355,1.53225806451613,2.01290322580645,2.55806451612903,2.81935483870968,1.86774193548387,1.05806451612903,1.16451612903226,1.27096774193548,1.34193548387097,1.35806451612903,1.37096774193548,1.37096774193548,1.34838709677419,1.37096774193548,1.36451612903226,1.4,1.37096774193548,1.37096774193548,1.35161290322581,1.35806451612903,1.36451612903226,1.36451612903226,1.35161290322581,1.36129032258065,1.38064516129032,1.35806451612903,1.37096774193548,1.36129032258065,1.37741935483871,1.35483870967742,1.38387096774194,1.39354838709677,1.42258064516129,1.39354838709677,1.43548387096774,1.42258064516129,1.46451612903226,1.45806451612903,1.47741935483871,1.45483870967742,1.44516129032258,1.42258064516129,1.4258064516129,1.43225806451613,1.44838709677419,1.40967741935484,1.40322580645161,1.40322580645161,1.39032258064516,1.37741935483871,1.38387096774194,1.3741935483871,1.36451612903226,1.35483870967742,1.35483870967742,1.35483870967742,1.33548387096774,1.33548387096774,1.34516129032258,1.33225806451613,1.34193548387097,1.33870967741935,1.33225806451613,1.37096774193548,1.32903225806452,1.34838709677419,1.34838709677419,1.35161290322581,1.32903225806452,1.33548387096774,1.35161290322581,1.34838709677419,1.33870967741935,1.33548387096774,1.35161290322581,1.32903225806452,1.32903225806452,1.33548387096774,1.34838709677419,1.34838709677419,1.34516129032258,1.32903225806452,1.35161290322581,1.33870967741935,1.35161290322581,1.32258064516129,1.35806451612903,1.3258064516129,1.36129032258065,1.35806451612903,1.37741935483871,1.36774193548387,1.38709677419355,1.38387096774194,1.42258064516129,1.41290322580645,1.41935483870968,1.42903225806452,1.40645161290323,1.4,1.36774193548387,1.35806451612903,1.35483870967742,1.34838709677419,1.34193548387097,1.33870967741935,1.33548387096774,1.49677419354839,1.96129032258065,2.57741935483871,2.8741935483871,1.95806451612903,1.03870967741935,1.09677419354839,1.18387096774194,1.3,1.30322580645161,1.33548387096774,1.30967741935484,1.31612903225806,1.31935483870968,1.33225806451613,1.31612903225806,1.34193548387097,1.3258064516129,1.32903225806452,1.31612903225806,1.31290322580645,1.33548387096774,1.31290322580645,1.33548387096774,1.31935483870968,1.33870967741935,1.31612903225806,1.35483870967742,1.33548387096774,1.35161290322581,1.34516129032258,1.36774193548387,1.36451612903226,1.39354838709677,1.39354838709677,1.40967741935484,1.40967741935484,1.43548387096774,1.45161290322581,1.44516129032258,1.41935483870968,1.42903225806452,1.40322580645161,1.40967741935484,1.39354838709677,1.4,1.40322580645161,1.39032258064516,1.39354838709677,1.39032258064516,1.39354838709677,1.38387096774194,1.4,1.37741935483871,1.39354838709677,1.37741935483871,1.4,1.3741935483871,1.4,1.37741935483871,1.39354838709677,1.39032258064516,1.39354838709677,1.4,1.40645161290323,1.39032258064516,1.4,1.4,1.40645161290323,1.40322580645161,1.38387096774194,1.38709677419355,1.37096774193548,1.39032258064516,1.38709677419355,1.39677419354839,1.3741935483871,1.39677419354839,1.3741935483871,1.38387096774194,1.36451612903226,1.39032258064516,1.35483870967742,1.37741935483871,1.34838709677419,1.37741935483871,1.3741935483871,1.37096774193548,1.35806451612903,1.38064516129032,1.3741935483871,1.37096774193548,1.36451612903226,1.37096774193548,1.36129032258065,1.38709677419355,1.39677419354839,1.39677419354839,1.42258064516129,1.41290322580645,1.43548387096774,1.43548387096774,1.45483870967742,1.4258064516129,1.43225806451613,1.38709677419355,1.38387096774194,1.36129032258065,1.36774193548387,1.34838709677419,1.36774193548387,1.34193548387097,1.40322580645161,1.64838709677419,2.24516129032258,2.78709677419355,2.61612903225806,1.48387096774194,1.05806451612903,1.18064516129032,1.28709677419355,1.31612903225806,1.31290322580645,1.31612903225806,1.31612903225806,1.33225806451613,1.30645161290323,1.33870967741935,1.31612903225806,1.30967741935484,1.30967741935484,1.3258064516129,1.30967741935484,1.31612903225806,1.29354838709677,1.31612903225806,1.31612903225806,1.33225806451613,1.30967741935484,1.31935483870968,1.30322580645161,1.33225806451613,1.33225806451613,1.32903225806452,1.34516129032258,1.34516129032258,1.35161290322581,1.37741935483871,1.3741935483871,1.40645161290323,1.41290322580645,1.41290322580645,1.42258064516129,1.40967741935484,1.39032258064516,1.37741935483871,1.39354838709677,1.38064516129032,1.41290322580645,1.38387096774194,1.38709677419355,1.37741935483871,1.38387096774194,1.38387096774194,1.4,1.38387096774194,1.37741935483871,1.38064516129032,1.39677419354839,1.38064516129032,1.3741935483871,1.4,1.39032258064516,1.37741935483871,1.39354838709677,1.38709677419355,1.37096774193548,1.39354838709677,1.37741935483871,1.39354838709677,1.3741935483871,1.38709677419355,1.37741935483871,1.40645161290323,1.3741935483871,1.39032258064516,1.37741935483871,1.39677419354839,1.38387096774194,1.38387096774194,1.36774193548387,1.35483870967742,1.38064516129032,1.3741935483871,1.35161290322581,1.38709677419355,1.36129032258065,1.34838709677419,1.36774193548387,1.35806451612903,1.3741935483871,1.35483870967742,1.38709677419355,1.37741935483871,1.43225806451613,1.38064516129032,1.41290322580645,1.4,1.4258064516129,1.45161290322581,1.45161290322581,1.41290322580645,1.40322580645161,1.34838709677419,1.33870967741935,1.34838709677419,1.36774193548387,1.35161290322581,1.37096774193548,1.43870967741935,1.7,2.29677419354839,2.7258064516129,2.50967741935484,1.26451612903226,1.04838709677419,1.16129032258065,1.2741935483871,1.30322580645161,1.31612903225806,1.3258064516129,1.33548387096774,1.33870967741935,1.35483870967742,1.34516129032258,1.33548387096774,1.31612903225806,1.34838709677419,1.3258064516129,1.32903225806452,1.34838709677419,1.33870967741935,1.33225806451613,1.32903225806452,1.33870967741935,1.33870967741935,1.34193548387097,1.30645161290323,1.34193548387097,1.35161290322581,1.35806451612903,1.36451612903226,1.38387096774194,1.38387096774194,1.41612903225806,1.40645161290323,1.43870967741935,1.43225806451613,1.44193548387097,1.41935483870968,1.4258064516129,1.39032258064516,1.39677419354839,1.39677419354839,1.37741935483871,1.38709677419355,1.37741935483871,1.38387096774194,1.37096774193548,1.38064516129032,1.37096774193548,1.3741935483871,1.35161290322581,1.36774193548387,1.38387096774194,1.36451612903226,1.36451612903226,1.4,1.34838709677419,1.40645161290323,1.36129032258065,1.39677419354839,1.38064516129032,1.38387096774194,1.36774193548387,1.4,1.38387096774194,1.41290322580645,1.3741935483871,1.38709677419355,1.38387096774194,1.38064516129032,1.36774193548387,1.38064516129032,1.3741935483871,1.36129032258065,1.38064516129032,1.35483870967742,1.36129032258065,1.35161290322581,1.35806451612903,1.34516129032258,1.35161290322581,1.35161290322581,1.35483870967742,1.33870967741935,1.36774193548387,1.33225806451613,1.37096774193548,1.35483870967742,1.38064516129032,1.37741935483871,1.42258064516129,1.39354838709677,1.43225806451613,1.43225806451613,1.43225806451613,1.45806451612903,1.43225806451613,1.42903225806452,1.38387096774194,1.38387096774194,1.36129032258065,1.36129032258065,1.34838709677419,1.38387096774194,1.33548387096774,1.46451612903226,1.85161290322581,2.53225806451613,2.91612903225806,2.19032258064516,1.10322580645161,1.07741935483871,1.20322580645161,1.3,1.30645161290323,1.31935483870968,1.31612903225806,1.33870967741935,1.31935483870968,1.32903225806452,1.33225806451613,1.3258064516129,1.33870967741935,1.3258064516129,1.31935483870968,1.30322580645161,1.33225806451613,1.30967741935484,1.33225806451613,1.31290322580645,1.33870967741935,1.32258064516129,1.35161290322581,1.32258064516129,1.35161290322581,1.33870967741935,1.36774193548387,1.36129032258065,1.38387096774194,1.40322580645161,1.41290322580645,1.41290322580645,1.42903225806452,1.42903225806452,1.43870967741935,1.41935483870968,1.41290322580645,1.41612903225806,1.39354838709677,1.39354838709677,1.3741935483871,1.38709677419355,1.38064516129032,1.39354838709677,1.37741935483871,1.38709677419355,1.3741935483871,1.38709677419355,1.36129032258065,1.39032258064516,1.3741935483871,1.39032258064516,1.37096774193548,1.39032258064516,1.3741935483871,1.39677419354839,1.37741935483871,1.39677419354839,1.39354838709677,1.38709677419355,1.38064516129032,1.39354838709677,1.39677419354839,1.38064516129032,1.38709677419355,1.38387096774194,1.38709677419355,1.37741935483871,1.38387096774194,1.38709677419355,1.39032258064516,1.36129032258065,1.39354838709677,1.36451612903226,1.37096774193548,1.34838709677419,1.36129032258065,1.35161290322581,1.37096774193548,1.34838709677419,1.36451612903226,1.35161290322581,1.37741935483871,1.35806451612903,1.33870967741935,1.36451612903226,1.35483870967742,1.35806451612903,1.36774193548387,1.38387096774194,1.39354838709677,1.4,1.38709677419355,1.43870967741935,1.4258064516129,1.43870967741935,1.41290322580645,1.43225806451613,1.39677419354839,1.38709677419355,1.35161290322581,1.36451612903226,1.34193548387097,1.35806451612903,1.35806451612903,1.36774193548387,1.57741935483871,2.09354838709677,2.72903225806452,2.79677419354839,1.74193548387097,1.05806451612903,1.16129032258065,1.25806451612903,1.31290322580645,1.31290322580645,1.30967741935484,1.3,1.32903225806452,1.29677419354839,1.33225806451613,1.29032258064516,1.29354838709677,1.30322580645161,1.31612903225806,1.28387096774194,1.33225806451613,1.28709677419355,1.31290322580645,1.31290322580645,1.31612903225806,1.3258064516129,1.32258064516129,1.32903225806452,1.33548387096774,1.34838709677419,1.34516129032258,1.36774193548387,1.35161290322581,1.39032258064516,1.38387096774194,1.42258064516129,1.40645161290323,1.45806451612903,1.43225806451613,1.44516129032258,1.43548387096774,1.41612903225806,1.40322580645161,1.40322580645161,1.39677419354839,1.38387096774194,1.39032258064516,1.39354838709677,1.37741935483871,1.38709677419355,1.39032258064516,1.38387096774194,1.40645161290323,1.37741935483871,1.4,1.39032258064516,1.39677419354839,1.4,1.38064516129032,1.37741935483871,1.40645161290323,1.36774193548387,1.3741935483871,1.35483870967742,1.37741935483871,1.36451612903226,1.38387096774194,1.38709677419355,1.38064516129032,1.36451612903226,1.39354838709677,1.36774193548387,1.37741935483871,1.37741935483871,1.38709677419355,1.36129032258065,1.36774193548387,1.36129032258065,1.35483870967742,1.33225806451613,1.34516129032258,1.34838709677419,1.34516129032258,1.36451612903226,1.34193548387097,1.35161290322581,1.34516129032258,1.36129032258065,1.38064516129032,1.37096774193548,1.3741935483871,1.40645161290323,1.41290322580645,1.43870967741935,1.40322580645161,1.42258064516129,1.34838709677419,1.38064516129032,1.33870967741935,1.35806451612903,1.36451612903226,1.35483870967742,1.38064516129032,1.3741935483871,1.58064516129032,2.07741935483871,2.67096774193548,2.79677419354839,1.6741935483871,0.993548387096774,1.14193548387097,1.20967741935484,1.31935483870968,1.3,1.33870967741935,1.30967741935484,1.31935483870968,1.34516129032258,1.3258064516129,1.31612903225806,1.34838709677419,1.32258064516129,1.33548387096774,1.3258064516129,1.34193548387097,1.33548387096774,1.32903225806452,1.32903225806452,1.33870967741935,1.34516129032258,1.34193548387097,1.34516129032258,1.33225806451613,1.35806451612903,1.34516129032258,1.38709677419355,1.36774193548387,1.39354838709677,1.41290322580645,1.42903225806452,1.42903225806452,1.44516129032258,1.43225806451613,1.43870967741935,1.39677419354839,1.40322580645161,1.39677419354839,1.40322580645161,1.39032258064516,1.39354838709677,1.40645161290323,1.39677419354839,1.38709677419355,1.4,1.4,1.39032258064516,1.38387096774194,1.38387096774194,1.39354838709677,1.3741935483871,1.40322580645161,1.37096774193548,1.39677419354839,1.38064516129032,1.40322580645161,1.39677419354839,1.41290322580645,1.39677419354839,1.40967741935484,1.39354838709677,1.40645161290323,1.40645161290323,1.41612903225806,1.38387096774194,1.38387096774194,1.38387096774194,1.38064516129032,1.38064516129032,1.37741935483871,1.37096774193548,1.36129032258065,1.36451612903226,1.37096774193548,1.3741935483871,1.35806451612903,1.36774193548387,1.35806451612903,1.36451612903226,1.35483870967742,1.36129032258065,1.35806451612903,1.3741935483871,1.35806451612903,1.37096774193548,1.34838709677419,1.37096774193548,1.36451612903226,1.39032258064516,1.38709677419355,1.40967741935484,1.39677419354839,1.41935483870968,1.41935483870968,1.42903225806452,1.4258064516129,1.40645161290323,1.39354838709677,1.36451612903226,1.36129032258065,1.33870967741935,1.34516129032258,1.34193548387097,1.35161290322581,1.38709677419355,1.70967741935484,2.30967741935484,2.89032258064516,2.65483870967742,1.45806451612903,1.03548387096774,1.19032258064516,1.26451612903226,1.31290322580645,1.30322580645161,1.30645161290323,1.30645161290323,1.31290322580645,1.30322580645161,1.30645161290323,1.30322580645161,1.3,1.31612903225806,1.29677419354839,1.3,1.29677419354839,1.30645161290323,1.30645161290323,1.31612903225806,1.28387096774194,1.31935483870968,1.30645161290323,1.32903225806452,1.30967741935484,1.34516129032258,1.31612903225806,1.35806451612903,1.36451612903226,1.38709677419355,1.39354838709677,1.40967741935484,1.40322580645161,1.43225806451613,1.43870967741935,1.42258064516129,1.41612903225806,1.38387096774194,1.40322580645161,1.38709677419355,1.4,1.38064516129032,1.39354838709677,1.36129032258065,1.40322580645161,1.3741935483871,1.38709677419355,1.36129032258065,1.39032258064516,1.35806451612903,1.38064516129032,1.36774193548387,1.38064516129032,1.37096774193548,1.36129032258065,1.36774193548387,1.36451612903226,1.35806451612903,1.36129032258065,1.36451612903226,1.35483870967742,1.38064516129032,1.35161290322581,1.36774193548387,1.32903225806452,1.36451612903226,1.35161290322581,1.36129032258065,1.34838709677419,1.38064516129032,1.34193548387097,1.36451612903226,1.34516129032258,1.35161290322581,1.35483870967742,1.38387096774194,1.35806451612903,1.36129032258065,1.35483870967742,1.35483870967742,1.36451612903226,1.35483870967742,1.37741935483871,1.36451612903226,1.36129032258065,1.35806451612903,1.35483870967742,1.37741935483871,1.39032258064516,1.39677419354839,1.41290322580645,1.41612903225806,1.45806451612903,1.43548387096774,1.45161290322581,1.45161290322581,1.43548387096774,1.39032258064516,1.39032258064516,1.36451612903226,1.38064516129032,1.38064516129032,1.36129032258065,1.39354838709677,1.45483870967742,1.78064516129032,2.4,2.85483870967742,2.43225806451613,1.30322580645161,1.10967741935484,1.23870967741935,1.30322580645161,1.35483870967742,1.33225806451613,1.34838709677419,1.35161290322581,1.3741935483871,1.33225806451613,1.36774193548387,1.35483870967742,1.38064516129032,1.35161290322581,1.37096774193548,1.34516129032258,1.3741935483871,1.35161290322581,1.36451612903226,1.36129032258065,1.35806451612903,1.37096774193548,1.39032258064516,1.39032258064516,1.38064516129032,1.36774193548387,1.40322580645161,1.38064516129032,1.40322580645161,1.40322580645161,1.39677419354839,1.43548387096774,1.42258064516129,1.45161290322581,1.42903225806452,1.42903225806452,1.38709677419355,1.40322580645161,1.38064516129032,1.38709677419355,1.3741935483871,1.36129032258065,1.35806451612903,1.36129032258065,1.3258064516129,1.36774193548387,1.33548387096774,1.36451612903226,1.34193548387097,1.34838709677419,1.33548387096774,1.33870967741935,1.34838709677419,1.32903225806452,1.33548387096774,1.31935483870968,1.34838709677419,1.31612903225806,1.35483870967742,1.34838709677419,1.36451612903226,1.36129032258065,1.35806451612903,1.35483870967742,1.38064516129032,1.34516129032258,1.37096774193548,1.36129032258065,1.36774193548387,1.36451612903226,1.3741935483871,1.33225806451613,1.34193548387097,1.35806451612903,1.35806451612903,1.36129032258065,1.35161290322581,1.33548387096774,1.35806451612903,1.35806451612903,1.31935483870968,1.34838709677419,1.35483870967742,1.37741935483871,1.34193548387097,1.38709677419355,1.38064516129032,1.40967741935484,1.40322580645161,1.41290322580645,1.39354838709677,1.38387096774194,1.36451612903226,1.35806451612903,1.33548387096774,1.35161290322581,1.34516129032258,1.34193548387097,1.34516129032258,1.44193548387097,1.85483870967742,2.44838709677419,2.86451612903226,2.14516129032258,1.10322580645161,1.05483870967742,1.20322580645161,1.28709677419355,1.34516129032258,1.30645161290323,1.34193548387097,1.32903225806452,1.35161290322581,1.32258064516129,1.33548387096774,1.3258064516129,1.34838709677419,1.33548387096774,1.35483870967742,1.34516129032258,1.33548387096774,1.32903225806452,1.33548387096774,1.32903225806452,1.35483870967742,1.35161290322581
1.34516129032258,1.34193548387097,1.34193548387097,1.33548387096774,1.33870967741935,1.34516129032258,1.33225806451613,1.35161290322581,1.33548387096774,1.34838709677419,1.33548387096774,1.35161290322581,1.32903225806452,1.34516129032258,1.33225806451613,1.35161290322581,1.35483870967742,1.38709677419355,1.36774193548387,1.38387096774194,1.40645161290323,1.42258064516129,1.41935483870968,1.42258064516129,1.41612903225806,1.39677419354839,1.36774193548387,1.34193548387097,1.34193548387097,1.34193548387097,1.34193548387097,1.34193548387097,1.32903225806452,1.43870967741935,1.88709677419355,2.51612903225806,2.91290322580645,2.05161290322581,1.09677419354839,1.0741935483871,1.20645161290323,1.28387096774194,1.31612903225806,1.30967741935484,1.31935483870968,1.30967741935484,1.3258064516129,1.31290322580645,1.32903225806452,1.32258064516129,1.31935483870968,1.31935483870968,1.31612903225806,1.32258064516129,1.31935483870968,1.32258064516129,1.30967741935484,1.3258064516129,1.31935483870968,1.33225806451613,1.31935483870968,1.3258064516129,1.3258064516129,1.35161290322581,1.34193548387097,1.37741935483871,1.37096774193548,1.40322580645161,1.40645161290323,1.42903225806452,1.43548387096774,1.44838709677419,1.43870967741935,1.43548387096774,1.41290322580645,1.40967741935484,1.40967741935484,1.40322580645161,1.39354838709677,1.39032258064516,1.39032258064516,1.39354838709677,1.39677419354839,1.39032258064516,1.39354838709677,1.38709677419355,1.39032258064516,1.36774193548387,1.39032258064516,1.3741935483871,1.39032258064516,1.36451612903226,1.37741935483871,1.37096774193548,1.39032258064516,1.36129032258065,1.37741935483871,1.37096774193548,1.38064516129032,1.36774193548387,1.37096774193548,1.38064516129032,1.36129032258065,1.3741935483871,1.38387096774194,1.3741935483871,1.37096774193548,1.37741935483871,1.36451612903226,1.38387096774194,1.36451612903226,1.37096774193548,1.35161290322581,1.3741935483871,1.36129032258065,1.36774193548387,1.35483870967742,1.3741935483871,1.36451612903226,1.38064516129032,1.37741935483871,1.39354838709677,1.38709677419355,1.38387096774194,1.42258064516129,1.44193548387097,1.43870967741935,1.43870967741935,1.41612903225806,1.40967741935484,1.3741935483871,1.34838709677419,1.35483870967742,1.35483870967742,1.36129032258065,1.36774193548387,1.35161290322581,1.4258064516129,1.80645161290323,2.40322580645161,2.9,2.34516129032258,1.14516129032258,1.04516129032258,1.15161290322581,1.27741935483871,1.33548387096774,1.32258064516129,1.3258064516129,1.31612903225806,1.31935483870968,1.31612903225806,1.32258064516129,1.3258064516129,1.32258064516129,1.31935483870968,1.31290322580645,1.30322580645161,1.30645161290323,1.31935483870968,1.31290322580645,1.3258064516129,1.30322580645161,1.31935483870968,1.30322580645161,1.34193548387097,1.34193548387097,1.35806451612903,1.33870967741935,1.36774193548387,1.38387096774194,1.41290322580645,1.40967741935484,1.44193548387097,1.43870967741935,1.44516129032258,1.43870967741935,1.43225806451613,1.41290322580645,1.40322580645161,1.40967741935484,1.39677419354839,1.39032258064516,1.39354838709677,1.3741935483871,1.38064516129032,1.40322580645161,1.37741935483871,1.38387096774194,1.35806451612903,1.37741935483871,1.35161290322581,1.36774193548387,1.37096774193548,1.37741935483871,1.36774193548387,1.38709677419355,1.37096774193548,1.37096774193548,1.38064516129032,1.3741935483871,1.40322580645161,1.37741935483871,1.38387096774194,1.38387096774194,1.39354838709677,1.3741935483871,1.38064516129032,1.36451612903226,1.38387096774194,1.36774193548387,1.38064516129032,1.35483870967742,1.36774193548387,1.35483870967742,1.36774193548387,1.34838709677419,1.36774193548387,1.34838709677419,1.35806451612903,1.35483870967742,1.35483870967742,1.35483870967742,1.38064516129032,1.38064516129032,1.38709677419355,1.4,1.38709677419355,1.4258064516129,1.43548387096774,1.43225806451613,1.4258064516129,1.42258064516129,1.39032258064516,1.37096774193548,1.34516129032258,1.36774193548387,1.34516129032258,1.35806451612903,1.35806451612903,1.36451612903226,1.58709677419355,2.19032258064516,2.84193548387097,2.93548387096774,1.65161290322581,1.00322580645161,1.11612903225806,1.2258064516129,1.29032258064516,1.30645161290323,1.30967741935484,1.30645161290323,1.30967741935484,1.30645161290323,1.32258064516129,1.30967741935484,1.32258064516129,1.30645161290323,1.32258064516129,1.30967741935484,1.3258064516129,1.30322580645161,1.31935483870968,1.30967741935484,1.33548387096774,1.31612903225806,1.32903225806452,1.31935483870968,1.34838709677419,1.34193548387097,1.36451612903226,1.36774193548387,1.38709677419355,1.39677419354839,1.41935483870968,1.43225806451613,1.45161290322581,1.47096774193548,1.46129032258065,1.46129032258065,1.43225806451613,1.43225806451613,1.40967741935484,1.41935483870968,1.39677419354839,1.40967741935484,1.38709677419355,1.4,1.37741935483871,1.38709677419355,1.37741935483871,1.39032258064516,1.36774193548387,1.3741935483871,1.3741935483871,1.38064516129032,1.37741935483871,1.3741935483871,1.3741935483871,1.36774193548387,1.37096774193548,1.37096774193548,1.36774193548387,1.3741935483871,1.37096774193548,1.36451612903226,1.37096774193548,1.35806451612903,1.3741935483871,1.35806451612903,1.38064516129032,1.36129032258065,1.3741935483871,1.36129032258065,1.37096774193548,1.34838709677419,1.36451612903226,1.35161290322581,1.36451612903226,1.35161290322581,1.35483870967742,1.35161290322581,1.35161290322581,1.34516129032258,1.35161290322581,1.35161290322581,1.35161290322581,1.35161290322581,1.34838709677419,1.35483870967742,1.35483870967742,1.3741935483871,1.36774193548387,1.38387096774194,1.36451612903226,1.39354838709677,1.37741935483871,1.39677419354839,1.38709677419355,1.40322580645161,1.3741935483871,1.36129032258065,1.33870967741935,1.35161290322581,1.34193548387097,1.34516129032258,1.34193548387097,1.39032258064516,1.65483870967742,2.27096774193548,2.9,2.79032258064516,1.52903225806452,1.03548387096774,1.16774193548387,1.26129032258065,1.31612903225806,1.30967741935484,1.3258064516129,1.30967741935484,1.3258064516129,1.31612903225806,1.3258064516129,1.31290322580645,1.3258064516129,1.31290322580645,1.32903225806452,1.30967741935484,1.31935483870968,1.31290322580645,1.31612903225806,1.30967741935484,1.31935483870968,1.31612903225806,1.31935483870968,1.32903225806452,1.33225806451613,1.34193548387097,1.34838709677419,1.36129032258065,1.36774193548387,1.39032258064516,1.39677419354839,1.4258064516129,1.42258064516129,1.45161290322581,1.44516129032258,1.44516129032258,1.42258064516129,1.42903225806452,1.40645161290323,1.40967741935484,1.4,1.40645161290323,1.39677419354839,1.39677419354839,1.38709677419355,1.39032258064516,1.38387096774194,1.38709677419355,1.38387096774194,1.38064516129032,1.38709677419355,1.38064516129032,1.38709677419355,1.37741935483871,1.38709677419355,1.3741935483871,1.38709677419355,1.37096774193548,1.38709677419355,1.37096774193548,1.38387096774194,1.36451612903226,1.38064516129032,1.36451612903226,1.38064516129032,1.36451612903226,1.38387096774194,1.37096774193548,1.37741935483871,1.36774193548387,1.37096774193548,1.37096774193548,1.37096774193548,1.36774193548387,1.36774193548387,1.36774193548387,1.36129032258065,1.36774193548387,1.35483870967742,1.3741935483871,1.36129032258065,1.37741935483871,1.36451612903226,1.38064516129032,1.36451612903226,1.38064516129032,1.35806451612903,1.38064516129032,1.37096774193548,1.39677419354839,1.40322580645161,1.41612903225806,1.40645161290323,1.44516129032258,1.44516129032258,1.44193548387097,1.43870967741935,1.43548387096774,1.39677419354839,1.37741935483871,1.3741935483871,1.35806451612903,1.36774193548387,1.35483870967742,1.37741935483871,1.34516129032258,1.56451612903226,2.04516129032258,2.71290322580645,2.89032258064516,1.79677419354839,1.05806451612903,1.13870967741935,1.23548387096774,1.32258064516129,1.31612903225806,1.32903225806452,1.32258064516129,1.33225806451613,1.33225806451613,1.33548387096774,1.32903225806452,1.33548387096774,1.3258064516129,1.32258064516129,1.32903225806452,1.31935483870968,1.3258064516129,1.31612903225806,1.33225806451613,1.31290322580645,1.33225806451613,1.31612903225806,1.33870967741935,1.3258064516129,1.34838709677419,1.34193548387097,1.36451612903226,1.36129032258065,1.38709677419355,1.39354838709677,1.41612903225806,1.41612903225806,1.44516129032258,1.44193548387097,1.44193548387097,1.43225806451613,1.41612903225806,1.41612903225806,1.40967741935484,1.40967741935484,1.39677419354839,1.40645161290323,1.39354838709677,1.38064516129032,1.39032258064516,1.4,1.38064516129032,1.39354838709677,1.38064516129032,1.38387096774194,1.37096774193548,1.38064516129032,1.37096774193548,1.37096774193548,1.36774193548387,1.3741935483871,1.36129032258065,1.38387096774194,1.3741935483871,1.37096774193548,1.35806451612903,1.36129032258065,1.36774193548387,1.36451612903226,1.36774193548387,1.36774193548387,1.36774193548387,1.35806451612903,1.3741935483871,1.36451612903226,1.3741935483871,1.35806451612903,1.36774193548387,1.35483870967742,1.35806451612903,1.34516129032258,1.36451612903226,1.35161290322581,1.36129032258065,1.36129032258065,1.36451612903226,1.34838709677419,1.36774193548387,1.34838709677419,1.34838709677419,1.36451612903226,1.34193548387097,1.36129032258065,1.36129032258065,1.37741935483871,1.38064516129032,1.38064516129032,1.3741935483871,1.38709677419355,1.40322580645161,1.39677419354839,1.39677419354839,1.40967741935484,1.38387096774194,1.36451612903226,1.35483870967742,1.35806451612903,1.32903225806452,1.35483870967742,1.34516129032258,1.34193548387097,1.4,1.74516129032258,2.3741935483871,2.85806451612903,2.40967741935484,1.18709677419355,1.02258064516129,1.14838709677419,1.27096774193548,1.3,1.30967741935484,1.30645161290323,1.3258064516129,1.30645161290323,1.3258064516129,1.30967741935484,1.33225806451613,1.30322580645161,1.3258064516129,1.30645161290323,1.3258064516129,1.30322580645161,1.31612903225806,1.30645161290323,1.31935483870968,1.30645161290323,1.31935483870968,1.31935483870968,1.3258064516129,1.32903225806452,1.33870967741935,1.35161290322581,1.35806451612903,1.37741935483871,1.3741935483871,1.41290322580645,1.41612903225806,1.42903225806452,1.43548387096774,1.44193548387097,1.4258064516129,1.43225806451613,1.4,1.41612903225806,1.39677419354839,1.40645161290323,1.38709677419355,1.4,1.38064516129032,1.38709677419355,1.38064516129032,1.37741935483871,1.37096774193548,1.37096774193548,1.36451612903226,1.36774193548387,1.37096774193548,1.36129032258065,1.37096774193548,1.36774193548387,1.38064516129032,1.36774193548387,1.37096774193548,1.34516129032258,1.36774193548387,1.34193548387097,1.34516129032258,1.35161290322581,1.39677419354839,1.39677419354839,1.41935483870968,1.39677419354839,1.4,1.37741935483871,1.38387096774194,1.3741935483871,1.38064516129032,1.3741935483871,1.38709677419355,1.72258064516129,2.42258064516129,2.98709677419355,2.67096774193548,1.3258064516129,1.04193548387097,1.19677419354839,1.29354838709677,1.33870967741935,1.3258064516129,1.34838709677419,1.33548387096774,1.35161290322581,1.33225806451613,1.35161290322581,1.33870967741935,1.34838709677419,1.32903225806452,1.34193548387097,1.33548387096774,1.34838709677419,1.33548387096774,1.33548387096774,1.33225806451613,1.34193548387097,1.33870967741935,1.33548387096774,1.33870967741935,1.34838709677419,1.35806451612903,1.35806451612903,1.37096774193548,1.38387096774194,1.4,1.39677419354839,1.42258064516129,1.4258064516129,1.43548387096774,1.41290322580645,1.41290322580645,1.38709677419355,1.40645161290323,1.39354838709677,1.4,1.38709677419355,1.39032258064516,1.3741935483871,1.38387096774194,1.38064516129032,1.38387096774194,1.3741935483871,1.37741935483871,1.38064516129032,1.37096774193548,1.37741935483871,1.36451612903226,1.38064516129032,1.36451612903226,1.38064516129032,1.36129032258065,1.38064516129032,1.36774193548387,1.38064516129032,1.36774193548387,1.38387096774194,1.37096774193548,1.38709677419355,1.3741935483871,1.39032258064516,1.3741935483871,1.38064516129032,1.37096774193548,1.37741935483871,1.37096774193548,1.36774193548387,1.37096774193548,1.37096774193548,1.37096774193548,1.36451612903226,1.37096774193548,1.36774193548387,1.3741935483871,1.36129032258065,1.3741935483871,1.36129032258065,1.37741935483871,1.35806451612903,1.38064516129032,1.36451612903226,1.38064516129032,1.36774193548387,1.3741935483871,1.3741935483871,1.38064516129032,1.36451612903226,1.3741935483871,1.36774193548387,1.3741935483871,1.37741935483871,1.37741935483871,1.36774193548387,1.37096774193548,1.37741935483871,1.37096774193548,1.38064516129032,1.36774193548387,1.38387096774194,1.36774193548387,1.37741935483871,1.36451612903226,1.38064516129032,1.36129032258065,1.38387096774194,1.35483870967742,1.38387096774194,1.36129032258065,1.38064516129032,1.36451612903226,1.38387096774194,1.36774193548387,1.37741935483871,1.36451612903226,1.38387096774194,1.39354838709677,1.4,1.4,1.39677419354839,1.43548387096774,1.43548387096774,1.4258064516129,1.40967741935484,1.4258064516129,1.39354838709677,1.39032258064516,1.35806451612903,1.38064516129032,1.35806451612903,1.38709677419355,1.34838709677419,1.56774193548387,2.03870967741935,2.70322580645161,2.94516129032258,1.89677419354839,1.08709677419355,1.13225806451613,1.24516129032258,1.32258064516129,1.31935483870968,1.32258064516129,1.32903225806452,1.32903225806452,1.33225806451613,1.32258064516129,1.33548387096774,1.31935483870968,1.32903225806452,1.31935483870968,1.33225806451613,1.31612903225806,1.32903225806452,1.31290322580645,1.31935483870968,1.32258064516129,1.33548387096774,1.32258064516129,1.34193548387097,1.33548387096774,1.35483870967742,1.34838709677419,1.36129032258065,1.37741935483871,1.38709677419355,1.38709677419355,1.4,1.42258064516129,1.4258064516129,1.43548387096774,1.4258064516129,1.42903225806452,1.40967741935484,1.40645161290323,1.40322580645161,1.40322580645161,1.38387096774194,1.4,1.38387096774194,1.41290322580645,1.38709677419355,1.4,1.38709677419355,1.39354838709677,1.38709677419355,1.39032258064516,1.38064516129032,1.39354838709677,1.39032258064516,1.39354838709677,1.39677419354839,1.39354838709677,1.39354838709677,1.39677419354839,1.40322580645161,1.38709677419355,1.40645161290323,1.40322580645161,1.40645161290323,1.39032258064516,1.40322580645161,1.38709677419355,1.4,1.37741935483871,1.38387096774194,1.37096774193548,1.40322580645161,1.37096774193548,1.36774193548387,1.36451612903226,1.38387096774194,1.36129032258065,1.36451612903226,1.36129032258065,1.36129032258065,1.36451612903226,1.36774193548387,1.37096774193548,1.34838709677419,1.36774193548387,1.36774193548387,1.36774193548387,1.36129032258065,1.35483870967742,1.34193548387097,1.3741935483871,1.36129032258065,1.36774193548387,1.34516129032258,1.37096774193548,1.34838709677419,1.37741935483871,1.36451612903226,1.38709677419355,1.38709677419355,1.39354838709677,1.40967741935484,1.44516129032258,1.43870967741935,1.42258064516129,1.4258064516129,1.4,1.36774193548387,1.37741935483871,1.34516129032258,1.35483870967742,1.35483870967742,1.35483870967742,1.33225806451613,1.44838709677419,1.96451612903226,2.54193548387097,2.94193548387097,2.04193548387097,1.04516129032258,1.04838709677419,1.19032258064516,1.29032258064516,1.31290322580645,1.3,1.32258064516129,1.32903225806452,1.31935483870968,1.32258064516129,1.32903225806452,1.31612903225806,1.30967741935484,1.30967741935484,1.3258064516129,1.32258064516129,1.31612903225806,1.32258064516129,1.3258064516129,1.32903225806452,1.31290322580645,1.32903225806452,1.32258064516129,1.34838709677419,1.32903225806452,1.36129032258065,1.36129032258065,1.38064516129032,1.37096774193548,1.40645161290323,1.40967741935484,1.43225806451613,1.42903225806452,1.44838709677419,1.44516129032258,1.43548387096774,1.42258064516129,1.40967741935484,1.40322580645161,1.4,1.40645161290323,1.39354838709677,1.4,1.39032258064516,1.39677419354839,1.3741935483871,1.38387096774194,1.37096774193548,1.38064516129032,1.36129032258065,1.3741935483871,1.36451612903226,1.38064516129032,1.37096774193548,1.38709677419355,1.38387096774194,1.39354838709677,1.38064516129032,1.39677419354839,1.38709677419355,1.39354838709677,1.39677419354839,1.38709677419355,1.39677419354839,1.39032258064516,1.39032258064516,1.37741935483871,1.38064516129032,1.37741935483871,1.38709677419355,1.37096774193548,1.38387096774194,1.36774193548387,1.38387096774194,1.35483870967742,1.3741935483871,1.35806451612903,1.3741935483871,1.35161290322581,1.36774193548387,1.35806451612903,1.37096774193548,1.35806451612903,1.37096774193548,1.36129032258065,1.36451612903226,1.36129032258065,1.36129032258065,1.36774193548387,1.36129032258065,1.36774193548387,1.35806451612903,1.3741935483871,1.36129032258065,1.38064516129032,1.3741935483871,1.40645161290323,1.38709677419355,1.41612903225806,1.40322580645161,1.43870967741935,1.43548387096774,1.45161290322581,1.43225806451613,1.43225806451613,1.38709677419355,1.37741935483871,1.36451612903226,1.37096774193548,1.35806451612903,1.36129032258065,1.35806451612903,1.40967741935484,1.73225806451613,2.39032258064516,2.94193548387097,2.63225806451613,1.35161290322581,1.0258064516129,1.17096774193548,1.26774193548387,1.32903225806452,1.31290322580645,1.33225806451613,1.31612903225806,1.33548387096774,1.3258064516129,1.33870967741935,1.32258064516129,1.33225806451613,1.32258064516129,1.32258064516129,1.3258064516129,1.3258064516129,1.31935483870968,1.3258064516129,1.31612903225806,1.32258064516129,1.32903225806452,1.31612903225806,1.33225806451613,1.32903225806452,1.35161290322581,1.34838709677419,1.37096774193548,1.37096774193548,1.4,1.39032258064516,1.42258064516129,1.42258064516129,1.44838709677419,1.43870967741935,1.44838709677419,1.41935483870968,1.41935483870968,1.39677419354839,1.40645161290323,1.39032258064516,1.39354838709677,1.38387096774194,1.38709677419355,1.38064516129032,1.37741935483871,1.37741935483871,1.3741935483871,1.38387096774194,1.36774193548387,1.38064516129032,1.36774193548387,1.37741935483871,1.36774193548387,1.39032258064516,1.36774193548387,1.38709677419355,1.36774193548387,1.38387096774194,1.36774193548387,1.38387096774194,1.37096774193548,1.37741935483871,1.37096774193548,1.37741935483871,1.3741935483871,1.38387096774194,1.3741935483871,1.3741935483871,1.37741935483871,1.36774193548387,1.36451612903226,1.36129032258065,1.36774193548387,1.35483870967742,1.36451612903226,1.34838709677419,1.36129032258065,1.34838709677419,1.36774193548387,1.34516129032258,1.35806451612903,1.34193548387097,1.35806451612903,1.34838709677419,1.36129032258065,1.34516129032258,1.36451612903226,1.35161290322581,1.36129032258065,1.36129032258065,1.36129032258065,1.35483870967742,1.35806451612903,1.35806451612903,1.36129032258065,1.36451612903226,1.38064516129032,1.39677419354839,1.39032258064516,1.40967741935484,1.40967741935484,1.44516129032258,1.43225806451613,1.45161290322581,1.4258064516129,1.42903225806452,1.38387096774194,1.37741935483871,1.35806451612903,1.37741935483871,1.35161290322581,1.3741935483871,1.33548387096774,1.45806451612903,1.8741935483871,2.54516129032258,2.94193548387097,2.2,1.16129032258065,1.08064516129032,1.20645161290323,1.3,1.32258064516129,1.31935483870968,1.3258064516129,1.31612903225806,1.33225806451613,1.31290322580645,1.33548387096774,1.31612903225806,1.3258064516129,1.31290322580645,1.33225806451613,1.31612903225806,1.32903225806452,1.31935483870968,1.32258064516129,1.30645161290323,1.32258064516129,1.3258064516129,1.32258064516129,1.31935483870968,1.32903225806452,1.33870967741935,1.35483870967742,1.36129032258065,1.37741935483871,1.4,1.40322580645161,1.42258064516129,1.4258064516129,1.45806451612903,1.43225806451613,1.45161290322581,1.43225806451613,1.44193548387097,1.40322580645161,1.40967741935484,1.39677419354839,1.41290322580645,1.39677419354839,1.41290322580645,1.38064516129032,1.39677419354839,1.4,1.40645161290323,1.4,1.40322580645161,1.39032258064516,1.38709677419355,1.4,1.39677419354839,1.41290322580645,1.38387096774194,1.40322580645161,1.4,1.40322580645161,1.38709677419355,1.41612903225806,1.39677419354839,1.40645161290323,1.40645161290323,1.41612903225806,1.40322580645161,1.41935483870968,1.40322580645161,1.40322580645161,1.39354838709677,1.40645161290323,1.39032258064516,1.38387096774194,1.38064516129032,1.40645161290323,1.39032258064516,1.38387096774194,1.38064516129032,1.37096774193548,1.39032258064516,1.38387096774194,1.39677419354839,1.37741935483871,1.4,1.37096774193548,1.38387096774194,1.3741935483871,1.40645161290323,1.37096774193548,1.38709677419355,1.3741935483871,1.38709677419355,1.36774193548387,1.40967741935484,1.40322580645161,1.41290322580645,1.40967741935484,1.44838709677419,1.45161290322581,1.45161290322581,1.44193548387097,1.43870967741935,1.40645161290323
