1.3741935483871,1.38387096774194,1.3741935483871,1.38709677419355,1.38387096774194,1.3741935483871,1.39677419354839,1.40322580645161,1.39677419354839,1.39354838709677,1.37741935483871,1.38387096774194,1.39354838709677,1.38387096774194,1.39677419354839,1.40645161290323,1.38064516129032,1.38064516129032,1.38709677419355,1.37741935483871,1.38064516129032,1.39677419354839,1.39677419354839,1.36774193548387,1.36129032258065,1.38709677419355,1.37096774193548,1.36451612903226,1.39677419354839,1.38064516129032,1.35483870967742,1.3741935483871,1.38709677419355,1.38064516129032,1.38064516129032,1.38064516129032,1.38064516129032,1.39032258064516,1.41612903225806,1.46129032258065,1.45483870967742,1.41935483870968,1.40645161290323,1.4,1.38064516129032,1.36129032258065,1.35483870967742,1.33870967741935,1.37096774193548,1.3741935483871,1.21290322580645,1.24516129032258,1.59354838709677,1.90645161290323,2.07741935483871,1.87096774193548,1.35806451612903,1.24838709677419,1.40322580645161,1.36451612903226,1.33870967741935,1.3741935483871,1.34838709677419,1.35483870967742,1.36774193548387,1.38387096774194,1.37741935483871,1.35483870967742,1.38387096774194,1.39354838709677,1.35483870967742,1.36774193548387,1.39032258064516,1.36774193548387,1.37741935483871,1.39032258064516,1.36774193548387,1.35806451612903,1.39354838709677,1.40967741935484,1.39354838709677,1.42258064516129,1.44838709677419,1.42258064516129,1.42258064516129,1.44838709677419,1.43870967741935,1.40322580645161,1.38387096774194,1.40322580645161,1.41935483870968,1.4,1.38387096774194,1.38387096774194,1.3741935483871,1.38387096774194,1.38064516129032,1.37096774193548,1.38064516129032,1.39032258064516,1.39032258064516,1.3741935483871,1.37096774193548,1.3741935483871,1.38064516129032,1.4,1.39032258064516,1.3741935483871,1.41612903225806,1.40967741935484,1.36451612903226,1.39032258064516,1.40645161290323,1.38064516129032,1.4,1.42258064516129,1.39032258064516,1.37741935483871,1.38709677419355,1.38709677419355,1.38064516129032,1.38064516129032,1.39032258064516,1.40322580645161,1.38709677419355,1.37096774193548,1.38064516129032,1.39354838709677,1.37741935483871,1.36129032258065,1.38387096774194,1.39354838709677,1.38387096774194,1.38387096774194,1.38709677419355,1.38387096774194,1.37741935483871,1.37741935483871,1.38387096774194,1.39354838709677,1.40322580645161,1.4,1.44838709677419,1.49354838709677,1.44838709677419,1.4,1.39032258064516,1.38387096774194,1.39032258064516,1.3741935483871,1.36451612903226,1.40645161290323,1.33548387096774,1.20967741935484,1.32903225806452,1.63225806451613,1.94193548387097,2.10967741935484,1.7741935483871,1.29032258064516,1.28709677419355,1.4258064516129,1.36129032258065,1.34193548387097,1.37096774193548,1.35161290322581,1.36129032258065,1.37096774193548,1.36129032258065,1.38387096774194,1.39354838709677,1.38709677419355,1.39677419354839,1.40322580645161,1.38709677419355,1.38709677419355,1.38387096774194,1.3741935483871,1.39677419354839,1.43870967741935,1.41290322580645,1.37741935483871,1.40322580645161,1.42903225806452,1.42903225806452,1.42903225806452,1.44516129032258,1.45483870967742,1.45483870967742,1.43548387096774,1.41290322580645,1.40967741935484,1.40322580645161,1.3741935483871,1.36451612903226,1.38387096774194,1.38387096774194,1.39354838709677,1.40645161290323,1.3741935483871,1.36451612903226,1.39354838709677,1.3741935483871,1.33548387096774,1.36451612903226,1.39677419354839,1.3741935483871,1.37096774193548,1.36451612903226,1.35161290322581,1.3741935483871,1.38387096774194,1.35483870967742,1.36451612903226,1.38387096774194,1.37096774193548,1.37096774193548,1.37096774193548,1.34193548387097,1.35483870967742,1.38064516129032,1.35483870967742,1.35161290322581,1.36451612903226,1.35161290322581,1.33548387096774,1.34516129032258,1.35161290322581,1.35483870967742,1.36451612903226,1.35483870967742,1.33870967741935,1.36451612903226,1.38387096774194,1.38064516129032,1.39677419354839,1.40967741935484,1.40967741935484,1.40967741935484,1.38387096774194,1.36129032258065,1.35483870967742,1.34838709677419,1.33870967741935,1.34838709677419,1.36451612903226,1.25806451612903,1.19354838709677,1.41935483870968,1.7258064516129,1.9258064516129,1.82258064516129,1.36774193548387,1.13548387096774,1.29354838709677,1.36774193548387,1.32903225806452,1.34838709677419,1.33870967741935,1.33870967741935,1.36774193548387,1.35806451612903,1.36451612903226,1.38387096774194,1.37741935483871,1.39354838709677,1.41290322580645,1.40322580645161,1.40967741935484,1.42903225806452,1.42258064516129,1.41935483870968,1.43870967741935,1.45806451612903,1.45161290322581,1.45161290322581,1.47741935483871,1.50645161290323,1.50645161290323,1.47741935483871,1.47096774193548,1.48064516129032,1.46129032258065,1.42258064516129,1.41612903225806,1.41612903225806,1.39032258064516,1.39677419354839,1.40645161290323,1.37741935483871,1.37741935483871,1.38709677419355,1.38709677419355,1.38709677419355,1.37096774193548,1.36451612903226,1.39677419354839,1.41935483870968,1.41935483870968,1.40967741935484,1.40967741935484,1.4258064516129,1.40645161290323,1.40645161290323,1.42903225806452,1.41935483870968,1.39677419354839,1.40645161290323,1.40967741935484,1.39032258064516,1.4,1.4,1.38387096774194,1.39354838709677,1.4,1.39354838709677,1.39032258064516,1.38064516129032,1.38064516129032,1.39354838709677,1.38387096774194,1.38064516129032,1.40967741935484,1.41935483870968,1.43548387096774,1.45806451612903,1.43548387096774,1.39354838709677,1.39354838709677,1.3741935483871,1.36774193548387,1.38387096774194,1.36774193548387,1.38387096774194,1.30967741935484,1.2,1.37741935483871,1.70645161290323,1.96774193548387,1.98709677419355,1.5741935483871,1.21935483870968,1.29354838709677,1.37741935483871,1.34516129032258,1.34516129032258,1.34516129032258,1.36451612903226,1.37741935483871,1.35483870967742,1.35806451612903,1.3741935483871,1.36451612903226,1.37741935483871,1.4,1.37741935483871,1.36774193548387,1.39032258064516,1.39032258064516,1.39354838709677,1.4,1.38387096774194,1.39032258064516,1.40967741935484,1.41290322580645,1.41290322580645,1.42258064516129,1.43548387096774,1.43870967741935,1.43548387096774,1.41935483870968,1.41290322580645,1.40967741935484,1.39032258064516,1.4,1.39032258064516,1.35483870967742,1.36774193548387,1.3741935483871,1.34838709677419,1.35806451612903,1.37096774193548,1.35483870967742,1.36451612903226,1.35806451612903,1.33870967741935,1.36451612903226,1.36451612903226,1.34516129032258,1.36129032258065,1.37096774193548,1.37096774193548,1.3741935483871,1.37096774193548,1.36129032258065,1.36451612903226,1.39032258064516,1.4,1.36451612903226,1.37096774193548,1.39032258064516,1.36129032258065,1.35483870967742,1.39032258064516,1.38387096774194,1.37096774193548,1.35483870967742,1.36129032258065,1.38709677419355,1.38064516129032,1.35483870967742,1.36129032258065,1.39032258064516,1.40645161290323,1.41612903225806,1.44193548387097,1.43548387096774,1.40967741935484,1.39032258064516,1.36451612903226,1.36451612903226,1.37741935483871,1.35483870967742,1.37096774193548,1.39677419354839,1.26451612903226,1.20645161290323,1.46129032258065,1.80967741935484,2.09354838709677,2.00967741935484,1.46129032258065,1.20645161290323,1.37741935483871,1.38709677419355,1.33225806451613,1.38064516129032,1.35161290322581,1.34193548387097,1.38709677419355,1.36774193548387,1.35161290322581,1.37096774193548,1.37741935483871,1.38064516129032,1.38709677419355,1.39032258064516,1.39677419354839,1.38064516129032,1.37741935483871,1.38064516129032,1.38709677419355,1.39032258064516,1.39677419354839,1.40322580645161,1.40645161290323,1.41290322580645,1.41612903225806,1.43548387096774,1.44838709677419,1.45161290322581,1.43548387096774,1.42258064516129,1.41612903225806,1.41290322580645,1.40322580645161,1.38709677419355,1.37741935483871,1.39354838709677,1.39677419354839,1.38709677419355,1.38064516129032,1.38709677419355,1.39354838709677,1.38709677419355,1.39677419354839,1.40322580645161,1.38709677419355,1.39354838709677,1.38709677419355,1.36774193548387,1.38064516129032,1.41290322580645,1.38709677419355,1.38064516129032,1.39677419354839,1.38709677419355,1.38709677419355,1.38709677419355,1.38064516129032,1.39677419354839,1.39354838709677,1.37096774193548,1.38709677419355,1.38709677419355,1.37096774193548,1.39677419354839,1.40322580645161,1.37096774193548,1.38709677419355,1.39354838709677,1.37096774193548,1.38064516129032,1.38064516129032,1.37741935483871,1.38064516129032,1.37096774193548,1.37096774193548,1.38709677419355,1.37741935483871,1.37741935483871,1.38064516129032,1.38709677419355,1.37741935483871,1.35806451612903,1.38064516129032,1.39354838709677,1.37741935483871,1.39677419354839,1.39677419354839,1.36129032258065,1.37741935483871,1.39677419354839,1.39354838709677,1.37741935483871,1.37741935483871,1.40645161290323,1.43225806451613,1.46129032258065,1.47096774193548,1.42258064516129,1.38709677419355,1.38709677419355,1.35161290322581,1.36774193548387,1.39677419354839,1.36129032258065,1.37741935483871,1.3258064516129,1.21290322580645,1.37741935483871,1.71935483870968,2.01935483870968,2.07096774193548,1.61290322580645,1.21612903225806,1.33870967741935,1.41612903225806,1.33870967741935,1.37096774193548,1.37741935483871,1.35161290322581,1.38387096774194,1.37741935483871,1.36774193548387,1.39677419354839,1.39677419354839,1.38387096774194,1.39677419354839,1.39677419354839,1.37741935483871,1.39354838709677,1.40645161290323,1.40322580645161,1.41290322580645,1.41290322580645,1.42258064516129,1.45161290322581,1.43225806451613,1.40322580645161,1.43225806451613,1.45161290322581,1.43870967741935,1.44193548387097,1.44193548387097,1.43870967741935,1.43225806451613,1.40645161290323,1.40645161290323,1.42903225806452,1.40645161290323,1.39354838709677,1.40645161290323,1.40322580645161,1.38709677419355,1.40322580645161,1.40322580645161,1.37741935483871,1.38387096774194,1.40645161290323,1.40645161290323,1.40322580645161,1.39354838709677,1.38387096774194,1.40322580645161,1.41935483870968,1.40322580645161,1.39354838709677,1.41290322580645,1.39677419354839,1.37741935483871,1.39354838709677,1.38387096774194,1.36129032258065,1.38387096774194,1.37741935483871,1.36129032258065,1.36774193548387,1.3741935483871,1.37741935483871,1.36129032258065,1.34838709677419,1.36774193548387,1.36774193548387,1.34193548387097,1.35161290322581,1.35161290322581,1.34838709677419,1.35806451612903,1.34193548387097,1.33225806451613,1.35161290322581,1.35806451612903,1.34193548387097,1.33870967741935,1.35161290322581,1.36774193548387,1.36774193548387,1.37741935483871,1.38709677419355,1.41612903225806,1.44193548387097,1.40322580645161,1.36129032258065,1.36774193548387,1.37741935483871,1.35806451612903,1.33870967741935,1.35161290322581,1.34193548387097,1.22258064516129,1.24838709677419,1.52258064516129,1.7741935483871,1.90322580645161,1.68387096774194,1.2258064516129,1.15806451612903,1.35806451612903,1.35161290322581,1.31612903225806,1.35806451612903,1.36774193548387,1.35806451612903,1.35806451612903,1.35806451612903,1.35806451612903,1.38064516129032,1.39677419354839,1.39032258064516,1.39677419354839,1.40645161290323,1.4258064516129,1.45161290322581,1.4258064516129,1.4258064516129,1.45161290322581,1.44193548387097,1.45483870967742,1.48064516129032,1.48064516129032,1.48709677419355,1.47096774193548,1.47096774193548,1.49032258064516,1.46774193548387,1.43548387096774,1.43225806451613,1.40645161290323,1.39032258064516,1.40645161290323,1.4,1.37741935483871,1.38709677419355,1.39032258064516,1.36129032258065,1.37096774193548,1.4,1.3741935483871,1.35483870967742,1.38064516129032,1.40645161290323,1.39032258064516,1.39032258064516,1.40645161290323,1.39032258064516,1.39677419354839,1.40967741935484,1.39032258064516,1.40645161290323,1.41935483870968,1.39032258064516,1.38064516129032,1.4,1.4,1.4,1.40967741935484,1.38064516129032,1.3741935483871,1.4,1.38064516129032,1.36451612903226,1.39032258064516,1.39354838709677,1.38064516129032,1.3741935483871,1.38064516129032,1.38064516129032,1.37096774193548,1.38064516129032,1.40645161290323,1.38064516129032,1.36451612903226,1.41935483870968,1.44838709677419,1.44838709677419,1.46451612903226,1.43548387096774,1.39354838709677,1.38064516129032,1.3741935483871,1.38387096774194,1.3741935483871,1.36451612903226,1.37096774193548,1.26451612903226,1.23870967741935,1.48064516129032,1.78064516129032,1.98709677419355,1.85161290322581,1.38387096774194,1.19032258064516,1.33548387096774,1.38064516129032,1.34838709677419,1.35483870967742,1.36451612903226,1.38064516129032,1.38064516129032,1.38064516129032,1.39032258064516,1.38064516129032,1.3741935483871,1.38387096774194,1.39032258064516,1.40967741935484,1.41612903225806,1.4,1.39032258064516,1.39032258064516,1.39032258064516,1.40645161290323,1.4258064516129,1.42903225806452,1.40967741935484,1.41935483870968,1.44516129032258,1.43548387096774,1.43548387096774,1.44193548387097,1.41612903225806,1.41935483870968,1.4258064516129,1.39032258064516,1.38064516129032,1.38709677419355,1.3741935483871,1.39677419354839,1.38709677419355,1.35161290322581,1.36451612903226,1.38064516129032,1.35483870967742,1.36129032258065,1.38709677419355,1.38064516129032,1.37096774193548,1.38064516129032,1.37096774193548,1.37096774193548,1.39677419354839,1.37741935483871,1.36129032258065,1.39032258064516,1.39677419354839,1.38709677419355,1.39677419354839,1.38709677419355,1.37741935483871,1.38709677419355,1.35806451612903,1.35806451612903,1.39032258064516,1.37096774193548,1.35806451612903,1.38709677419355,1.37741935483871,1.36774193548387,1.36774193548387,1.37096774193548,1.38709677419355,1.37741935483871,1.35806451612903,1.39354838709677,1.40645161290323,1.37741935483871,1.36774193548387,1.38709677419355,1.37741935483871,1.36129032258065,1.37096774193548,1.37741935483871,1.38064516129032,1.42258064516129,1.45161290322581,1.44838709677419,1.4258064516129,1.41612903225806,1.4258064516129,1.39354838709677,1.35806451612903,1.38387096774194,1.36774193548387,1.35806451612903,1.35806451612903,1.23225806451613,1.24193548387097,1.55161290322581,1.9,2.11612903225806,1.93548387096774,1.45161290322581,1.26129032258065,1.37741935483871,1.37741935483871,1.31612903225806,1.34193548387097,1.37741935483871,1.36774193548387,1.36129032258065,1.35806451612903,1.35161290322581,1.37096774193548,1.38387096774194,1.38709677419355,1.39354838709677,1.37096774193548,1.37096774193548,1.38387096774194,1.37096774193548,1.38709677419355,1.37096774193548,1.35806451612903,1.39677419354839,1.39354838709677,1.36774193548387,1.39677419354839,1.41612903225806,1.41290322580645,1.44193548387097,1.44838709677419,1.4258064516129,1.43548387096774,1.41290322580645,1.38709677419355,1.40645161290323,1.40322580645161,1.37741935483871,1.38709677419355,1.38709677419355,1.37096774193548,1.37741935483871,1.38064516129032,1.37096774193548,1.37741935483871,1.39032258064516,1.37096774193548,1.35806451612903,1.38709677419355,1.38064516129032,1.35806451612903,1.37741935483871,1.39677419354839,1.38709677419355,1.38709677419355,1.37741935483871,1.37741935483871,1.38709677419355,1.38709677419355,1.40645161290323,1.40645161290323,1.39677419354839,1.40967741935484,1.4,1.38064516129032,1.38709677419355,1.38064516129032,1.38064516129032,1.39032258064516,1.38064516129032,1.37096774193548,1.38064516129032,1.39032258064516,1.38709677419355,1.3741935483871,1.38064516129032,1.39677419354839,1.39032258064516,1.38709677419355,1.38709677419355,1.38064516129032,1.38064516129032,1.38064516129032,1.37096774193548,1.39032258064516,1.39677419354839,1.3741935483871,1.37096774193548,1.38709677419355,1.4,1.4,1.41612903225806,1.42903225806452,1.42903225806452,1.45483870967742,1.46129032258065,1.41612903225806,1.39677419354839,1.38387096774194,1.3741935483871,1.38064516129032,1.36451612903226,1.37096774193548,1.31935483870968,1.21612903225806,1.36129032258065,1.68709677419355,1.95806451612903,2.03870967741935,1.65161290322581,1.2258064516129,1.28064516129032,1.38709677419355,1.31935483870968,1.35483870967742,1.3741935483871,1.3258064516129,1.36129032258065,1.39677419354839,1.37096774193548,1.37096774193548,1.39032258064516,1.39677419354839,1.3741935483871,1.3741935483871,1.4,1.39677419354839,1.38709677419355,1.39677419354839,1.39032258064516,1.38064516129032,1.39677419354839,1.40967741935484,1.40645161290323,1.40967741935484,1.41612903225806,1.40645161290323,1.40967741935484,1.46129032258065,1.47096774193548,1.4258064516129,1.40645161290323,1.41612903225806,1.41612903225806,1.41290322580645,1.38709677419355,1.37741935483871,1.39677419354839,1.39677419354839,1.39032258064516,1.39032258064516,1.37096774193548,1.37096774193548,1.38709677419355,1.39354838709677,1.38709677419355,1.38709677419355,1.39354838709677,1.37741935483871,1.38709677419355,1.40322580645161,1.38387096774194,1.38387096774194,1.41290322580645,1.41290322580645,1.38709677419355,1.40322580645161,1.41290322580645,1.39354838709677,1.39354838709677,1.39677419354839,1.37741935483871,1.36774193548387,1.38387096774194,1.39677419354839,1.38387096774194,1.36451612903226,1.39677419354839,1.40967741935484,1.3741935483871,1.36774193548387,1.37741935483871,1.38387096774194,1.38387096774194,1.36451612903226,1.37741935483871,1.38709677419355,1.38387096774194,1.4,1.38709677419355,1.36451612903226,1.3741935483871,1.38709677419355,1.37741935483871,1.36451612903226,1.36451612903226,1.38709677419355,1.38709677419355,1.37741935483871,1.39354838709677,1.38387096774194,1.38709677419355,1.46774193548387,1.49354838709677,1.43225806451613,1.41935483870968,1.40967741935484,1.37741935483871,1.38709677419355,1.38709677419355,1.35806451612903,1.38387096774194,1.34193548387097,1.20967741935484,1.28387096774194,1.6,1.93548387096774,2.15161290322581,1.88064516129032,1.35161290322581,1.28387096774194,1.41935483870968,1.34838709677419,1.31935483870968,1.36451612903226,1.3741935483871,1.38709677419355,1.35161290322581,1.33870967741935,1.39354838709677,1.38709677419355,1.36129032258065,1.39677419354839,1.40322580645161,1.37741935483871,1.36774193548387,1.37096774193548,1.37096774193548,1.36129032258065,1.35806451612903,1.37096774193548,1.38064516129032,1.36774193548387,1.36129032258065,1.37741935483871,1.4,1.39677419354839,1.38709677419355,1.40967741935484,1.41612903225806,1.38064516129032,1.39032258064516,1.40967741935484,1.38387096774194,1.38387096774194,1.40322580645161,1.38064516129032,1.36774193548387,1.38387096774194,1.3741935483871,1.36451612903226,1.3741935483871,1.36774193548387,1.36774193548387,1.39677419354839,1.40322580645161,1.38387096774194,1.38709677419355,1.38709677419355,1.37741935483871,1.38064516129032,1.38064516129032,1.37096774193548,1.39032258064516,1.40645161290323,1.39677419354839,1.38064516129032,1.37741935483871,1.38064516129032,1.3741935483871,1.37096774193548,1.39032258064516,1.39032258064516,1.38387096774194,1.39032258064516,1.3741935483871,1.3741935483871,1.39032258064516,1.36774193548387,1.35483870967742,1.37741935483871,1.38387096774194,1.3741935483871,1.36774193548387,1.3741935483871,1.37741935483871,1.37741935483871,1.37096774193548,1.39354838709677,1.38709677419355,1.37096774193548,1.38064516129032,1.37096774193548,1.37741935483871,1.40645161290323,1.43225806451613,1.44516129032258,1.45161290322581,1.46129032258065,1.44516129032258,1.40645161290323,1.3741935483871,1.35161290322581,1.36451612903226,1.38064516129032,1.38709677419355,1.37096774193548,1.25161290322581,1.25483870967742,1.56129032258065,1.89354838709677,2.09354838709677,1.90322580645161,1.39032258064516,1.25161290322581,1.41935483870968,1.37096774193548,1.30645161290323,1.36451612903226,1.37096774193548,1.34193548387097,1.35483870967742,1.39032258064516,1.39032258064516,1.3741935483871,1.37096774193548,1.38064516129032,1.39032258064516,1.4,1.40645161290323,1.40322580645161,1.40322580645161,1.40322580645161,1.38387096774194,1.3741935483871,1.39354838709677,1.41935483870968,1.40322580645161,1.38387096774194,1.41935483870968,1.44838709677419,1.4258064516129,1.41935483870968,1.42903225806452,1.40645161290323,1.40645161290323,1.41290322580645,1.40322580645161,1.39677419354839,1.38709677419355,1.40967741935484,1.41935483870968,1.37096774193548,1.3741935483871,1.4,1.38064516129032,1.37741935483871,1.37741935483871,1.38387096774194,1.38387096774194,1.37096774193548,1.37741935483871,1.39677419354839,1.39677419354839,1.37741935483871,1.36774193548387,1.39032258064516,1.4,1.38064516129032,1.37741935483871,1.38387096774194,1.3741935483871,1.38709677419355,1.39677419354839,1.39354838709677,1.38064516129032,1.38709677419355,1.38709677419355,1.3741935483871,1.39032258064516,1.40967741935484,1.39677419354839,1.37741935483871,1.39032258064516,1.38709677419355,1.37741935483871,1.40322580645161,1.4,1.36129032258065,1.39354838709677,1.4258064516129,1.39677419354839,1.38387096774194,1.40967741935484,1.43225806451613,1.43225806451613,1.41935483870968,1.45161290322581,1.49354838709677
1.43870967741935,1.42903225806452,1.41612903225806,1.38387096774194,1.34193548387097,1.34193548387097,1.37096774193548,1.35161290322581,1.35806451612903,1.32258064516129,1.19677419354839,1.29032258064516,1.61290322580645,1.89354838709677,2.02903225806452,1.70967741935484,1.23225806451613,1.23548387096774,1.37741935483871,1.30967741935484,1.3258064516129,1.36451612903226,1.3258064516129,1.34193548387097,1.36451612903226,1.36129032258065,1.3741935483871,1.36451612903226,1.34516129032258,1.36451612903226,1.36129032258065,1.34838709677419,1.38064516129032,1.3741935483871,1.35483870967742,1.3741935483871,1.4,1.40322580645161,1.4,1.38709677419355,1.39354838709677,1.40967741935484,1.41290322580645,1.41935483870968,1.42258064516129,1.41935483870968,1.40322580645161,1.40322580645161,1.40322580645161,1.37096774193548,1.35806451612903,1.36774193548387,1.35806451612903,1.36129032258065,1.36774193548387,1.36129032258065,1.35806451612903,1.35806451612903,1.36774193548387,1.36129032258065,1.35483870967742,1.37096774193548,1.36129032258065,1.36129032258065,1.39677419354839,1.38064516129032,1.37096774193548,1.38387096774194,1.38387096774194,1.38387096774194,1.36451612903226,1.3741935483871,1.39354838709677,1.35483870967742,1.34838709677419,1.38064516129032,1.36451612903226,1.35483870967742,1.38064516129032,1.38387096774194,1.35806451612903,1.35483870967742,1.4,1.39354838709677,1.35483870967742,1.38387096774194,1.40322580645161,1.4,1.44516129032258,1.46774193548387,1.43870967741935,1.43225806451613,1.42258064516129,1.38387096774194,1.37741935483871,1.38709677419355,1.37741935483871,1.36774193548387,1.3741935483871,1.30322580645161,1.2741935483871,1.48709677419355,1.77096774193548,1.90967741935484,1.78709677419355,1.3741935483871,1.12258064516129,1.29677419354839,1.41935483870968,1.34838709677419,1.35806451612903,1.37741935483871,1.38709677419355,1.41935483870968,1.40322580645161,1.40322580645161,1.42258064516129,1.40322580645161,1.43225806451613,1.45806451612903,1.42903225806452,1.42903225806452,1.44516129032258,1.43870967741935,1.45483870967742,1.46451612903226,1.4741935483871,1.5,1.49354838709677,1.48387096774194,1.50967741935484,1.51612903225806,1.5,1.48387096774194,1.46129032258065,1.44516129032258,1.44838709677419,1.41935483870968,1.39032258064516,1.40645161290323,1.39677419354839,1.37096774193548,1.38709677419355,1.39677419354839,1.36451612903226,1.35483870967742,1.38064516129032,1.37741935483871,1.36774193548387,1.37741935483871,1.37741935483871,1.36774193548387,1.38064516129032,1.39032258064516,1.38709677419355,1.38064516129032,1.38387096774194,1.39354838709677,1.37741935483871,1.35806451612903,1.35161290322581,1.35161290322581,1.36774193548387,1.37741935483871,1.35806451612903,1.35806451612903,1.36774193548387,1.36451612903226,1.38064516129032,1.40967741935484,1.42903225806452,1.44838709677419,1.42903225806452,1.39354838709677,1.38387096774194,1.36451612903226,1.35161290322581,1.34193548387097,1.31935483870968,1.34516129032258,1.35161290322581,1.23548387096774,1.22258064516129,1.47741935483871,1.83225806451613,2.08387096774194,1.90967741935484,1.38709677419355,1.21290322580645,1.37741935483871,1.34193548387097,1.29354838709677,1.36129032258065,1.33870967741935,1.33225806451613,1.35161290322581,1.32258064516129,1.33870967741935,1.36774193548387,1.36451612903226,1.3741935483871,1.36774193548387,1.36774193548387,1.38064516129032,1.35483870967742,1.35806451612903,1.3741935483871,1.37096774193548,1.37096774193548,1.3741935483871,1.38064516129032,1.38064516129032,1.4,1.41935483870968,1.41612903225806,1.41935483870968,1.41935483870968,1.39677419354839,1.39677419354839,1.39677419354839,1.37096774193548,1.37741935483871,1.38064516129032,1.35483870967742,1.36774193548387,1.37741935483871,1.36129032258065,1.36129032258065,1.36774193548387,1.35161290322581,1.37096774193548,1.36774193548387,1.34193548387097,1.36774193548387,1.37096774193548,1.36129032258065,1.37741935483871,1.35806451612903,1.35161290322581,1.37096774193548,1.35806451612903,1.33870967741935,1.34838709677419,1.36774193548387,1.37741935483871,1.36774193548387,1.39677419354839,1.39677419354839,1.38387096774194,1.43870967741935,1.46129032258065,1.43225806451613,1.42903225806452,1.40645161290323,1.38709677419355,1.38387096774194,1.36129032258065,1.35806451612903,1.34838709677419,1.37096774193548,1.34838709677419,1.20645161290323,1.28709677419355,1.62903225806452,1.94838709677419,2.09354838709677,1.77096774193548,1.29677419354839,1.27096774193548,1.37096774193548,1.34838709677419,1.37096774193548,1.35806451612903,1.33225806451613,1.38064516129032,1.38064516129032,1.36774193548387,1.39032258064516,1.36129032258065,1.36129032258065,1.39032258064516,1.36774193548387,1.37096774193548,1.40967741935484,1.38064516129032,1.36129032258065,1.40645161290323,1.41612903225806,1.4,1.41935483870968,1.43548387096774,1.43548387096774,1.42903225806452,1.43548387096774,1.46129032258065,1.46129032258065,1.42903225806452,1.41612903225806,1.4,1.39354838709677,1.40645161290323,1.39354838709677,1.3741935483871,1.39032258064516,1.4,1.3741935483871,1.36774193548387,1.38064516129032,1.38387096774194,1.38064516129032,1.3741935483871,1.39032258064516,1.39032258064516,1.37741935483871,1.38387096774194,1.39354838709677,1.37741935483871,1.38387096774194,1.38387096774194,1.38709677419355,1.39677419354839,1.37741935483871,1.3741935483871,1.40322580645161,1.39677419354839,1.38387096774194,1.38709677419355,1.37096774193548,1.35806451612903,1.37741935483871,1.38709677419355,1.38064516129032,1.39677419354839,1.41290322580645,1.43225806451613,1.46774193548387,1.47096774193548,1.43225806451613,1.38709677419355,1.36774193548387,1.37741935483871,1.38064516129032,1.36129032258065,1.34193548387097,1.37741935483871,1.33225806451613,1.21612903225806,1.3,1.6,1.91935483870968,2.05161290322581,1.70322580645161,1.23548387096774,1.2258064516129,1.3741935483871,1.35483870967742,1.32903225806452,1.34516129032258,1.36451612903226,1.37096774193548,1.36129032258065,1.3741935483871,1.38064516129032,1.37096774193548,1.38064516129032,1.38387096774194,1.39354838709677,1.40322580645161,1.4,1.40322580645161,1.41612903225806,1.40967741935484,1.41612903225806,1.43870967741935,1.45483870967742,1.44516129032258,1.44838709677419,1.44838709677419,1.43870967741935,1.45806451612903,1.4741935483871,1.45806451612903,1.43548387096774,1.40967741935484,1.4,1.40322580645161,1.39354838709677,1.38064516129032,1.38387096774194,1.38064516129032,1.3741935483871,1.3741935483871,1.33870967741935,1.36451612903226,1.40322580645161,1.36774193548387,1.36451612903226,1.37741935483871,1.36774193548387,1.38387096774194,1.4,1.38387096774194,1.37741935483871,1.39032258064516,1.39354838709677,1.39032258064516,1.37741935483871,1.36774193548387,1.37741935483871,1.38387096774194,1.38387096774194,1.37741935483871,1.3741935483871,1.38387096774194,1.3741935483871,1.35483870967742,1.36774193548387,1.37741935483871,1.38387096774194,1.42258064516129,1.43548387096774,1.42903225806452,1.44838709677419,1.43548387096774,1.39354838709677,1.38387096774194,1.35806451612903,1.34516129032258,1.36774193548387,1.36774193548387,1.3741935483871,1.34516129032258,1.23225806451613,1.30322580645161,1.58387096774194,1.84193548387097,1.9258064516129,1.62903225806452,1.21935483870968,1.20322580645161,1.32903225806452,1.34516129032258,1.3741935483871,1.36451612903226,1.32258064516129,1.35483870967742,1.36451612903226,1.35806451612903,1.36774193548387,1.36774193548387,1.3741935483871,1.3741935483871,1.37741935483871,1.39354838709677,1.4,1.4,1.39354838709677,1.39032258064516,1.4,1.41935483870968,1.42903225806452,1.43870967741935,1.44838709677419,1.44838709677419,1.44516129032258,1.42903225806452,1.41935483870968,1.43225806451613,1.40322580645161,1.3741935483871,1.4,1.39032258064516,1.35806451612903,1.3741935483871,1.36451612903226,1.33870967741935,1.36451612903226,1.36451612903226,1.34838709677419,1.34838709677419,1.32903225806452,1.32903225806452,1.36451612903226,1.36451612903226,1.34838709677419,1.36451612903226,1.3741935483871,1.3741935483871,1.3741935483871,1.3741935483871,1.36451612903226,1.3741935483871,1.39032258064516,1.36774193548387,1.36774193548387,1.39354838709677,1.39032258064516,1.3741935483871,1.39032258064516,1.38387096774194,1.36451612903226,1.35483870967742,1.35483870967742,1.36774193548387,1.39032258064516,1.39032258064516,1.36451612903226,1.39354838709677,1.43548387096774,1.43870967741935,1.44838709677419,1.43548387096774,1.3741935483871,1.37096774193548,1.38064516129032,1.38064516129032,1.38387096774194,1.35806451612903,1.37096774193548,1.31612903225806,1.20322580645161,1.38387096774194,1.76774193548387,2.06774193548387,2.07096774193548,1.61935483870968,1.24838709677419,1.35483870967742,1.41612903225806,1.35161290322581,1.3741935483871,1.3741935483871,1.35483870967742,1.38064516129032,1.3741935483871,1.36451612903226,1.39032258064516,1.4,1.39677419354839,1.38709677419355,1.39032258064516,1.39032258064516,1.38064516129032,1.39677419354839,1.40645161290323,1.39032258064516,1.41290322580645,1.42258064516129,1.39677419354839,1.42258064516129,1.43225806451613,1.41612903225806,1.44838709677419,1.46129032258065,1.45161290322581,1.46129032258065,1.4258064516129,1.39354838709677,1.41612903225806,1.41290322580645,1.39354838709677,1.40322580645161,1.39354838709677,1.38387096774194,1.40645161290323,1.40645161290323,1.40322580645161,1.40322580645161,1.39354838709677,1.3741935483871,1.36774193548387,1.4,1.40967741935484,1.38387096774194,1.39354838709677,1.41290322580645,1.40322580645161,1.40322580645161,1.40322580645161,1.40322580645161,1.40967741935484,1.40967741935484,1.40967741935484,1.40322580645161,1.39354838709677,1.40322580645161,1.41612903225806,1.4,1.39032258064516,1.40645161290323,1.41612903225806,1.39354838709677,1.39677419354839,1.40967741935484,1.39677419354839,1.39677419354839,1.40645161290323,1.39677419354839,1.4,1.39677419354839,1.39032258064516,1.40967741935484,1.40645161290323,1.38064516129032,1.39032258064516,1.4,1.37096774193548,1.37096774193548,1.4,1.4,1.36774193548387,1.36129032258065,1.38709677419355,1.39677419354839,1.38064516129032,1.37096774193548,1.37741935483871,1.37741935483871,1.38709677419355,1.39677419354839,1.37741935483871,1.38064516129032,1.39677419354839,1.37096774193548,1.37096774193548,1.40645161290323,1.38709677419355,1.36129032258065,1.37741935483871,1.38709677419355,1.37741935483871,1.37096774193548,1.38064516129032,1.39677419354839,1.37741935483871,1.35806451612903,1.36774193548387,1.38709677419355,1.39677419354839,1.38709677419355,1.38709677419355,1.43548387096774,1.46129032258065,1.43548387096774,1.4,1.37741935483871,1.38709677419355,1.39677419354839,1.36451612903226,1.36129032258065,1.37096774193548,1.26129032258065,1.2258064516129,1.48064516129032,1.83225806451613,2.11290322580645,2.03870967741935,1.51935483870968,1.20967741935484,1.35161290322581,1.39032258064516,1.30967741935484,1.34516129032258,1.36451612903226,1.33548387096774,1.33870967741935,1.33870967741935,1.34838709677419,1.36451612903226,1.35806451612903,1.35483870967742,1.36451612903226,1.36451612903226,1.36774193548387,1.36774193548387,1.35806451612903,1.35483870967742,1.3741935483871,1.3741935483871,1.35161290322581,1.35806451612903,1.36774193548387,1.36129032258065,1.38387096774194,1.40322580645161,1.40322580645161,1.40645161290323,1.40322580645161,1.40645161290323,1.42258064516129,1.39677419354839,1.38064516129032,1.38709677419355,1.38064516129032,1.38709677419355,1.39032258064516,1.36451612903226,1.38387096774194,1.4,1.36451612903226,1.36129032258065,1.37096774193548,1.37096774193548,1.39032258064516,1.38387096774194,1.36451612903226,1.39032258064516,1.39032258064516,1.3741935483871,1.39354838709677,1.38709677419355,1.36451612903226,1.37741935483871,1.39354838709677,1.38387096774194,1.37741935483871,1.39354838709677,1.38387096774194,1.35161290322581,1.36774193548387,1.37741935483871,1.37096774193548,1.37741935483871,1.36774193548387,1.36129032258065,1.38709677419355,1.37741935483871,1.35483870967742,1.37096774193548,1.38709677419355,1.38709677419355,1.38064516129032,1.38709677419355,1.38064516129032,1.37096774193548,1.3741935483871,1.39032258064516,1.39032258064516,1.40645161290323,1.4,1.39032258064516,1.4258064516129,1.44838709677419,1.46451612903226,1.47096774193548,1.42903225806452,1.40322580645161,1.4,1.40322580645161,1.40967741935484,1.38387096774194,1.40322580645161,1.3741935483871,1.26451612903226,1.38387096774194,1.66774193548387,1.89032258064516,1.9258064516129,1.53870967741935,1.15483870967742,1.25483870967742,1.40322580645161,1.38064516129032,1.38064516129032,1.39354838709677,1.4,1.4,1.40967741935484,1.43548387096774,1.41290322580645,1.40967741935484,1.42903225806452,1.42903225806452,1.42903225806452,1.44516129032258,1.45483870967742,1.45483870967742,1.44516129032258,1.44838709677419,1.46451612903226,1.46451612903226,1.47096774193548,1.47096774193548,1.46129032258065,1.45483870967742,1.47096774193548,1.4741935483871,1.45483870967742,1.44193548387097,1.43225806451613,1.41612903225806,1.40967741935484,1.40645161290323,1.39032258064516,1.38709677419355,1.37096774193548,1.35161290322581,1.35806451612903,1.38064516129032,1.37741935483871,1.36129032258065,1.36129032258065,1.36774193548387,1.37741935483871,1.37741935483871,1.38387096774194,1.37741935483871,1.35483870967742,1.36774193548387,1.4,1.39354838709677,1.3741935483871,1.35483870967742,1.36451612903226,1.38064516129032,1.35483870967742,1.37096774193548,1.4,1.36129032258065,1.33548387096774,1.36451612903226,1.36451612903226,1.36129032258065,1.36129032258065,1.35483870967742,1.37741935483871,1.38064516129032,1.34838709677419,1.37096774193548,1.38709677419355,1.34838709677419,1.38387096774194,1.44193548387097,1.41935483870968,1.42258064516129,1.45806451612903,1.41290322580645,1.36774193548387,1.35806451612903,1.34516129032258,1.34516129032258,1.36451612903226,1.36451612903226,1.25483870967742,1.21612903225806,1.45161290322581,1.7741935483871,2.01935483870968,1.95806451612903,1.50645161290323,1.23548387096774,1.35483870967742,1.39677419354839,1.31612903225806,1.33225806451613,1.36774193548387,1.33870967741935,1.33225806451613,1.36129032258065,1.35161290322581,1.35806451612903,1.38387096774194,1.38709677419355,1.3741935483871,1.35806451612903,1.35483870967742,1.36774193548387,1.36774193548387,1.37741935483871,1.38387096774194,1.35806451612903,1.36774193548387,1.4,1.3741935483871,1.38064516129032,1.41612903225806,1.40322580645161,1.41612903225806,1.4258064516129,1.4,1.4,1.40645161290323,1.3741935483871,1.37096774193548,1.37096774193548,1.35161290322581,1.36129032258065,1.37096774193548,1.37096774193548,1.36129032258065,1.34516129032258,1.36129032258065,1.3741935483871,1.37096774193548,1.38064516129032,1.36451612903226,1.36129032258065,1.38387096774194,1.36451612903226,1.36129032258065,1.4,1.37096774193548,1.36129032258065,1.42903225806452,1.40645161290323,1.35483870967742,1.39032258064516,1.4,1.38064516129032,1.3741935483871,1.37096774193548,1.38064516129032,1.38387096774194,1.38064516129032,1.38387096774194,1.39032258064516,1.4,1.4258064516129,1.43870967741935,1.45483870967742,1.45806451612903,1.40967741935484,1.36451612903226,1.37741935483871,1.38709677419355,1.35483870967742,1.35161290322581,1.38709677419355,1.32258064516129,1.21290322580645,1.34193548387097,1.69032258064516,2,2.05483870967742,1.68387096774194,1.26129032258065,1.28709677419355,1.41612903225806,1.35161290322581,1.34516129032258,1.39677419354839,1.35161290322581,1.35483870967742,1.40645161290323,1.37096774193548,1.35483870967742,1.38387096774194,1.38064516129032,1.39032258064516,1.39354838709677,1.39354838709677,1.42258064516129,1.40322580645161,1.38709677419355,1.41935483870968,1.40322580645161,1.38387096774194,1.41612903225806,1.42258064516129,1.41290322580645,1.43225806451613,1.46129032258065,1.45161290322581,1.45161290322581,1.44516129032258,1.40645161290323,1.39677419354839,1.40967741935484,1.38387096774194,1.38387096774194,1.39354838709677,1.38064516129032,1.38064516129032,1.39032258064516,1.37741935483871,1.37741935483871,1.38387096774194,1.37741935483871,1.38387096774194,1.3741935483871,1.37741935483871,1.39354838709677,1.37741935483871,1.38064516129032,1.38709677419355,1.37741935483871,1.38709677419355,1.38064516129032,1.37741935483871,1.4,1.39677419354839,1.38709677419355,1.4,1.3741935483871,1.3741935483871,1.40645161290323,1.36451612903226,1.35483870967742,1.4,1.38064516129032,1.34838709677419,1.38064516129032,1.39032258064516,1.3741935483871,1.35806451612903,1.37741935483871,1.39354838709677,1.36774193548387,1.35806451612903,1.38387096774194,1.39677419354839,1.43225806451613,1.45806451612903,1.44838709677419,1.40645161290323,1.39354838709677,1.38387096774194,1.34838709677419,1.36129032258065,1.37096774193548,1.36129032258065,1.34838709677419,1.24193548387097,1.26129032258065,1.55806451612903,1.91290322580645,2.09354838709677,1.82903225806452,1.33225806451613,1.25161290322581,1.41290322580645,1.36774193548387,1.31612903225806,1.37096774193548,1.36774193548387,1.34516129032258,1.37741935483871,1.38709677419355,1.37096774193548,1.36774193548387,1.37741935483871,1.37741935483871,1.38064516129032,1.40322580645161,1.40645161290323,1.39032258064516,1.39677419354839,1.38709677419355,1.38064516129032,1.40322580645161,1.39677419354839,1.38387096774194,1.40322580645161,1.41290322580645,1.42258064516129,1.42903225806452,1.42258064516129,1.42903225806452,1.43870967741935,1.41935483870968,1.38387096774194,1.4,1.40967741935484,1.37741935483871,1.39032258064516,1.38387096774194,1.34516129032258,1.3741935483871,1.40967741935484,1.37096774193548,1.34516129032258,1.38064516129032,1.40967741935484,1.39032258064516,1.36129032258065,1.36129032258065,1.38064516129032,1.39677419354839,1.37741935483871,1.36774193548387,1.38709677419355,1.38064516129032,1.36774193548387,1.39354838709677,1.38709677419355,1.37741935483871,1.3741935483871,1.36451612903226,1.3741935483871,1.37741935483871,1.36774193548387,1.38387096774194,1.4,1.38064516129032,1.3741935483871,1.39032258064516,1.38387096774194,1.36451612903226,1.36451612903226,1.35483870967742,1.37741935483871,1.39032258064516,1.36129032258065,1.36774193548387,1.39677419354839,1.38387096774194,1.3741935483871,1.38387096774194,1.38709677419355,1.42258064516129,1.46774193548387,1.45483870967742,1.41935483870968,1.39354838709677,1.36129032258065,1.3741935483871,1.38064516129032,1.35161290322581,1.38709677419355,1.33548387096774,1.19677419354839,1.37096774193548,1.73548387096774,2.00967741935484,2.04516129032258,1.61290322580645,1.21612903225806,1.34193548387097,1.42903225806452,1.32903225806452,1.36774193548387,1.3741935483871,1.32903225806452,1.39032258064516,1.4,1.36129032258065,1.38064516129032,1.38387096774194,1.3741935483871,1.39677419354839,1.38709677419355,1.37096774193548,1.40645161290323,1.4,1.39677419354839,1.41290322580645,1.39354838709677,1.37741935483871,1.40322580645161,1.41290322580645,1.41290322580645,1.42903225806452,1.42903225806452,1.42258064516129,1.43225806451613,1.42258064516129,1.40322580645161,1.39354838709677,1.39032258064516,1.40967741935484,1.41290322580645,1.39032258064516,1.3741935483871,1.38387096774194,1.38064516129032,1.35806451612903,1.36451612903226,1.39032258064516,1.38064516129032,1.37096774193548,1.39032258064516,1.39032258064516,1.38387096774194,1.38387096774194,1.38064516129032,1.4,1.39354838709677,1.37096774193548,1.39032258064516,1.4,1.3741935483871,1.38387096774194,1.39354838709677,1.38387096774194,1.39354838709677,1.39354838709677,1.35806451612903,1.36451612903226,1.4,1.40322580645161,1.40322580645161,1.40967741935484,1.38709677419355,1.37741935483871,1.38387096774194,1.37741935483871,1.37741935483871,1.37741935483871,1.37741935483871,1.37741935483871,1.38064516129032,1.39032258064516,1.38064516129032,1.38064516129032,1.38064516129032,1.37096774193548,1.38387096774194,1.43870967741935,1.46451612903226,1.44516129032258,1.42903225806452,1.39354838709677,1.35483870967742,1.3741935483871,1.37741935483871,1.34193548387097,1.37096774193548,1.31290322580645,1.2,1.39677419354839,1.75161290322581,2.00645161290323,1.99354838709677,1.53870967741935,1.16451612903226,1.2741935483871,1.38709677419355,1.34838709677419,1.35161290322581,1.34838709677419,1.34193548387097,1.37096774193548,1.36451612903226,1.33870967741935,1.33870967741935,1.36451612903226,1.38387096774194,1.38387096774194,1.38387096774194,1.38709677419355,1.38709677419355,1.38064516129032,1.38709677419355,1.39677419354839,1.39032258064516,1.38387096774194,1.4,1.42258064516129,1.41612903225806,1.41290322580645
1.30645161290323,1.4,1.41612903225806,1.38064516129032,1.38709677419355,1.39032258064516,1.38064516129032,1.39677419354839,1.38064516129032,1.3741935483871,1.40645161290323,1.4,1.3741935483871,1.37096774193548,1.38387096774194,1.4,1.38064516129032,1.37096774193548,1.38064516129032,1.37096774193548,1.36451612903226,1.3741935483871,1.4,1.45483870967742,1.46129032258065,1.4,1.39032258064516,1.38064516129032,1.34516129032258,1.36451612903226,1.34838709677419,1.34516129032258,1.39354838709677,1.29032258064516,1.18387096774194,1.39354838709677,1.74193548387097,2.0258064516129,1.98709677419355,1.49354838709677,1.21290322580645,1.36451612903226,1.4,1.32258064516129,1.34838709677419,1.35806451612903,1.35483870967742,1.38387096774194,1.39032258064516,1.38387096774194,1.38387096774194,1.39032258064516,1.39354838709677,1.39032258064516,1.37741935483871,1.39032258064516,1.39032258064516,1.4,1.40322580645161,1.39032258064516,1.39354838709677,1.42258064516129,1.42258064516129,1.41935483870968,1.42258064516129,1.42903225806452,1.42258064516129,1.42258064516129,1.43225806451613,1.42903225806452,1.40967741935484,1.4,1.38387096774194,1.37741935483871,1.37741935483871,1.35483870967742,1.35806451612903,1.36451612903226,1.34516129032258,1.35483870967742,1.34838709677419,1.33870967741935,1.35806451612903,1.38387096774194,1.37741935483871,1.36774193548387,1.3741935483871,1.38387096774194,1.38387096774194,1.37741935483871,1.35483870967742,1.3741935483871,1.40322580645161,1.36451612903226,1.34838709677419,1.38064516129032,1.38387096774194,1.39032258064516,1.38387096774194,1.35483870967742,1.35806451612903,1.38064516129032,1.3741935483871,1.36774193548387,1.39032258064516,1.39354838709677,1.42903225806452,1.48064516129032,1.43548387096774,1.36451612903226,1.38387096774194,1.39032258064516,1.36129032258065,1.35483870967742,1.36129032258065,1.37096774193548,1.3,1.2,1.36451612903226,1.69677419354839,1.96774193548387,1.98709677419355,1.5741935483871,1.22903225806452,1.33548387096774,1.39677419354839,1.34193548387097,1.38064516129032,1.36129032258065,1.36129032258065,1.39677419354839,1.36129032258065,1.36451612903226,1.4,1.39677419354839,1.40645161290323,1.39677419354839,1.37741935483871,1.4,1.41612903225806,1.40645161290323,1.42258064516129,1.4258064516129,1.42258064516129,1.42258064516129,1.44193548387097,1.44838709677419,1.43870967741935,1.44193548387097,1.45806451612903,1.44838709677419,1.44838709677419,1.44838709677419,1.41935483870968,1.39354838709677,1.38709677419355,1.39354838709677,1.38387096774194,1.36451612903226,1.35806451612903,1.3741935483871,1.37741935483871,1.36774193548387,1.35483870967742,1.36774193548387,1.38387096774194,1.38387096774194,1.36451612903226,1.33870967741935,1.35483870967742,1.39354838709677,1.39032258064516,1.36774193548387,1.38387096774194,1.39354838709677,1.39354838709677,1.38387096774194,1.38387096774194,1.39032258064516,1.37096774193548,1.36129032258065,1.40322580645161,1.40967741935484,1.37096774193548,1.38387096774194,1.39032258064516,1.36129032258065,1.3741935483871,1.4,1.36451612903226,1.37096774193548,1.38387096774194,1.38064516129032,1.39677419354839,1.41935483870968,1.45161290322581,1.48064516129032,1.44516129032258,1.38709677419355,1.36451612903226,1.37096774193548,1.38064516129032,1.36129032258065,1.38064516129032,1.37741935483871,1.25161290322581,1.29032258064516,1.56451612903226,1.85161290322581,2.03225806451613,1.76451612903226,1.26129032258065,1.23548387096774,1.4258064516129,1.37096774193548,1.33548387096774,1.38064516129032,1.36129032258065,1.37741935483871,1.39032258064516,1.38709677419355,1.39032258064516,1.38064516129032,1.38064516129032,1.4,1.40645161290323,1.40645161290323,1.39677419354839,1.39032258064516,1.41612903225806,1.41612903225806,1.4,1.40645161290323,1.4,1.4,1.41935483870968,1.41935483870968,1.41612903225806,1.41612903225806,1.39677419354839,1.40967741935484,1.43225806451613,1.3741935483871,1.35161290322581,1.38064516129032,1.38709677419355,1.3741935483871,1.37096774193548,1.35483870967742,1.35161290322581,1.34516129032258,1.35161290322581,1.35161290322581,1.33870967741935,1.36129032258065,1.3741935483871,1.35483870967742,1.37096774193548,1.38387096774194,1.36129032258065,1.36451612903226,1.36451612903226,1.35806451612903,1.3741935483871,1.38064516129032,1.37096774193548,1.37096774193548,1.36451612903226,1.36451612903226,1.36451612903226,1.35806451612903,1.35483870967742,1.34516129032258,1.35806451612903,1.36451612903226,1.35483870967742,1.3741935483871,1.39354838709677,1.36451612903226,1.34838709677419,1.34838709677419,1.35483870967742,1.36451612903226,1.34838709677419,1.34838709677419,1.36451612903226,1.3741935483871,1.39354838709677,1.41290322580645,1.44193548387097,1.45806451612903,1.42258064516129,1.37741935483871,1.35806451612903,1.35806451612903,1.37096774193548,1.36129032258065,1.39677419354839,1.37741935483871,1.2258064516129,1.30322580645161,1.64193548387097,1.94838709677419,2.08387096774194,1.78387096774194,1.33548387096774,1.31612903225806,1.43225806451613,1.39032258064516,1.38064516129032,1.38709677419355,1.36129032258065,1.38064516129032,1.39032258064516,1.38064516129032,1.38709677419355,1.40967741935484,1.4258064516129,1.41612903225806,1.4,1.40645161290323,1.40967741935484,1.41935483870968,1.43548387096774,1.41935483870968,1.40645161290323,1.4258064516129,1.43548387096774,1.44193548387097,1.42903225806452,1.41935483870968,1.44516129032258,1.45161290322581,1.44193548387097,1.46451612903226,1.42903225806452,1.38387096774194,1.4258064516129,1.43870967741935,1.39032258064516,1.39354838709677,1.40967741935484,1.38064516129032,1.38064516129032,1.39032258064516,1.36129032258065,1.37096774193548,1.39032258064516,1.37096774193548,1.37096774193548,1.39354838709677,1.4,1.4,1.38387096774194,1.38064516129032,1.38387096774194,1.39032258064516,1.40645161290323,1.41935483870968,1.4,1.38064516129032,1.3741935483871,1.36451612903226,1.38387096774194,1.4,1.34516129032258,1.34516129032258,1.39032258064516,1.38064516129032,1.3741935483871,1.38387096774194,1.37096774193548,1.36451612903226,1.3741935483871,1.3741935483871,1.37096774193548,1.38064516129032,1.38387096774194,1.3741935483871,1.3741935483871,1.39032258064516,1.39032258064516,1.38387096774194,1.39032258064516,1.38387096774194,1.36451612903226,1.35483870967742,1.36451612903226,1.38387096774194,1.38709677419355,1.36451612903226,1.38709677419355,1.41612903225806,1.4258064516129,1.45161290322581,1.44193548387097,1.40645161290323,1.39677419354839,1.37096774193548,1.36451612903226,1.38064516129032,1.36451612903226,1.38709677419355,1.3258064516129,1.21935483870968,1.38064516129032,1.71290322580645,2.00967741935484,2.06774193548387,1.64193548387097,1.25161290322581,1.33548387096774,1.39677419354839,1.3258064516129,1.36774193548387,1.37741935483871,1.34516129032258,1.35806451612903,1.36129032258065,1.37741935483871,1.38064516129032,1.36774193548387,1.37741935483871,1.39677419354839,1.39677419354839,1.38709677419355,1.37741935483871,1.38064516129032,1.38709677419355,1.40322580645161,1.41290322580645,1.40645161290323,1.38709677419355,1.38064516129032,1.40322580645161,1.40645161290323,1.39354838709677,1.40645161290323,1.42258064516129,1.40322580645161,1.40645161290323,1.39354838709677,1.37741935483871,1.41290322580645,1.38064516129032,1.34193548387097,1.38387096774194,1.38709677419355,1.36774193548387,1.38387096774194,1.36774193548387,1.37096774193548,1.38709677419355,1.35161290322581,1.36129032258065,1.37096774193548,1.34838709677419,1.37741935483871,1.38387096774194,1.36774193548387,1.39677419354839,1.38387096774194,1.36774193548387,1.37741935483871,1.36774193548387,1.36774193548387,1.34838709677419,1.34838709677419,1.38387096774194,1.37096774193548,1.36129032258065,1.38387096774194,1.37096774193548,1.36774193548387,1.38387096774194,1.37096774193548,1.35161290322581,1.35161290322581,1.37741935483871,1.37741935483871,1.35161290322581,1.37741935483871,1.37096774193548,1.35161290322581,1.38709677419355,1.38709677419355,1.35806451612903,1.37741935483871,1.37096774193548,1.36129032258065,1.38709677419355,1.39354838709677,1.38709677419355,1.39354838709677,1.39354838709677,1.39354838709677,1.38709677419355,1.39677419354839,1.43870967741935,1.45806451612903,1.44193548387097,1.42258064516129,1.39354838709677,1.37741935483871,1.37741935483871,1.37741935483871,1.39677419354839,1.39677419354839,1.30322580645161,1.23870967741935,1.41612903225806,1.77096774193548,2.04838709677419,1.98064516129032,1.52903225806452,1.23225806451613,1.35806451612903,1.44193548387097,1.37096774193548,1.35806451612903,1.35806451612903,1.37741935483871,1.40645161290323,1.37741935483871,1.38709677419355,1.41612903225806,1.39354838709677,1.40645161290323,1.4258064516129,1.41290322580645,1.40645161290323,1.40645161290323,1.42258064516129,1.44193548387097,1.4258064516129,1.4258064516129,1.44193548387097,1.44193548387097,1.46129032258065,1.45161290322581,1.43870967741935,1.45806451612903,1.45806451612903,1.44193548387097,1.44838709677419,1.41612903225806,1.38709677419355,1.39354838709677,1.38709677419355,1.36774193548387,1.37096774193548,1.38709677419355,1.37741935483871,1.37741935483871,1.37096774193548,1.36129032258065,1.36129032258065,1.39354838709677,1.38709677419355,1.35161290322581,1.36774193548387,1.40322580645161,1.38709677419355,1.38709677419355,1.39354838709677,1.40322580645161,1.41290322580645,1.38709677419355,1.37096774193548,1.39677419354839,1.39677419354839,1.38064516129032,1.38064516129032,1.36129032258065,1.36774193548387,1.37741935483871,1.36774193548387,1.38064516129032,1.37741935483871,1.35161290322581,1.37741935483871,1.39354838709677,1.40645161290323,1.44838709677419,1.42258064516129,1.38387096774194,1.38387096774194,1.36774193548387,1.37741935483871,1.38387096774194,1.34838709677419,1.37096774193548,1.33870967741935,1.2258064516129,1.36129032258065,1.64838709677419,1.82903225806452,1.83548387096774,1.50322580645161,1.18709677419355,1.27741935483871,1.37096774193548,1.33225806451613,1.36774193548387,1.38709677419355,1.35806451612903,1.36774193548387,1.37741935483871,1.37096774193548,1.36774193548387,1.36774193548387,1.37741935483871,1.39677419354839,1.40322580645161,1.38064516129032,1.37741935483871,1.41290322580645,1.4258064516129,1.40322580645161,1.41612903225806,1.43225806451613,1.41290322580645,1.44193548387097,1.48064516129032,1.45161290322581,1.45161290322581,1.46129032258065,1.4258064516129,1.41612903225806,1.42258064516129,1.39677419354839,1.36774193548387,1.35806451612903,1.37096774193548,1.37096774193548,1.34193548387097,1.33225806451613,1.33548387096774,1.3258064516129,1.33225806451613,1.35161290322581,1.35806451612903,1.36774193548387,1.36129032258065,1.35161290322581,1.38064516129032,1.38064516129032,1.34516129032258,1.36129032258065,1.40645161290323,1.40967741935484,1.39032258064516,1.35161290322581,1.34516129032258,1.38064516129032,1.37741935483871,1.36129032258065,1.37741935483871,1.35483870967742,1.35483870967742,1.4,1.38064516129032,1.34516129032258,1.3741935483871,1.3741935483871,1.38709677419355,1.44193548387097,1.44516129032258,1.41612903225806,1.39032258064516,1.36451612903226,1.35483870967742,1.37096774193548,1.3741935483871,1.35161290322581,1.35483870967742,1.28387096774194,1.19354838709677,1.38064516129032,1.72258064516129,2.02258064516129,2.05806451612903,1.63548387096774,1.26129032258065,1.31612903225806,1.40967741935484,1.36129032258065,1.33548387096774,1.36451612903226,1.38387096774194,1.36451612903226,1.37096774193548,1.39354838709677,1.38387096774194,1.38064516129032,1.39354838709677,1.38387096774194,1.38387096774194,1.40967741935484,1.4,1.38387096774194,1.40322580645161,1.40967741935484,1.39354838709677,1.40967741935484,1.41935483870968,1.41612903225806,1.41935483870968,1.42903225806452,1.45483870967742,1.47096774193548,1.43548387096774,1.42903225806452,1.41612903225806,1.39032258064516,1.39354838709677,1.39032258064516,1.3741935483871,1.39354838709677,1.38387096774194,1.3741935483871,1.38387096774194,1.3741935483871,1.36451612903226,1.37096774193548,1.35806451612903,1.3741935483871,1.4,1.39032258064516,1.3741935483871,1.37096774193548,1.37096774193548,1.39354838709677,1.38387096774194,1.37096774193548,1.38064516129032,1.38064516129032,1.38387096774194,1.39354838709677,1.3741935483871,1.3741935483871,1.38387096774194,1.38387096774194,1.38387096774194,1.37096774193548,1.36451612903226,1.38387096774194,1.39677419354839,1.39677419354839,1.3741935483871,1.36451612903226,1.39677419354839,1.41935483870968,1.45161290322581,1.47096774193548,1.41612903225806,1.38064516129032,1.38709677419355,1.38064516129032,1.38064516129032,1.36129032258065,1.34516129032258,1.36129032258065,1.24516129032258,1.23548387096774,1.5258064516129,1.82258064516129,2.02258064516129,1.89354838709677,1.39032258064516,1.2258064516129,1.4,1.38064516129032,1.33548387096774,1.38709677419355,1.37096774193548,1.36129032258065,1.38064516129032,1.39032258064516,1.40322580645161,1.39354838709677,1.38709677419355,1.39354838709677,1.39677419354839,1.41290322580645,1.42258064516129,1.41290322580645,1.39677419354839,1.42258064516129,1.43225806451613,1.40645161290323,1.41935483870968,1.44838709677419,1.43870967741935,1.44838709677419,1.46451612903226,1.45806451612903,1.46774193548387,1.45806451612903,1.42903225806452,1.42903225806452,1.40967741935484,1.37741935483871,1.36774193548387,1.35806451612903,1.35806451612903,1.36451612903226,1.35483870967742,1.34516129032258,1.35806451612903,1.36774193548387,1.37741935483871,1.36774193548387,1.33548387096774,1.33870967741935,1.36774193548387,1.35483870967742,1.34838709677419,1.36774193548387,1.34838709677419,1.3741935483871,1.4,1.35806451612903,1.37096774193548,1.39032258064516,1.35483870967742,1.34516129032258,1.36129032258065,1.34516129032258,1.33870967741935,1.33870967741935,1.34516129032258,1.36451612903226,1.37096774193548,1.34838709677419,1.34838709677419,1.35483870967742,1.36129032258065,1.37096774193548,1.39032258064516,1.4258064516129,1.42903225806452,1.4,1.39032258064516,1.37096774193548,1.35483870967742,1.3741935483871,1.35483870967742,1.33870967741935,1.35161290322581,1.25483870967742,1.26451612903226,1.5258064516129,1.80322580645161,1.91612903225806,1.66129032258065,1.23548387096774,1.18387096774194,1.34838709677419,1.36129032258065,1.36129032258065,1.3741935483871,1.36129032258065,1.39032258064516,1.39354838709677,1.36451612903226,1.38387096774194,1.38387096774194,1.38387096774194,1.4258064516129,1.4258064516129,1.41612903225806,1.41935483870968,1.4258064516129,1.45483870967742,1.46451612903226,1.43870967741935,1.44838709677419,1.45483870967742,1.45483870967742,1.48387096774194,1.48064516129032,1.48387096774194,1.50967741935484,1.48387096774194,1.45806451612903,1.46451612903226,1.43548387096774,1.4,1.39354838709677,1.37741935483871,1.38387096774194,1.37741935483871,1.34838709677419,1.36451612903226,1.38709677419355,1.37741935483871,1.36774193548387,1.3741935483871,1.37741935483871,1.3741935483871,1.36129032258065,1.38709677419355,1.39677419354839,1.40322580645161,1.40645161290323,1.39354838709677,1.38387096774194,1.38387096774194,1.39354838709677,1.40322580645161,1.39354838709677,1.37741935483871,1.37741935483871,1.38709677419355,1.41290322580645,1.40645161290323,1.36774193548387,1.36774193548387,1.38709677419355,1.38709677419355,1.38709677419355,1.38064516129032,1.37741935483871,1.40645161290323,1.41612903225806,1.4258064516129,1.46451612903226,1.46129032258065,1.40967741935484,1.40645161290323,1.38709677419355,1.33548387096774,1.35483870967742,1.38064516129032,1.35483870967742,1.31612903225806,1.20645161290323,1.2258064516129,1.49677419354839,1.79354838709677,1.99354838709677,1.78064516129032,1.28064516129032,1.1741935483871,1.32903225806452,1.31612903225806,1.29354838709677,1.33548387096774,1.33548387096774,1.3258064516129,1.34838709677419,1.3741935483871,1.37096774193548,1.35806451612903,1.36451612903226,1.38387096774194,1.39032258064516,1.3741935483871,1.38387096774194,1.38387096774194,1.38064516129032,1.40322580645161,1.40967741935484,1.41290322580645,1.42903225806452,1.43548387096774,1.44516129032258,1.44516129032258,1.45483870967742,1.48064516129032,1.46774193548387,1.4741935483871,1.44838709677419,1.4,1.40967741935484,1.41290322580645,1.38387096774194,1.39032258064516,1.37741935483871,1.35483870967742,1.39354838709677,1.4,1.34838709677419,1.36774193548387,1.40322580645161,1.37741935483871,1.3741935483871,1.37741935483871,1.35806451612903,1.37741935483871,1.39032258064516,1.38387096774194,1.39354838709677,1.3741935483871,1.39032258064516,1.41290322580645,1.38064516129032,1.39354838709677,1.41290322580645,1.38387096774194,1.38064516129032,1.38387096774194,1.36774193548387,1.38387096774194,1.4,1.39032258064516,1.3741935483871,1.37096774193548,1.3741935483871,1.39032258064516,1.4,1.36451612903226,1.36451612903226,1.40967741935484,1.4,1.38387096774194,1.40645161290323,1.4,1.39032258064516,1.39677419354839,1.40967741935484,1.43548387096774,1.46129032258065,1.44516129032258,1.4,1.37096774193548,1.36451612903226,1.3741935483871,1.3741935483871,1.36129032258065,1.3741935483871,1.28709677419355,1.20645161290323,1.45161290322581,1.78709677419355,2.02258064516129,2.01290322580645,1.53225806451613,1.21612903225806,1.38064516129032,1.39032258064516,1.3258064516129,1.4,1.36129032258065,1.35161290322581,1.40645161290323,1.36129032258065,1.36129032258065,1.41290322580645,1.37741935483871,1.36129032258065,1.38709677419355,1.40322580645161,1.40322580645161,1.37741935483871,1.39354838709677,1.40322580645161,1.37741935483871,1.40322580645161,1.43225806451613,1.40645161290323,1.41612903225806,1.42903225806452,1.42903225806452,1.44838709677419,1.45161290322581,1.45161290322581,1.43225806451613,1.41290322580645,1.42903225806452,1.41290322580645,1.38709677419355,1.39354838709677,1.36451612903226,1.35806451612903,1.38387096774194,1.36774193548387,1.36774193548387,1.36774193548387,1.35161290322581,1.36451612903226,1.35161290322581,1.35161290322581,1.38709677419355,1.3741935483871,1.34193548387097,1.3741935483871,1.38709677419355,1.37741935483871,1.38387096774194,1.38709677419355,1.38387096774194,1.36451612903226,1.37741935483871,1.39354838709677,1.37741935483871,1.38709677419355,1.38709677419355,1.36774193548387,1.37741935483871,1.39677419354839,1.38387096774194,1.37741935483871,1.37741935483871,1.36774193548387,1.37741935483871,1.37741935483871,1.3741935483871,1.40322580645161,1.39354838709677,1.36129032258065,1.37741935483871,1.37741935483871,1.36129032258065,1.3741935483871,1.39354838709677,1.38709677419355,1.37096774193548,1.38387096774194,1.39677419354839,1.36774193548387,1.36774193548387,1.40645161290323,1.39354838709677,1.36129032258065,1.38064516129032,1.39354838709677,1.36129032258065,1.34838709677419,1.37096774193548,1.38064516129032,1.38709677419355,1.39677419354839,1.38709677419355,1.37741935483871,1.38064516129032,1.37741935483871,1.38064516129032,1.41290322580645,1.45161290322581,1.45161290322581,1.44516129032258,1.45161290322581,1.41612903225806,1.37096774193548,1.37096774193548,1.36129032258065,1.35161290322581,1.4,1.35161290322581,1.2258064516129,1.33548387096774,1.66129032258065,1.98387096774194,2.10645161290323,1.73225806451613,1.29677419354839,1.3258064516129,1.40967741935484,1.34516129032258,1.37096774193548,1.3741935483871,1.35161290322581,1.39032258064516,1.38387096774194,1.38064516129032,1.40645161290323,1.38064516129032,1.38064516129032,1.39677419354839,1.3741935483871,1.38064516129032,1.4,1.4,1.40645161290323,1.39032258064516,1.38709677419355,1.40645161290323,1.38709677419355,1.3741935483871,1.4,1.40645161290323,1.4258064516129,1.44516129032258,1.44193548387097,1.4258064516129,1.42258064516129,1.41612903225806,1.38709677419355,1.38064516129032,1.41290322580645,1.39354838709677,1.36129032258065,1.39354838709677,1.40322580645161,1.3741935483871,1.35806451612903,1.37741935483871,1.38387096774194,1.35806451612903,1.3741935483871,1.40322580645161,1.3741935483871,1.37096774193548,1.4,1.38387096774194,1.38709677419355,1.40645161290323,1.38709677419355,1.39677419354839,1.42258064516129,1.39677419354839,1.37741935483871,1.38387096774194,1.4,1.40322580645161,1.3741935483871,1.36451612903226,1.38387096774194,1.3741935483871,1.38709677419355,1.41290322580645,1.38709677419355,1.35806451612903,1.37741935483871,1.40967741935484,1.40322580645161,1.38064516129032,1.38064516129032,1.39677419354839,1.38709677419355,1.37741935483871,1.39354838709677,1.4,1.40645161290323,1.4,1.38709677419355,1.41612903225806,1.45806451612903,1.45806451612903,1.4741935483871,1.45161290322581,1.41290322580645,1.41935483870968,1.39354838709677,1.39032258064516,1.41612903225806,1.38709677419355,1.38709677419355
1.29677419354839,1.23548387096774,1.45161290322581,1.74838709677419,1.89354838709677,1.78709677419355,1.34193548387097,1.11612903225806,1.3258064516129,1.39032258064516,1.31612903225806,1.36451612903226,1.37741935483871,1.34516129032258,1.38064516129032,1.38064516129032,1.36129032258065,1.38709677419355,1.41290322580645,1.39032258064516,1.38709677419355,1.43548387096774,1.43548387096774,1.41290322580645,1.43225806451613,1.45161290322581,1.44838709677419,1.45806451612903,1.46774193548387,1.47096774193548,1.48709677419355,1.48064516129032,1.48709677419355,1.49354838709677,1.48387096774194,1.46129032258065,1.45161290322581,1.44193548387097,1.39677419354839,1.36774193548387,1.38387096774194,1.38709677419355,1.36129032258065,1.34838709677419,1.34838709677419,1.34193548387097,1.34193548387097,1.35806451612903,1.35483870967742,1.34838709677419,1.36774193548387,1.36774193548387,1.34516129032258,1.36774193548387,1.38387096774194,1.35806451612903,1.38387096774194,1.39354838709677,1.33870967741935,1.34516129032258,1.38387096774194,1.36451612903226,1.34516129032258,1.35806451612903,1.35806451612903,1.34516129032258,1.33870967741935,1.36129032258065,1.36129032258065,1.33870967741935,1.36129032258065,1.37096774193548,1.34516129032258,1.35483870967742,1.37096774193548,1.38387096774194,1.40967741935484,1.40967741935484,1.39032258064516,1.39032258064516,1.38064516129032,1.35483870967742,1.35483870967742,1.36129032258065,1.37741935483871,1.36451612903226,1.26129032258065,1.27096774193548,1.54193548387097,1.78387096774194,1.82258064516129,1.59677419354839,1.2258064516129,1.15483870967742,1.34193548387097,1.39032258064516,1.34516129032258,1.36129032258065,1.38709677419355,1.38709677419355,1.38064516129032,1.38064516129032,1.38709677419355,1.40322580645161,1.43225806451613,1.43225806451613,1.41290322580645,1.43225806451613,1.44838709677419,1.44193548387097,1.46129032258065,1.47741935483871,1.48387096774194,1.47741935483871,1.48387096774194,1.51290322580645,1.54193548387097,1.52258064516129,1.51935483870968,1.54838709677419,1.52258064516129,1.46129032258065,1.46451612903226,1.45806451612903,1.39677419354839,1.39677419354839,1.41935483870968,1.35161290322581,1.33225806451613,1.38709677419355,1.3741935483871,1.34193548387097,1.3741935483871,1.36451612903226,1.35806451612903,1.3741935483871,1.36451612903226,1.3741935483871,1.38709677419355,1.35806451612903,1.35806451612903,1.38709677419355,1.39354838709677,1.36774193548387,1.34193548387097,1.35806451612903,1.36129032258065,1.35161290322581,1.36774193548387,1.36129032258065,1.35161290322581,1.36774193548387,1.35806451612903,1.34193548387097,1.3741935483871,1.38709677419355,1.40645161290323,1.43870967741935,1.42258064516129,1.38387096774194,1.37741935483871,1.37096774193548,1.36774193548387,1.35161290322581,1.3258064516129,1.36129032258065,1.35161290322581,1.21612903225806,1.28709677419355,1.59354838709677,1.85806451612903,1.97096774193548,1.69032258064516,1.24838709677419,1.2258064516129,1.39677419354839,1.36129032258065,1.3258064516129,1.36129032258065,1.33548387096774,1.33225806451613,1.38064516129032,1.37096774193548,1.33225806451613,1.36774193548387,1.38709677419355,1.37096774193548,1.38709677419355,1.38709677419355,1.36129032258065,1.38709677419355,1.40645161290323,1.37741935483871,1.38709677419355,1.39677419354839,1.4,1.44193548387097,1.44516129032258,1.41935483870968,1.44516129032258,1.46451612903226,1.43225806451613,1.40645161290323,1.4258064516129,1.41935483870968,1.38387096774194,1.3741935483871,1.37096774193548,1.36129032258065,1.3741935483871,1.3741935483871,1.35483870967742,1.36129032258065,1.35483870967742,1.35483870967742,1.34838709677419,1.32903225806452,1.35483870967742,1.39032258064516,1.37096774193548,1.34838709677419,1.36451612903226,1.37096774193548,1.36451612903226,1.35806451612903,1.3741935483871,1.4,1.37096774193548,1.34516129032258,1.39354838709677,1.40322580645161,1.38387096774194,1.39032258064516,1.36451612903226,1.35483870967742,1.40967741935484,1.41935483870968,1.42903225806452,1.45483870967742,1.4258064516129,1.3741935483871,1.3741935483871,1.36774193548387,1.3741935483871,1.3741935483871,1.35806451612903,1.36451612903226,1.29032258064516,1.21290322580645,1.40967741935484,1.76774193548387,2.05806451612903,2.03548387096774,1.59354838709677,1.28387096774194,1.36451612903226,1.38064516129032,1.33548387096774,1.38064516129032,1.36774193548387,1.35806451612903,1.38064516129032,1.3741935483871,1.38064516129032,1.39032258064516,1.40322580645161,1.41935483870968,1.4,1.39354838709677,1.39354838709677,1.38387096774194,1.40322580645161,1.41612903225806,1.4,1.40322580645161,1.40967741935484,1.40967741935484,1.4258064516129,1.4258064516129,1.44838709677419,1.47096774193548,1.43870967741935,1.43548387096774,1.45161290322581,1.43870967741935,1.4258064516129,1.41612903225806,1.4,1.38387096774194,1.38387096774194,1.39032258064516,1.38064516129032,1.39677419354839,1.39677419354839,1.3741935483871,1.38709677419355,1.38709677419355,1.35161290322581,1.36451612903226,1.4,1.39677419354839,1.37741935483871,1.36774193548387,1.38709677419355,1.4,1.38064516129032,1.40645161290323,1.40645161290323,1.36129032258065,1.38709677419355,1.41612903225806,1.39032258064516,1.38064516129032,1.38064516129032,1.37741935483871,1.39677419354839,1.40645161290323,1.38709677419355,1.36774193548387,1.37096774193548,1.39354838709677,1.40322580645161,1.38387096774194,1.3741935483871,1.39677419354839,1.39677419354839,1.3741935483871,1.39354838709677,1.40322580645161,1.37741935483871,1.37741935483871,1.38387096774194,1.37741935483871,1.38387096774194,1.39354838709677,1.38709677419355,1.3741935483871,1.37741935483871,1.4,1.39354838709677,1.37741935483871,1.36774193548387,1.38387096774194,1.39032258064516,1.3741935483871,1.38387096774194,1.39032258064516,1.36451612903226,1.3741935483871,1.39354838709677,1.38064516129032,1.38064516129032,1.3741935483871,1.36774193548387,1.39032258064516,1.39354838709677,1.39032258064516,1.3741935483871,1.39032258064516,1.44838709677419,1.45483870967742,1.4258064516129,1.41935483870968,1.40967741935484,1.4,1.3741935483871,1.35483870967742,1.35483870967742,1.36451612903226,1.34838709677419,1.24838709677419,1.24838709677419,1.50645161290323,1.83548387096774,2.11612903225806,2.0258064516129,1.49032258064516,1.23870967741935,1.38387096774194,1.3741935483871,1.30967741935484,1.35806451612903,1.35806451612903,1.35483870967742,1.38064516129032,1.37096774193548,1.35483870967742,1.3741935483871,1.37096774193548,1.35806451612903,1.37096774193548,1.35806451612903,1.3741935483871,1.40967741935484,1.38387096774194,1.36774193548387,1.39032258064516,1.38064516129032,1.38064516129032,1.39032258064516,1.38064516129032,1.39032258064516,1.4,1.40967741935484,1.41935483870968,1.41290322580645,1.43225806451613,1.45483870967742,1.42258064516129,1.41290322580645,1.41935483870968,1.38709677419355,1.3741935483871,1.39354838709677,1.39354838709677,1.3741935483871,1.37741935483871,1.37741935483871,1.3741935483871,1.37741935483871,1.38709677419355,1.38709677419355,1.3741935483871,1.36774193548387,1.37096774193548,1.37741935483871,1.38387096774194,1.37741935483871,1.36774193548387,1.37096774193548,1.38709677419355,1.39677419354839,1.39032258064516,1.39032258064516,1.38064516129032,1.36129032258065,1.38709677419355,1.39032258064516,1.37741935483871,1.38064516129032,1.37096774193548,1.37096774193548,1.40645161290323,1.38709677419355,1.36451612903226,1.38064516129032,1.37096774193548,1.38064516129032,1.39677419354839,1.38064516129032,1.39032258064516,1.39032258064516,1.38387096774194,1.39032258064516,1.38387096774194,1.3741935483871,1.38064516129032,1.38387096774194,1.3741935483871,1.3741935483871,1.39354838709677,1.39032258064516,1.38064516129032,1.4,1.38387096774194,1.35483870967742,1.36774193548387,1.38064516129032,1.38387096774194,1.40322580645161,1.4,1.40967741935484,1.43870967741935,1.45806451612903,1.44516129032258,1.42903225806452,1.41290322580645,1.36774193548387,1.36451612903226,1.38709677419355,1.35483870967742,1.36451612903226,1.34838709677419,1.22903225806452,1.32903225806452,1.64838709677419,1.94193548387097,2.1,1.77096774193548,1.24838709677419,1.26774193548387,1.43225806451613,1.34838709677419,1.34193548387097,1.39354838709677,1.36774193548387,1.36774193548387,1.3741935483871,1.3741935483871,1.38709677419355,1.38387096774194,1.38709677419355,1.41290322580645,1.39677419354839,1.39354838709677,1.41935483870968,1.40322580645161,1.39677419354839,1.40967741935484,1.40322580645161,1.42258064516129,1.43225806451613,1.41935483870968,1.42903225806452,1.43870967741935,1.44193548387097,1.44838709677419,1.43870967741935,1.45483870967742,1.45483870967742,1.43225806451613,1.42903225806452,1.4,1.38387096774194,1.41935483870968,1.37741935483871,1.34838709677419,1.40322580645161,1.39354838709677,1.35483870967742,1.37741935483871,1.37741935483871,1.36774193548387,1.38387096774194,1.3741935483871,1.3741935483871,1.36774193548387,1.36451612903226,1.39354838709677,1.41612903225806,1.39032258064516,1.38387096774194,1.39354838709677,1.38387096774194,1.38387096774194,1.39354838709677,1.37096774193548,1.35483870967742,1.3741935483871,1.38064516129032,1.38064516129032,1.3741935483871,1.37096774193548,1.38064516129032,1.38064516129032,1.37741935483871,1.36451612903226,1.35161290322581,1.35161290322581,1.35483870967742,1.38064516129032,1.4,1.39032258064516,1.39032258064516,1.40322580645161,1.42258064516129,1.45161290322581,1.43548387096774,1.39354838709677,1.37096774193548,1.37096774193548,1.35806451612903,1.35161290322581,1.34838709677419,1.36774193548387,1.36129032258065,1.24193548387097,1.28387096774194,1.54838709677419,1.8,1.89032258064516,1.61290322580645,1.19354838709677,1.1741935483871,1.34838709677419,1.36774193548387,1.33870967741935,1.34838709677419,1.35806451612903,1.36451612903226,1.36774193548387,1.38064516129032,1.39354838709677,1.38064516129032,1.36774193548387,1.39354838709677,1.4,1.4,1.41935483870968,1.41935483870968,1.41935483870968,1.43548387096774,1.44838709677419,1.45483870967742,1.46129032258065,1.47096774193548,1.48387096774194,1.50645161290323,1.51612903225806,1.51612903225806,1.49677419354839,1.46451612903226,1.44516129032258,1.4258064516129,1.40967741935484,1.4,1.38064516129032,1.36451612903226,1.36451612903226,1.35483870967742,1.35161290322581,1.35161290322581,1.35161290322581,1.37096774193548,1.36129032258065,1.33548387096774,1.3741935483871,1.3741935483871,1.33548387096774,1.36451612903226,1.38709677419355,1.35161290322581,1.36451612903226,1.38064516129032,1.37096774193548,1.39677419354839,1.39032258064516,1.35483870967742,1.3741935483871,1.38709677419355,1.35161290322581,1.34193548387097,1.36129032258065,1.36129032258065,1.34516129032258,1.36129032258065,1.36451612903226,1.36451612903226,1.37096774193548,1.39677419354839,1.41612903225806,1.40645161290323,1.40967741935484,1.41935483870968,1.38387096774194,1.37096774193548,1.34838709677419,1.33870967741935,1.38064516129032,1.3741935483871,1.34838709677419,1.29032258064516,1.20967741935484,1.3741935483871,1.71612903225806,1.98064516129032,2.00322580645161,1.60322580645161,1.23548387096774,1.30967741935484,1.40967741935484,1.35806451612903,1.35483870967742,1.35483870967742,1.35806451612903,1.3741935483871,1.36451612903226,1.38387096774194,1.4,1.37741935483871,1.37741935483871,1.40322580645161,1.39354838709677,1.3741935483871,1.39677419354839,1.41935483870968,1.39354838709677,1.38709677419355,1.42258064516129,1.42903225806452,1.40645161290323,1.40322580645161,1.41290322580645,1.45161290322581,1.47096774193548,1.44838709677419,1.4258064516129,1.44193548387097,1.44516129032258,1.42258064516129,1.4,1.38064516129032,1.36774193548387,1.37096774193548,1.37096774193548,1.37096774193548,1.37741935483871,1.36129032258065,1.35161290322581,1.37096774193548,1.36451612903226,1.36451612903226,1.36451612903226,1.37096774193548,1.38064516129032,1.37096774193548,1.37096774193548,1.38387096774194,1.37096774193548,1.37096774193548,1.38387096774194,1.37096774193548,1.36451612903226,1.3741935483871,1.38387096774194,1.38387096774194,1.36451612903226,1.36451612903226,1.39032258064516,1.38387096774194,1.36774193548387,1.3741935483871,1.39032258064516,1.40322580645161,1.41935483870968,1.41935483870968,1.43870967741935,1.45483870967742,1.41290322580645,1.38709677419355,1.37741935483871,1.34838709677419,1.34193548387097,1.35483870967742,1.36451612903226,1.33225806451613,1.21935483870968,1.29677419354839,1.62903225806452,1.95161290322581,2.1,1.79032258064516,1.29677419354839,1.28387096774194,1.42903225806452,1.33870967741935,1.32258064516129,1.38709677419355,1.36451612903226,1.35806451612903,1.38387096774194,1.38709677419355,1.38709677419355,1.37741935483871,1.38387096774194,1.38709677419355,1.36774193548387,1.3741935483871,1.40645161290323,1.41290322580645,1.39354838709677,1.40645161290323,1.41935483870968,1.40322580645161,1.41290322580645,1.44193548387097,1.44193548387097,1.43225806451613,1.44193548387097,1.45806451612903,1.46774193548387,1.45806451612903,1.41290322580645,1.41290322580645,1.40967741935484,1.3741935483871,1.36451612903226,1.38387096774194,1.38709677419355,1.3741935483871,1.35483870967742,1.36451612903226,1.36774193548387,1.36451612903226,1.35806451612903,1.34516129032258,1.35483870967742,1.36774193548387,1.35483870967742,1.36451612903226,1.3741935483871,1.34838709677419,1.34516129032258,1.38064516129032,1.38387096774194,1.35806451612903,1.3741935483871,1.38387096774194,1.36451612903226,1.36451612903226,1.36451612903226,1.36129032258065,1.37096774193548,1.3741935483871,1.36451612903226,1.36451612903226,1.37096774193548,1.37096774193548,1.37096774193548,1.3741935483871,1.39032258064516,1.4,1.38709677419355,1.35483870967742,1.35483870967742,1.37741935483871,1.37741935483871,1.37096774193548,1.37096774193548,1.36774193548387,1.38064516129032,1.39677419354839,1.39677419354839,1.43225806451613,1.47096774193548,1.45161290322581,1.40322580645161,1.37741935483871,1.36129032258065,1.37096774193548,1.37741935483871,1.35806451612903,1.38387096774194,1.31290322580645,1.20645161290323,1.40645161290323,1.75161290322581,2.01612903225806,2.04516129032258,1.6,1.22903225806452,1.33870967741935,1.39354838709677,1.32258064516129,1.36774193548387,1.37741935483871,1.36451612903226,1.39032258064516,1.39032258064516,1.3741935483871,1.35806451612903,1.39032258064516,1.4258064516129,1.39354838709677,1.39032258064516,1.41935483870968,1.40967741935484,1.39354838709677,1.41935483870968,1.43870967741935,1.40967741935484,1.41612903225806,1.44838709677419,1.44516129032258,1.44516129032258,1.47096774193548,1.4741935483871,1.48387096774194,1.48064516129032,1.46129032258065,1.43870967741935,1.41935483870968,1.41612903225806,1.40967741935484,1.3741935483871,1.3741935483871,1.4,1.38387096774194,1.35483870967742,1.37096774193548,1.38387096774194,1.37096774193548,1.37096774193548,1.37096774193548,1.35483870967742,1.36129032258065,1.36129032258065,1.37096774193548,1.39032258064516,1.38709677419355,1.38709677419355,1.39032258064516,1.3741935483871,1.39032258064516,1.3741935483871,1.35161290322581,1.39032258064516,1.38387096774194,1.3741935483871,1.39677419354839,1.3741935483871,1.37096774193548,1.38387096774194,1.36129032258065,1.35483870967742,1.36451612903226,1.36451612903226,1.36129032258065,1.35483870967742,1.37096774193548,1.3741935483871,1.36129032258065,1.35483870967742,1.3741935483871,1.38387096774194,1.37096774193548,1.35483870967742,1.36451612903226,1.38064516129032,1.39354838709677,1.39032258064516,1.3741935483871,1.3741935483871,1.36451612903226,1.36451612903226,1.36774193548387,1.35483870967742,1.36451612903226,1.36774193548387,1.35806451612903,1.38064516129032,1.39032258064516,1.37741935483871,1.38387096774194,1.40967741935484,1.44838709677419,1.46451612903226,1.41290322580645,1.39354838709677,1.40322580645161,1.3741935483871,1.3741935483871,1.36774193548387,1.35161290322581,1.38387096774194,1.30322580645161,1.22903225806452,1.45806451612903,1.74838709677419,1.93870967741935,1.88064516129032,1.41612903225806,1.16129032258065,1.35806451612903,1.39677419354839,1.31290322580645,1.37096774193548,1.38064516129032,1.36129032258065,1.38709677419355,1.38064516129032,1.38064516129032,1.39677419354839,1.37741935483871,1.38064516129032,1.41290322580645,1.41290322580645,1.40967741935484,1.40967741935484,1.42258064516129,1.4258064516129,1.42258064516129,1.4258064516129,1.4258064516129,1.41935483870968,1.43225806451613,1.43548387096774,1.43548387096774,1.45483870967742,1.47096774193548,1.47096774193548,1.45161290322581,1.43548387096774,1.43548387096774,1.41935483870968,1.41612903225806,1.41612903225806,1.38064516129032,1.36451612903226,1.4,1.41612903225806,1.39032258064516,1.3741935483871,1.38064516129032,1.3741935483871,1.38064516129032,1.39354838709677,1.38387096774194,1.3741935483871,1.39032258064516,1.41290322580645,1.4258064516129,1.39354838709677,1.3741935483871,1.40322580645161,1.40967741935484,1.39032258064516,1.39354838709677,1.4,1.38064516129032,1.4,1.40967741935484,1.3741935483871,1.37741935483871,1.38387096774194,1.36451612903226,1.38387096774194,1.4,1.39032258064516,1.4,1.4,1.38387096774194,1.38387096774194,1.38387096774194,1.39032258064516,1.39032258064516,1.3741935483871,1.36774193548387,1.36451612903226,1.3741935483871,1.38387096774194,1.3741935483871,1.36774193548387,1.38064516129032,1.39032258064516,1.4,1.41290322580645,1.43548387096774,1.44516129032258,1.45806451612903,1.43548387096774,1.39354838709677,1.39032258064516,1.38064516129032,1.3741935483871,1.3741935483871,1.36451612903226,1.3741935483871,1.27096774193548,1.21935483870968,1.49032258064516,1.81290322580645,2.04838709677419,1.98709677419355,1.4741935483871,1.21935483870968,1.39032258064516,1.38387096774194,1.3258064516129,1.38064516129032,1.35161290322581,1.32903225806452,1.3741935483871,1.35483870967742,1.36129032258065,1.38709677419355,1.37096774193548,1.38064516129032,1.38064516129032,1.37096774193548,1.38709677419355,1.38064516129032,1.37741935483871,1.39032258064516,1.38064516129032,1.37741935483871,1.4,1.39677419354839,1.38709677419355,1.42258064516129,1.43225806451613,1.41612903225806,1.43548387096774,1.44838709677419,1.43548387096774,1.42258064516129,1.38064516129032,1.37741935483871,1.39354838709677,1.36129032258065,1.35161290322581,1.37741935483871,1.36129032258065,1.33225806451613,1.34838709677419,1.3741935483871,1.36129032258065,1.33870967741935,1.34193548387097,1.35161290322581,1.33225806451613,1.34193548387097,1.35806451612903,1.35161290322581,1.36451612903226,1.38387096774194,1.3741935483871,1.36451612903226,1.37741935483871,1.37741935483871,1.35483870967742,1.3741935483871,1.37741935483871,1.35806451612903,1.37741935483871,1.3741935483871,1.33870967741935,1.36451612903226,1.38387096774194,1.36451612903226,1.35483870967742,1.33870967741935,1.36451612903226,1.39354838709677,1.37741935483871,1.3741935483871,1.37741935483871,1.36774193548387,1.36451612903226,1.39032258064516,1.41290322580645,1.41290322580645,1.41935483870968,1.44516129032258,1.43548387096774,1.40322580645161,1.38387096774194,1.35483870967742,1.35806451612903,1.38387096774194,1.37741935483871,1.35806451612903,1.26451612903226,1.25806451612903,1.49354838709677,1.79677419354839,2.04516129032258,1.95161290322581,1.45806451612903,1.23870967741935,1.36774193548387,1.38709677419355,1.36129032258065,1.38709677419355,1.37741935483871,1.37096774193548,1.37741935483871,1.37741935483871,1.39354838709677,1.39032258064516,1.38064516129032,1.38709677419355,1.39677419354839,1.41612903225806,1.41935483870968,1.39677419354839,1.4,1.41935483870968,1.41935483870968,1.43548387096774,1.44516129032258,1.45483870967742,1.46774193548387,1.46774193548387,1.46451612903226,1.48387096774194,1.49354838709677,1.48709677419355,1.46129032258065,1.43548387096774,1.41935483870968,1.41612903225806,1.40967741935484,1.39354838709677,1.39032258064516,1.4,1.37741935483871,1.35806451612903,1.36129032258065,1.36774193548387,1.36451612903226,1.37096774193548,1.35483870967742,1.35806451612903,1.38387096774194,1.37741935483871,1.37741935483871,1.39677419354839,1.39032258064516,1.38387096774194,1.38387096774194,1.38709677419355,1.3741935483871,1.36774193548387,1.38064516129032,1.38064516129032,1.35806451612903,1.36774193548387,1.39677419354839,1.39032258064516,1.3741935483871,1.37096774193548,1.37741935483871,1.38387096774194,1.36774193548387,1.35161290322581,1.34838709677419,1.36129032258065,1.37741935483871,1.38064516129032,1.39032258064516,1.42258064516129,1.43548387096774,1.4,1.36774193548387,1.37096774193548,1.36451612903226,1.34838709677419,1.36129032258065,1.35483870967742,1.32903225806452,1.32258064516129,1.24193548387097,1.25483870967742,1.5258064516129,1.80322580645161,1.89677419354839,1.66774193548387,1.22903225806452,1.12258064516129
1.42258064516129,1.41290322580645,1.39677419354839,1.39677419354839,1.39032258064516,1.38064516129032,1.39032258064516,1.41290322580645,1.40645161290323,1.39032258064516,1.39677419354839,1.40645161290323,1.40645161290323,1.39032258064516,1.38709677419355,1.39032258064516,1.40322580645161,1.39032258064516,1.37096774193548,1.39677419354839,1.40645161290323,1.38064516129032,1.38709677419355,1.40645161290323,1.39677419354839,1.40322580645161,1.39677419354839,1.38064516129032,1.39354838709677,1.38709677419355,1.39354838709677,1.41290322580645,1.42258064516129,1.45161290322581,1.45161290322581,1.39354838709677,1.3258064516129,1.29677419354839,1.31290322580645,1.34838709677419,1.33870967741935,1.3258064516129,1.34193548387097,1.25161290322581,1.20645161290323,1.44838709677419,1.80967741935484,2.0741935483871,1.98387096774194,1.49677419354839,1.23870967741935,1.36129032258065,1.37096774193548,1.31612903225806,1.36774193548387,1.35161290322581,1.33225806451613,1.37741935483871,1.38387096774194,1.36774193548387,1.38387096774194,1.37741935483871,1.37096774193548,1.39354838709677,1.39677419354839,1.39677419354839,1.41290322580645,1.40322580645161,1.38387096774194,1.39354838709677,1.40645161290323,1.40322580645161,1.41612903225806,1.42258064516129,1.41290322580645,1.42258064516129,1.43870967741935,1.43225806451613,1.44838709677419,1.45806451612903,1.43225806451613,1.40645161290323,1.39677419354839,1.39677419354839,1.40322580645161,1.37741935483871,1.35806451612903,1.37741935483871,1.37741935483871,1.36774193548387,1.36774193548387,1.36129032258065,1.35806451612903,1.35161290322581,1.36774193548387,1.39677419354839,1.39354838709677,1.37741935483871,1.37741935483871,1.37741935483871,1.38387096774194,1.36774193548387,1.36774193548387,1.39677419354839,1.37741935483871,1.34838709677419,1.37741935483871,1.39677419354839,1.37741935483871,1.37741935483871,1.37096774193548,1.35161290322581,1.36129032258065,1.38709677419355,1.37096774193548,1.35161290322581,1.37741935483871,1.38064516129032,1.35161290322581,1.37741935483871,1.36774193548387,1.3258064516129,1.36129032258065,1.40322580645161,1.37096774193548,1.35806451612903,1.37741935483871,1.41612903225806,1.43225806451613,1.42258064516129,1.40322580645161,1.38064516129032,1.37096774193548,1.35806451612903,1.36774193548387,1.36129032258065,1.36129032258065,1.35806451612903,1.25161290322581,1.24193548387097,1.50645161290323,1.81290322580645,2.06451612903226,1.96451612903226,1.4258064516129,1.22258064516129,1.40645161290323,1.38709677419355,1.3258064516129,1.37096774193548,1.37741935483871,1.37741935483871,1.36774193548387,1.36774193548387,1.39677419354839,1.39677419354839,1.39032258064516,1.39677419354839,1.4,1.39032258064516,1.37741935483871,1.40645161290323,1.43225806451613,1.40967741935484,1.40645161290323,1.42258064516129,1.44193548387097,1.44516129032258,1.4258064516129,1.43548387096774,1.47096774193548,1.46451612903226,1.46129032258065,1.48064516129032,1.46451612903226,1.43548387096774,1.4258064516129,1.40645161290323,1.39032258064516,1.39032258064516,1.3741935483871,1.35483870967742,1.36451612903226,1.3741935483871,1.36129032258065,1.36451612903226,1.3741935483871,1.35161290322581,1.36129032258065,1.38709677419355,1.37096774193548,1.36451612903226,1.36451612903226,1.35161290322581,1.36451612903226,1.38709677419355,1.37096774193548,1.37096774193548,1.37096774193548,1.37096774193548,1.39032258064516,1.38709677419355,1.37096774193548,1.37096774193548,1.37096774193548,1.3741935483871,1.37096774193548,1.3741935483871,1.38064516129032,1.36129032258065,1.35161290322581,1.38064516129032,1.38709677419355,1.36451612903226,1.3741935483871,1.38709677419355,1.40645161290323,1.44516129032258,1.44516129032258,1.39032258064516,1.37096774193548,1.3741935483871,1.36129032258065,1.36129032258065,1.36129032258065,1.35483870967742,1.36451612903226,1.29032258064516,1.23548387096774,1.41935483870968,1.72258064516129,1.93225806451613,1.82903225806452,1.36129032258065,1.11935483870968,1.31935483870968,1.40967741935484,1.34516129032258,1.37741935483871,1.39032258064516,1.35483870967742,1.36129032258065,1.36451612903226,1.37096774193548,1.39032258064516,1.40645161290323,1.4,1.4,1.41612903225806,1.4258064516129,1.41612903225806,1.41612903225806,1.4258064516129,1.43225806451613,1.45161290322581,1.47096774193548,1.47096774193548,1.47096774193548,1.49677419354839,1.49677419354839,1.47741935483871,1.48709677419355,1.50322580645161,1.47741935483871,1.43548387096774,1.41612903225806,1.40645161290323,1.37741935483871,1.36774193548387,1.37096774193548,1.34838709677419,1.33548387096774,1.34193548387097,1.34193548387097,1.37096774193548,1.37741935483871,1.33548387096774,1.34193548387097,1.37741935483871,1.37741935483871,1.36129032258065,1.37741935483871,1.38709677419355,1.35161290322581,1.35161290322581,1.39677419354839,1.37096774193548,1.34838709677419,1.38387096774194,1.38387096774194,1.35806451612903,1.37741935483871,1.37741935483871,1.35806451612903,1.36129032258065,1.36129032258065,1.34838709677419,1.34193548387097,1.36129032258065,1.36774193548387,1.34838709677419,1.35806451612903,1.39354838709677,1.41935483870968,1.44193548387097,1.45161290322581,1.41935483870968,1.3741935483871,1.35161290322581,1.36451612903226,1.36451612903226,1.35161290322581,1.35161290322581,1.36774193548387,1.32258064516129,1.22258064516129,1.33870967741935,1.67096774193548,1.9741935483871,2.05161290322581,1.69032258064516,1.25806451612903,1.30322580645161,1.43870967741935,1.34193548387097,1.32903225806452,1.38387096774194,1.35806451612903,1.35483870967742,1.37741935483871,1.3741935483871,1.36774193548387,1.39354838709677,1.41290322580645,1.40967741935484,1.40967741935484,1.41290322580645,1.40322580645161,1.38387096774194,1.4,1.41935483870968,1.41935483870968,1.43225806451613,1.43225806451613,1.41290322580645,1.41290322580645,1.44838709677419,1.46451612903226,1.44838709677419,1.44516129032258,1.43870967741935,1.41935483870968,1.41935483870968,1.42903225806452,1.40967741935484,1.39354838709677,1.3741935483871,1.35806451612903,1.37741935483871,1.38387096774194,1.35483870967742,1.35806451612903,1.3741935483871,1.35806451612903,1.35806451612903,1.36451612903226,1.35806451612903,1.3741935483871,1.3741935483871,1.35161290322581,1.35806451612903,1.3741935483871,1.36774193548387,1.37741935483871,1.38387096774194,1.38387096774194,1.36774193548387,1.35161290322581,1.36774193548387,1.39354838709677,1.3741935483871,1.35161290322581,1.35806451612903,1.35161290322581,1.36129032258065,1.38709677419355,1.36774193548387,1.34838709677419,1.37741935483871,1.42258064516129,1.45161290322581,1.44193548387097,1.38064516129032,1.37741935483871,1.38064516129032,1.33225806451613,1.33548387096774,1.35806451612903,1.33548387096774,1.36774193548387,1.29677419354839,1.16129032258065,1.34516129032258,1.71290322580645,2,2.06451612903226,1.65806451612903,1.25161290322581,1.30967741935484,1.40645161290323,1.34516129032258,1.34193548387097,1.36129032258065,1.35161290322581,1.35161290322581,1.35483870967742,1.36451612903226,1.38709677419355,1.39677419354839,1.37096774193548,1.37096774193548,1.39032258064516,1.39677419354839,1.40645161290323,1.4,1.38387096774194,1.40967741935484,1.40645161290323,1.4,1.44516129032258,1.43548387096774,1.4258064516129,1.45483870967742,1.45483870967742,1.44838709677419,1.46129032258065,1.45483870967742,1.43870967741935,1.41612903225806,1.4,1.39354838709677,1.38064516129032,1.37096774193548,1.38064516129032,1.38064516129032,1.38387096774194,1.37096774193548,1.35483870967742,1.37096774193548,1.3741935483871,1.35806451612903,1.36774193548387,1.3741935483871,1.36774193548387,1.36451612903226,1.36774193548387,1.38387096774194,1.38387096774194,1.36451612903226,1.36774193548387,1.39354838709677,1.4,1.39032258064516,1.39354838709677,1.4,1.39032258064516,1.36451612903226,1.36774193548387,1.39032258064516,1.39032258064516,1.38387096774194,1.39032258064516,1.39032258064516,1.38387096774194,1.36774193548387,1.36774193548387,1.38064516129032,1.36451612903226,1.36774193548387,1.38387096774194,1.3741935483871,1.36451612903226,1.3741935483871,1.38387096774194,1.39032258064516,1.38064516129032,1.3741935483871,1.39032258064516,1.40322580645161,1.4258064516129,1.44838709677419,1.44516129032258,1.4,1.38064516129032,1.37096774193548,1.34838709677419,1.35483870967742,1.34838709677419,1.35483870967742,1.3258064516129,1.22903225806452,1.3258064516129,1.62903225806452,1.90645161290323,1.98387096774194,1.63548387096774,1.21935483870968,1.26129032258065,1.3741935483871,1.34516129032258,1.38709677419355,1.39032258064516,1.34516129032258,1.39032258064516,1.40645161290323,1.38064516129032,1.39032258064516,1.4,1.4,1.39032258064516,1.4,1.42258064516129,1.41612903225806,1.40645161290323,1.42258064516129,1.43548387096774,1.43225806451613,1.43548387096774,1.45161290322581,1.46129032258065,1.47096774193548,1.48387096774194,1.49354838709677,1.50322580645161,1.49677419354839,1.47741935483871,1.46774193548387,1.44193548387097,1.42258064516129,1.41935483870968,1.40645161290323,1.39354838709677,1.37741935483871,1.36774193548387,1.38387096774194,1.37741935483871,1.35806451612903,1.36774193548387,1.38387096774194,1.37741935483871,1.3741935483871,1.37741935483871,1.36774193548387,1.36774193548387,1.38387096774194,1.4,1.4,1.39354838709677,1.40322580645161,1.39354838709677,1.37096774193548,1.38064516129032,1.37096774193548,1.33870967741935,1.37096774193548,1.38387096774194,1.36451612903226,1.37096774193548,1.37096774193548,1.36451612903226,1.36451612903226,1.36451612903226,1.3741935483871,1.37096774193548,1.36451612903226,1.39032258064516,1.4258064516129,1.42903225806452,1.4,1.3741935483871,1.37096774193548,1.37096774193548,1.36451612903226,1.35161290322581,1.33548387096774,1.36129032258065,1.30645161290323,1.21612903225806,1.36451612903226,1.68709677419355,1.94193548387097,1.95806451612903,1.55483870967742,1.18709677419355,1.29032258064516,1.39032258064516,1.30967741935484,1.3258064516129,1.35483870967742,1.34516129032258,1.36774193548387,1.36774193548387,1.34193548387097,1.34516129032258,1.37096774193548,1.37096774193548,1.36129032258065,1.37741935483871,1.38064516129032,1.38064516129032,1.38709677419355,1.37096774193548,1.36129032258065,1.39032258064516,1.4,1.39032258064516,1.40967741935484,1.4258064516129,1.43548387096774,1.44516129032258,1.44516129032258,1.45161290322581,1.45483870967742,1.43225806451613,1.4,1.38064516129032,1.39032258064516,1.39677419354839,1.3741935483871,1.37096774193548,1.36129032258065,1.34516129032258,1.37096774193548,1.3741935483871,1.35483870967742,1.36129032258065,1.36129032258065,1.36451612903226,1.37096774193548,1.34838709677419,1.36451612903226,1.39032258064516,1.3741935483871,1.38064516129032,1.4,1.39354838709677,1.38064516129032,1.36451612903226,1.36451612903226,1.38387096774194,1.39032258064516,1.39032258064516,1.38709677419355,1.38387096774194,1.37741935483871,1.37741935483871,1.36774193548387,1.3741935483871,1.38709677419355,1.3741935483871,1.36451612903226,1.38387096774194,1.3741935483871,1.36774193548387,1.37741935483871,1.36774193548387,1.37741935483871,1.39354838709677,1.40645161290323,1.45161290322581,1.45806451612903,1.41290322580645,1.40645161290323,1.39032258064516,1.37096774193548,1.38064516129032,1.37096774193548,1.35483870967742,1.39032258064516,1.33548387096774,1.2258064516129,1.36129032258065,1.70967741935484,2.00967741935484,2.06451612903226,1.70645161290323,1.30967741935484,1.3,1.39677419354839,1.36451612903226,1.35483870967742,1.37096774193548,1.3741935483871,1.38387096774194,1.38387096774194,1.39032258064516,1.38387096774194,1.39354838709677,1.41935483870968,1.39354838709677,1.3741935483871,1.4,1.39354838709677,1.38387096774194,1.40967741935484,1.41290322580645,1.40322580645161,1.40322580645161,1.41290322580645,1.4258064516129,1.43548387096774,1.43870967741935,1.45806451612903,1.46774193548387,1.44516129032258,1.44516129032258,1.45806451612903,1.45806451612903,1.44516129032258,1.40322580645161,1.37741935483871,1.39032258064516,1.39354838709677,1.38387096774194,1.36451612903226,1.34838709677419,1.36774193548387,1.36451612903226,1.35806451612903,1.37741935483871,1.3741935483871,1.36451612903226,1.36451612903226,1.3741935483871,1.39032258064516,1.36774193548387,1.35483870967742,1.3741935483871,1.36774193548387,1.37741935483871,1.40322580645161,1.35806451612903,1.35806451612903,1.4,1.36774193548387,1.34516129032258,1.37741935483871,1.38387096774194,1.35806451612903,1.35483870967742,1.38064516129032,1.39354838709677,1.38064516129032,1.36451612903226,1.36774193548387,1.35806451612903,1.36774193548387,1.38387096774194,1.35483870967742,1.34838709677419,1.39032258064516,1.39354838709677,1.38387096774194,1.4,1.4258064516129,1.43870967741935,1.45483870967742,1.43870967741935,1.4,1.38064516129032,1.37096774193548,1.37096774193548,1.3741935483871,1.3741935483871,1.35483870967742,1.25161290322581,1.23548387096774,1.49677419354839,1.81290322580645,2.02258064516129,1.92258064516129,1.42903225806452,1.18387096774194,1.35483870967742,1.39032258064516,1.34516129032258,1.37741935483871,1.35161290322581,1.36451612903226,1.4,1.36129032258065,1.37741935483871,1.39677419354839,1.38064516129032,1.39032258064516,1.39677419354839,1.39677419354839,1.42258064516129,1.4258064516129,1.40645161290323,1.42258064516129,1.43225806451613,1.42258064516129,1.43548387096774,1.44838709677419,1.44193548387097,1.45161290322581,1.46129032258065,1.46774193548387,1.48387096774194,1.47096774193548,1.43870967741935,1.41612903225806,1.41612903225806,1.40645161290323,1.38709677419355,1.37741935483871,1.37096774193548,1.3741935483871,1.35806451612903,1.35161290322581,1.37741935483871,1.3741935483871,1.35806451612903,1.3741935483871,1.36129032258065,1.34838709677419,1.36451612903226,1.37741935483871,1.36774193548387,1.35161290322581,1.35806451612903,1.36451612903226,1.36774193548387,1.3741935483871,1.36451612903226,1.36451612903226,1.37741935483871,1.36774193548387,1.35806451612903,1.34193548387097,1.35483870967742,1.37741935483871,1.36451612903226,1.33870967741935,1.35806451612903,1.36774193548387,1.36451612903226,1.35806451612903,1.33225806451613,1.33870967741935,1.36451612903226,1.34838709677419,1.36451612903226,1.38709677419355,1.37741935483871,1.38387096774194,1.36774193548387,1.30322580645161,1.30967741935484,1.32903225806452,1.32258064516129,1.34193548387097,1.33870967741935,1.33870967741935,1.34193548387097,1.23870967741935,1.26451612903226,1.55483870967742,1.83225806451613,1.95483870967742,1.7258064516129,1.26774193548387,1.21290322580645,1.40967741935484,1.36451612903226,1.33870967741935,1.39354838709677,1.36451612903226,1.35483870967742,1.38709677419355,1.40322580645161,1.40322580645161,1.39354838709677,1.4,1.40322580645161,1.40967741935484,1.43225806451613,1.43870967741935,1.43870967741935,1.42258064516129,1.41935483870968,1.45483870967742,1.46451612903226,1.43870967741935,1.45806451612903,1.48387096774194,1.47741935483871,1.47741935483871,1.46774193548387,1.46774193548387,1.48387096774194,1.45806451612903,1.43870967741935,1.44193548387097,1.42258064516129,1.39354838709677,1.40967741935484,1.41935483870968,1.3741935483871,1.34838709677419,1.37741935483871,1.39354838709677,1.3741935483871,1.37741935483871,1.39354838709677,1.39354838709677,1.38709677419355,1.38387096774194,1.38709677419355,1.40322580645161,1.39354838709677,1.37741935483871,1.39677419354839,1.40967741935484,1.3741935483871,1.36774193548387,1.39677419354839,1.40322580645161,1.40322580645161,1.39354838709677,1.3741935483871,1.36774193548387,1.3741935483871,1.37741935483871,1.38709677419355,1.37741935483871,1.36774193548387,1.38387096774194,1.40967741935484,1.37741935483871,1.36774193548387,1.4,1.38709677419355,1.36774193548387,1.37741935483871,1.3741935483871,1.40322580645161,1.43225806451613,1.43225806451613,1.43870967741935,1.42258064516129,1.37741935483871,1.35806451612903,1.3741935483871,1.38387096774194,1.35483870967742,1.34838709677419,1.35483870967742,1.24838709677419,1.25483870967742,1.54838709677419,1.88709677419355,2.09032258064516,1.9,1.40322580645161,1.26451612903226,1.40322580645161,1.38064516129032,1.34516129032258,1.36774193548387,1.34838709677419,1.34838709677419,1.39032258064516,1.39354838709677,1.36774193548387,1.34838709677419,1.3741935483871,1.39032258064516,1.37096774193548,1.37096774193548,1.39032258064516,1.39354838709677,1.4,1.39032258064516,1.39032258064516,1.39032258064516,1.38064516129032,1.39032258064516,1.40967741935484,1.41935483870968,1.42903225806452,1.43548387096774,1.42903225806452,1.4258064516129,1.41612903225806,1.41612903225806,1.41612903225806,1.39354838709677,1.3741935483871,1.3741935483871,1.38064516129032,1.38064516129032,1.3741935483871,1.35483870967742,1.34516129032258,1.35806451612903,1.34516129032258,1.33548387096774,1.35483870967742,1.34838709677419,1.35806451612903,1.37096774193548,1.34838709677419,1.35483870967742,1.36451612903226,1.36774193548387,1.38064516129032,1.3741935483871,1.3741935483871,1.3741935483871,1.3741935483871,1.36774193548387,1.36451612903226,1.3741935483871,1.36451612903226,1.36451612903226,1.3741935483871,1.35806451612903,1.36451612903226,1.3741935483871,1.35806451612903,1.36774193548387,1.38387096774194,1.38387096774194,1.3741935483871,1.36774193548387,1.37741935483871,1.39354838709677,1.41935483870968,1.45161290322581,1.43870967741935,1.38387096774194,1.38387096774194,1.38387096774194,1.36129032258065,1.37096774193548,1.35161290322581,1.36129032258065,1.35806451612903,1.2258064516129,1.28064516129032,1.60322580645161,1.9,2.06774193548387,1.82258064516129,1.33548387096774,1.26129032258065,1.41290322580645,1.37741935483871,1.34516129032258,1.36451612903226,1.35483870967742,1.36129032258065,1.37096774193548,1.3741935483871,1.39032258064516,1.39032258064516,1.39677419354839,1.38387096774194,1.36451612903226,1.39032258064516,1.4258064516129,1.41612903225806,1.40322580645161,1.40322580645161,1.40322580645161,1.4258064516129,1.43870967741935,1.44516129032258,1.42903225806452,1.43870967741935,1.46774193548387,1.45483870967742,1.45483870967742,1.47741935483871,1.44193548387097,1.40967741935484,1.41935483870968,1.41290322580645,1.38387096774194,1.36129032258065,1.37096774193548,1.37741935483871,1.36774193548387,1.35806451612903,1.35161290322581,1.36129032258065,1.36129032258065,1.35806451612903,1.36129032258065,1.37741935483871,1.38709677419355,1.37096774193548,1.36129032258065,1.36774193548387,1.35161290322581,1.34516129032258,1.37741935483871,1.37096774193548,1.35483870967742,1.37096774193548,1.38064516129032,1.37096774193548,1.36129032258065,1.37096774193548,1.39677419354839,1.39032258064516,1.35161290322581,1.36129032258065,1.4,1.38064516129032,1.36129032258065,1.36129032258065,1.35161290322581,1.38387096774194,1.39354838709677,1.33870967741935,1.35483870967742,1.41935483870968,1.42903225806452,1.44516129032258,1.45483870967742,1.42903225806452,1.40645161290323,1.38387096774194,1.38064516129032,1.38387096774194,1.37096774193548,1.34516129032258,1.3741935483871,1.34516129032258,1.22903225806452,1.34516129032258,1.66774193548387,1.91612903225806,1.93225806451613,1.54516129032258,1.16451612903226,1.25483870967742,1.39677419354839,1.36129032258065,1.36129032258065,1.37096774193548,1.37096774193548,1.37096774193548,1.37096774193548,1.38709677419355,1.38709677419355,1.38709677419355,1.41290322580645,1.40645161290323,1.40322580645161,1.4258064516129,1.4258064516129,1.41612903225806,1.42903225806452,1.44193548387097,1.44193548387097,1.44838709677419,1.46451612903226,1.47741935483871,1.48387096774194,1.4741935483871,1.49032258064516,1.51290322580645,1.48387096774194,1.45483870967742,1.46129032258065,1.43548387096774,1.4,1.41612903225806,1.4,1.36129032258065,1.35483870967742,1.35483870967742,1.35483870967742,1.37741935483871,1.37096774193548,1.35806451612903,1.35806451612903,1.35806451612903,1.37741935483871,1.38709677419355,1.35161290322581,1.36451612903226,1.38709677419355,1.3741935483871,1.38387096774194,1.37741935483871,1.36451612903226,1.3741935483871,1.38064516129032,1.3741935483871,1.3741935483871,1.36129032258065,1.34516129032258,1.35161290322581,1.36451612903226,1.36451612903226,1.35161290322581,1.36451612903226,1.37741935483871,1.36129032258065,1.38064516129032,1.36129032258065,1.33225806451613,1.37741935483871,1.38709677419355,1.37096774193548,1.42258064516129,1.43548387096774,1.40645161290323,1.40645161290323,1.37741935483871,1.35806451612903,1.36774193548387,1.35161290322581,1.34193548387097,1.36774193548387,1.32258064516129,1.21612903225806,1.3,1.62258064516129,1.90967741935484,2.00322580645161,1.73225806451613,1.29032258064516,1.24838709677419,1.41612903225806,1.34838709677419,1.30967741935484,1.37741935483871,1.35806451612903,1.34838709677419,1.3741935483871,1.37096774193548,1.37096774193548,1.36129032258065,1.36451612903226
