1.40645161290323,1.41290322580645,1.39354838709677,1.4,1.39677419354839,1.39677419354839,1.40967741935484,1.39032258064516,1.39032258064516,1.4,1.39032258064516,1.39032258064516,1.39677419354839,1.39354838709677,1.39354838709677,1.37741935483871,1.38064516129032,1.37741935483871,1.37741935483871,1.36451612903226,1.37741935483871,1.36774193548387,1.3741935483871,1.37741935483871,1.3741935483871,1.3741935483871,1.37741935483871,1.37096774193548,1.37741935483871,1.37096774193548,1.3741935483871,1.36451612903226,1.36774193548387,1.37096774193548,1.36129032258065,1.36451612903226,1.37096774193548,1.36451612903226,1.36451612903226,1.36451612903226,1.34838709677419,1.36129032258065,1.35806451612903,1.35806451612903,1.36129032258065,1.36451612903226,1.38387096774194,1.38709677419355,1.39032258064516,1.39354838709677,1.41290322580645,1.44193548387097,1.46129032258065,1.46774193548387,1.45483870967742,1.45483870967742,1.44193548387097,1.41612903225806,1.38064516129032,1.3741935483871,1.37096774193548,1.36774193548387,1.36129032258065,1.36451612903226,1.36451612903226,1.37096774193548,1.36774193548387,1.36451612903226,1.35806451612903,1.34516129032258,1.39677419354839,1.59354838709677,2.03225806451613,2.46774193548387,2.58387096774194,2.4258064516129,1.75806451612903,1.39677419354839,1.25161290322581,1.2741935483871,1.30322580645161,1.31612903225806,1.32903225806452,1.34193548387097,1.32903225806452,1.34838709677419,1.32903225806452,1.33870967741935,1.33225806451613,1.33870967741935,1.32903225806452,1.33548387096774,1.33548387096774,1.33548387096774,1.33870967741935,1.32258064516129,1.32258064516129,1.31612903225806,1.30967741935484,1.32258064516129,1.31290322580645,1.31612903225806,1.31290322580645,1.30322580645161,1.29677419354839,1.29677419354839,1.3,1.30322580645161,1.30322580645161,1.31935483870968,1.32903225806452,1.34516129032258,1.3741935483871,1.39677419354839,1.4258064516129,1.44193548387097,1.45483870967742,1.46451612903226,1.45161290322581,1.43548387096774,1.41935483870968,1.40967741935484,1.40322580645161,1.39032258064516,1.38387096774194,1.38709677419355,1.38709677419355,1.38387096774194,1.38387096774194,1.37741935483871,1.36451612903226,1.35806451612903,1.35806451612903,1.35806451612903,1.36129032258065,1.36451612903226,1.36774193548387,1.36129032258065,1.37096774193548,1.36129032258065,1.36774193548387,1.36451612903226,1.35483870967742,1.35806451612903,1.36129032258065,1.35161290322581,1.35806451612903,1.35161290322581,1.35161290322581,1.36451612903226,1.34838709677419,1.35161290322581,1.33870967741935,1.35161290322581,1.33870967741935,1.35483870967742,1.36129032258065,1.35161290322581,1.35161290322581,1.36129032258065,1.34838709677419,1.34516129032258,1.33548387096774,1.33870967741935,1.33870967741935,1.35483870967742,1.35161290322581,1.33870967741935,1.34838709677419,1.34193548387097,1.35806451612903,1.36774193548387,1.38064516129032,1.38387096774194,1.38387096774194,1.40322580645161,1.41290322580645,1.44838709677419,1.44838709677419,1.45161290322581,1.44838709677419,1.44193548387097,1.42258064516129,1.38709677419355,1.34838709677419,1.36774193548387,1.35806451612903,1.36451612903226,1.34193548387097,1.35483870967742,1.34516129032258,1.33870967741935,1.34193548387097,1.34193548387097,1.34516129032258,1.33548387096774,1.44838709677419,1.7741935483871,2.26451612903226,2.58064516129032,2.54516129032258,2.20967741935484,1.60967741935484,1.28387096774194,1.24516129032258,1.26451612903226,1.29032258064516,1.30322580645161,1.3258064516129,1.3258064516129,1.32258064516129,1.32903225806452,1.31612903225806,1.33225806451613,1.33548387096774,1.33548387096774,1.33870967741935,1.34516129032258,1.33548387096774,1.32258064516129,1.3258064516129,1.33225806451613,1.31612903225806,1.32258064516129,1.32258064516129,1.3258064516129,1.31612903225806,1.31290322580645,1.30645161290323,1.29354838709677,1.29032258064516,1.29354838709677,1.28709677419355,1.28387096774194,1.30967741935484,1.30645161290323,1.32903225806452,1.34838709677419,1.36129032258065,1.39032258064516,1.4258064516129,1.43548387096774,1.45806451612903,1.45806451612903,1.45483870967742,1.4258064516129,1.41935483870968,1.42258064516129,1.4,1.41290322580645,1.39354838709677,1.39032258064516,1.39354838709677,1.4,1.39032258064516,1.38064516129032,1.39032258064516,1.40645161290323,1.40645161290323,1.38709677419355,1.37741935483871,1.38387096774194,1.39677419354839,1.39677419354839,1.39354838709677,1.38064516129032,1.39677419354839,1.4,1.38709677419355,1.39354838709677,1.39032258064516,1.38709677419355,1.38387096774194,1.38387096774194,1.37741935483871,1.3741935483871,1.3741935483871,1.38064516129032,1.36774193548387,1.37741935483871,1.36774193548387,1.37741935483871,1.37096774193548,1.38387096774194,1.37741935483871,1.37741935483871,1.38064516129032,1.37741935483871,1.38064516129032,1.38709677419355,1.39032258064516,1.39032258064516,1.39032258064516,1.39032258064516,1.38709677419355,1.40322580645161,1.40967741935484,1.41612903225806,1.42258064516129,1.44516129032258,1.45806451612903,1.44838709677419,1.43870967741935,1.43870967741935,1.41935483870968,1.38709677419355,1.36451612903226,1.37096774193548,1.36129032258065,1.35483870967742,1.34838709677419,1.34838709677419,1.35161290322581,1.35806451612903,1.34838709677419,1.35161290322581,1.35161290322581,1.33548387096774,1.42903225806452,1.71935483870968,2.21612903225806,2.53225806451613,2.49354838709677,2.12903225806452,1.53225806451613,1.2258064516129,1.21612903225806,1.25806451612903,1.27741935483871,1.29354838709677,1.31612903225806,1.33548387096774,1.31935483870968,1.32903225806452,1.3258064516129,1.3258064516129,1.3258064516129,1.3258064516129,1.31290322580645,1.32258064516129,1.31612903225806,1.31290322580645,1.30967741935484,1.30322580645161,1.31290322580645,1.3,1.30645161290323,1.30967741935484,1.30645161290323,1.3,1.31612903225806,1.31935483870968,1.31612903225806,1.30645161290323,1.30322580645161,1.31612903225806,1.3258064516129,1.33548387096774,1.33870967741935,1.35806451612903,1.38387096774194,1.40967741935484,1.43548387096774,1.44838709677419,1.45806451612903,1.45806451612903,1.44838709677419,1.43225806451613,1.42258064516129,1.41290322580645,1.40645161290323,1.40967741935484,1.39032258064516,1.38709677419355,1.40645161290323,1.39354838709677,1.38709677419355,1.3741935483871,1.37741935483871,1.37741935483871,1.38387096774194,1.39032258064516,1.38064516129032,1.38387096774194,1.38064516129032,1.3741935483871,1.3741935483871,1.37096774193548,1.36451612903226,1.36451612903226,1.35806451612903,1.36129032258065,1.36451612903226,1.36129032258065,1.36451612903226,1.35806451612903,1.35806451612903,1.36129032258065,1.35483870967742,1.35161290322581,1.35806451612903,1.34516129032258,1.35483870967742,1.36129032258065,1.3741935483871,1.3741935483871,1.36774193548387,1.36774193548387,1.35806451612903,1.3741935483871,1.3741935483871,1.36129032258065,1.35483870967742,1.35483870967742,1.35161290322581,1.36129032258065,1.37096774193548,1.37096774193548,1.3741935483871,1.36129032258065,1.38064516129032,1.37741935483871,1.39354838709677,1.39354838709677,1.41290322580645,1.42903225806452,1.44516129032258,1.45161290322581,1.45161290322581,1.44516129032258,1.43225806451613,1.41612903225806,1.38387096774194,1.36129032258065,1.36451612903226,1.36129032258065,1.36129032258065,1.35483870967742,1.35483870967742,1.35483870967742,1.34838709677419,1.35483870967742,1.35806451612903,1.34516129032258,1.3741935483871,1.56451612903226,1.97096774193548,2.44838709677419,2.60322580645161,2.4741935483871,1.8258064516129,1.46451612903226,1.2741935483871,1.25161290322581,1.28387096774194,1.30645161290323,1.30322580645161,1.31935483870968,1.3258064516129,1.32258064516129,1.32258064516129,1.31935483870968,1.3258064516129,1.32258064516129,1.31935483870968,1.31935483870968,1.32903225806452,1.31290322580645,1.33225806451613,1.31612903225806,1.31612903225806,1.31290322580645,1.31290322580645,1.32258064516129,1.30322580645161,1.31935483870968,1.3258064516129,1.31935483870968,1.30322580645161,1.3,1.30322580645161,1.30967741935484,1.30645161290323,1.31612903225806,1.32903225806452,1.34838709677419,1.3741935483871,1.40322580645161,1.42258064516129,1.42903225806452,1.45161290322581,1.46451612903226,1.43870967741935,1.44516129032258,1.43548387096774,1.41290322580645,1.40322580645161,1.38709677419355,1.39677419354839,1.4,1.38387096774194,1.38387096774194,1.3741935483871,1.37096774193548,1.36451612903226,1.36774193548387,1.3741935483871,1.37096774193548,1.3741935483871,1.38387096774194,1.36774193548387,1.36774193548387,1.38709677419355,1.37741935483871,1.37741935483871,1.38709677419355,1.3741935483871,1.36451612903226,1.36451612903226,1.36774193548387,1.3741935483871,1.36451612903226,1.35806451612903,1.37096774193548,1.3741935483871,1.37741935483871,1.37096774193548,1.36774193548387,1.36774193548387,1.35483870967742,1.36451612903226,1.3741935483871,1.36451612903226,1.36129032258065,1.35806451612903,1.36774193548387,1.36129032258065,1.36774193548387,1.35806451612903,1.34838709677419,1.36129032258065,1.35806451612903,1.36129032258065,1.38064516129032,1.3741935483871,1.39032258064516,1.4,1.40967741935484,1.41935483870968,1.45806451612903,1.46451612903226,1.46774193548387,1.46451612903226,1.44838709677419,1.43548387096774,1.42903225806452,1.38387096774194,1.35806451612903,1.36451612903226,1.34838709677419,1.35483870967742,1.35161290322581,1.34516129032258,1.33548387096774,1.36774193548387,1.35483870967742,1.36129032258065,1.33225806451613,1.37741935483871,1.6,2.05806451612903,2.50645161290323,2.58387096774194,2.39677419354839,1.67096774193548,1.3258064516129,1.19677419354839,1.27096774193548,1.28387096774194,1.30645161290323,1.32258064516129,1.31935483870968,1.32903225806452,1.3258064516129,1.33548387096774,1.33548387096774,1.33870967741935,1.34193548387097,1.33548387096774,1.33870967741935,1.33548387096774,1.33548387096774,1.33548387096774,1.34193548387097,1.3258064516129,1.32903225806452,1.32903225806452,1.33548387096774,1.3258064516129,1.32258064516129,1.31935483870968,1.31290322580645,1.31612903225806,1.30645161290323,1.3,1.31935483870968,1.31935483870968,1.30967741935484,1.3258064516129,1.34193548387097,1.36774193548387,1.39354838709677,1.41290322580645,1.44193548387097,1.44516129032258,1.44838709677419,1.44193548387097,1.42903225806452,1.41612903225806,1.42258064516129,1.4,1.39354838709677,1.39677419354839,1.38709677419355,1.38709677419355,1.38709677419355,1.38387096774194,1.38064516129032,1.37096774193548,1.38387096774194,1.39032258064516,1.38709677419355,1.38709677419355,1.38064516129032,1.38064516129032,1.36774193548387,1.3741935483871,1.36774193548387,1.37096774193548,1.36774193548387,1.36451612903226,1.36451612903226,1.36451612903226,1.37741935483871,1.36451612903226,1.36774193548387,1.36774193548387,1.37096774193548,1.36451612903226,1.36129032258065,1.35806451612903,1.35806451612903,1.36129032258065,1.35483870967742,1.35161290322581,1.36774193548387,1.36451612903226,1.36774193548387,1.35483870967742,1.35806451612903,1.35806451612903,1.35806451612903,1.36129032258065,1.36774193548387,1.36451612903226,1.36774193548387,1.37096774193548,1.37741935483871,1.36451612903226,1.37741935483871,1.37741935483871,1.39032258064516,1.4,1.4,1.41290322580645,1.43548387096774,1.44838709677419,1.45806451612903,1.44516129032258,1.44516129032258,1.42903225806452,1.4,1.36774193548387,1.36129032258065,1.35161290322581,1.34838709677419,1.34838709677419,1.34193548387097,1.34193548387097,1.34516129032258,1.34838709677419,1.35483870967742,1.34838709677419,1.34193548387097,1.4,1.60967741935484,2.06451612903226,2.50322580645161,2.60322580645161,2.39354838709677,1.73225806451613,1.36774193548387,1.24838709677419,1.25483870967742,1.29677419354839,1.30322580645161,1.3258064516129,1.32903225806452,1.33548387096774,1.33225806451613,1.33870967741935,1.34516129032258,1.32903225806452,1.32258064516129,1.33870967741935,1.31290322580645,1.31290322580645,1.32903225806452,1.3258064516129,1.30967741935484,1.31290322580645,1.3258064516129,1.30967741935484,1.30645161290323,1.30322580645161,1.31290322580645,1.30322580645161,1.30645161290323,1.29032258064516,1.30322580645161,1.30967741935484,1.30645161290323,1.30322580645161,1.3,1.32903225806452,1.34838709677419,1.37096774193548,1.4,1.4258064516129,1.44516129032258,1.46129032258065,1.46129032258065,1.44838709677419,1.44516129032258,1.43225806451613,1.42258064516129,1.41612903225806,1.39354838709677,1.40322580645161,1.39032258064516,1.39354838709677,1.38709677419355,1.38064516129032,1.38064516129032,1.38064516129032,1.38709677419355,1.3741935483871,1.3741935483871,1.37741935483871,1.37741935483871,1.39032258064516,1.37741935483871,1.37096774193548,1.36774193548387,1.37096774193548,1.37741935483871,1.38709677419355,1.37741935483871,1.37096774193548,1.3741935483871,1.37096774193548,1.36451612903226,1.36774193548387,1.36774193548387,1.36774193548387,1.36774193548387,1.35483870967742,1.36129032258065,1.35483870967742,1.36129032258065,1.35483870967742,1.3741935483871,1.36451612903226,1.3741935483871,1.35806451612903,1.34838709677419,1.36129032258065,1.36451612903226,1.36451612903226,1.36774193548387,1.36774193548387,1.34516129032258,1.34838709677419,1.35161290322581,1.35806451612903,1.38387096774194,1.37741935483871,1.37741935483871,1.39032258064516,1.39677419354839,1.40967741935484,1.41290322580645,1.45806451612903,1.46129032258065,1.46129032258065,1.47096774193548,1.45483870967742,1.43870967741935,1.40322580645161,1.36129032258065,1.36451612903226,1.34838709677419,1.35161290322581,1.34516129032258,1.34838709677419,1.33870967741935,1.34838709677419,1.35161290322581,1.36451612903226,1.35483870967742,1.35483870967742,1.48709677419355,1.81612903225806,2.34516129032258,2.59354838709677,2.51612903225806,2.12903225806452,1.52903225806452,1.28387096774194,1.23548387096774,1.24838709677419,1.28064516129032,1.30645161290323,1.32903225806452,1.32258064516129,1.31290322580645,1.3258064516129,1.31935483870968,1.32258064516129,1.31935483870968,1.33870967741935,1.33870967741935,1.33225806451613,1.33548387096774,1.31935483870968,1.32258064516129,1.3258064516129,1.31612903225806,1.30967741935484,1.29354838709677,1.31290322580645,1.30322580645161,1.3,1.28709677419355,1.28709677419355,1.29354838709677,1.28709677419355,1.28709677419355,1.29354838709677,1.27741935483871,1.30322580645161,1.3258064516129,1.34838709677419,1.37741935483871,1.4,1.43548387096774,1.45483870967742,1.44516129032258,1.44838709677419,1.44838709677419,1.43548387096774,1.41935483870968,1.42258064516129,1.39032258064516,1.39032258064516,1.38709677419355,1.39677419354839,1.39677419354839,1.38709677419355,1.39354838709677,1.38064516129032,1.38387096774194,1.38064516129032,1.38387096774194,1.39677419354839,1.38064516129032,1.38387096774194,1.39677419354839,1.38709677419355,1.38709677419355,1.38709677419355,1.38387096774194,1.3741935483871,1.38387096774194,1.39032258064516,1.37741935483871,1.38064516129032,1.38064516129032,1.38064516129032,1.38709677419355,1.38387096774194,1.39032258064516,1.37096774193548,1.35806451612903,1.38387096774194,1.38064516129032,1.37741935483871,1.3741935483871,1.37741935483871,1.38709677419355,1.38064516129032,1.38387096774194,1.37741935483871,1.3741935483871,1.37741935483871,1.37741935483871,1.37096774193548,1.36451612903226,1.37096774193548,1.3741935483871,1.37096774193548,1.39032258064516,1.4,1.4,1.4,1.41935483870968,1.43548387096774,1.44838709677419,1.46129032258065,1.46129032258065,1.45806451612903,1.43225806451613,1.39354838709677,1.3741935483871,1.36774193548387,1.36774193548387,1.36451612903226,1.36451612903226,1.35161290322581,1.35483870967742,1.35806451612903,1.35161290322581,1.35161290322581,1.34838709677419,1.34838709677419,1.38064516129032,1.5741935483871,2.01935483870968,2.46774193548387,2.55483870967742,2.38387096774194,1.68387096774194,1.32258064516129,1.2,1.23870967741935,1.27741935483871,1.29032258064516,1.29032258064516,1.30645161290323,1.31290322580645,1.30967741935484,1.31612903225806,1.31935483870968,1.31612903225806,1.31612903225806,1.31290322580645,1.31290322580645,1.31612903225806,1.30967741935484,1.3,1.30645161290323,1.31612903225806,1.30645161290323,1.30322580645161,1.30645161290323,1.30967741935484,1.30322580645161,1.30322580645161,1.30967741935484,1.3,1.30322580645161,1.30967741935484,1.31290322580645,1.31612903225806,1.31935483870968,1.33870967741935,1.36451612903226,1.38064516129032,1.40967741935484,1.43870967741935,1.45161290322581,1.45161290322581,1.45483870967742,1.44516129032258,1.43225806451613,1.43225806451613,1.41935483870968,1.40967741935484,1.40322580645161,1.38709677419355,1.37741935483871,1.38387096774194,1.38709677419355,1.38387096774194,1.3741935483871,1.37741935483871,1.38064516129032,1.38064516129032,1.3741935483871,1.37741935483871,1.36774193548387,1.37096774193548,1.37096774193548,1.37096774193548,1.3741935483871,1.37096774193548,1.35483870967742,1.36129032258065,1.36451612903226,1.37096774193548,1.37741935483871,1.37096774193548,1.36451612903226,1.36774193548387,1.36129032258065,1.35161290322581,1.35483870967742,1.35806451612903,1.36774193548387,1.35483870967742,1.36774193548387,1.36451612903226,1.36774193548387,1.3741935483871,1.37741935483871,1.36451612903226,1.37096774193548,1.37741935483871,1.37096774193548,1.37741935483871,1.37096774193548,1.37096774193548,1.36774193548387,1.37096774193548,1.36774193548387,1.36451612903226,1.37096774193548,1.36774193548387,1.37741935483871,1.38387096774194,1.38387096774194,1.4,1.40322580645161,1.40645161290323,1.42903225806452,1.45161290322581,1.47096774193548,1.46774193548387,1.46451612903226,1.46451612903226,1.45161290322581,1.40645161290323,1.38064516129032,1.3741935483871,1.3741935483871,1.3741935483871,1.36451612903226,1.36451612903226,1.35806451612903,1.35483870967742,1.35483870967742,1.36129032258065,1.35806451612903,1.35161290322581,1.44193548387097,1.7258064516129,2.19677419354839,2.55806451612903,2.6,2.27741935483871,1.67741935483871,1.34516129032258,1.26129032258065,1.26774193548387,1.29354838709677,1.31612903225806,1.3258064516129,1.33548387096774,1.32903225806452,1.33870967741935,1.31935483870968,1.3258064516129,1.34193548387097,1.31935483870968,1.32258064516129,1.32903225806452,1.33548387096774,1.32258064516129,1.31290322580645,1.32258064516129,1.33870967741935,1.31935483870968,1.32903225806452,1.3258064516129,1.3258064516129,1.31612903225806,1.30645161290323,1.30322580645161,1.29032258064516,1.30322580645161,1.29677419354839,1.30645161290323,1.31612903225806,1.30967741935484,1.33548387096774,1.35483870967742,1.3741935483871,1.40645161290323,1.44193548387097,1.43870967741935,1.44838709677419,1.43870967741935,1.43870967741935,1.44193548387097,1.41612903225806,1.41612903225806,1.40645161290323,1.39677419354839,1.39677419354839,1.38387096774194,1.38709677419355,1.38387096774194,1.38064516129032,1.38064516129032,1.37096774193548,1.37741935483871,1.37741935483871,1.36774193548387,1.35806451612903,1.36129032258065,1.37741935483871,1.3741935483871,1.36129032258065,1.36451612903226,1.37741935483871,1.36129032258065,1.35806451612903,1.36774193548387,1.36451612903226,1.35806451612903,1.35483870967742,1.34516129032258,1.36129032258065,1.3741935483871,1.35806451612903,1.36451612903226,1.35806451612903,1.38064516129032,1.35806451612903,1.34516129032258,1.35806451612903,1.35806451612903,1.34193548387097,1.35806451612903,1.35483870967742,1.35483870967742,1.35483870967742,1.34193548387097,1.36129032258065,1.34838709677419,1.34838709677419,1.35161290322581,1.35161290322581,1.36774193548387,1.37096774193548,1.38387096774194,1.38709677419355,1.39032258064516,1.40967741935484,1.44838709677419,1.44838709677419,1.44193548387097,1.42903225806452,1.44193548387097,1.41290322580645,1.35806451612903,1.33870967741935,1.35161290322581,1.35483870967742,1.33225806451613,1.33870967741935,1.34516129032258,1.34838709677419,1.35161290322581,1.35806451612903,1.33870967741935,1.36451612903226,1.34516129032258,1.44516129032258,1.72903225806452,2.21290322580645,2.52903225806452,2.50645161290323,2.1258064516129,1.50967741935484,1.22903225806452,1.22903225806452,1.26774193548387,1.2741935483871,1.29354838709677,1.31935483870968,1.3258064516129,1.33548387096774,1.33870967741935,1.32903225806452,1.33225806451613,1.33548387096774,1.33870967741935,1.34193548387097,1.33870967741935,1.33548387096774,1.30322580645161,1.30967741935484,1.30322580645161,1.3,1.30645161290323,1.30645161290323,1.30645161290323,1.31290322580645,1.30645161290323,1.29354838709677,1.3,1.29354838709677,1.29677419354839,1.30967741935484,1.31290322580645,1.3258064516129,1.33870967741935,1.35483870967742,1.38387096774194,1.40967741935484,1.42903225806452,1.45161290322581,1.48387096774194,1.48064516129032,1.5,1.48064516129032,1.46774193548387,1.48064516129032,1.4741935483871
1.4,1.39354838709677,1.38709677419355,1.38709677419355,1.38387096774194,1.39354838709677,1.37741935483871,1.38064516129032,1.38064516129032,1.38064516129032,1.39354838709677,1.38064516129032,1.3741935483871,1.37096774193548,1.3741935483871,1.38064516129032,1.39032258064516,1.38064516129032,1.3741935483871,1.3741935483871,1.3741935483871,1.36774193548387,1.37096774193548,1.36774193548387,1.37096774193548,1.37096774193548,1.35483870967742,1.36451612903226,1.35483870967742,1.36129032258065,1.35806451612903,1.3741935483871,1.36451612903226,1.3741935483871,1.35806451612903,1.34838709677419,1.36129032258065,1.36451612903226,1.36451612903226,1.36774193548387,1.36774193548387,1.34516129032258,1.34838709677419,1.34838709677419,1.35806451612903,1.38387096774194,1.37741935483871,1.37741935483871,1.38709677419355,1.39677419354839,1.40967741935484,1.41290322580645,1.45806451612903,1.45806451612903,1.45806451612903,1.47096774193548,1.45161290322581,1.43548387096774,1.4,1.35806451612903,1.36451612903226,1.34516129032258,1.34838709677419,1.34193548387097,1.34516129032258,1.33548387096774,1.34516129032258,1.34838709677419,1.36129032258065,1.35161290322581,1.35161290322581,1.48387096774194,1.81290322580645,2.34193548387097,2.59032258064516,2.51290322580645,2.12258064516129,1.5258064516129,1.28064516129032,1.23225806451613,1.24516129032258,1.27741935483871,1.30322580645161,1.3258064516129,1.31935483870968,1.30967741935484,1.31935483870968,1.31612903225806,1.31935483870968,1.31290322580645,1.33225806451613,1.33548387096774,1.32903225806452,1.33225806451613,1.31612903225806,1.31935483870968,1.32258064516129,1.30967741935484,1.30322580645161,1.28709677419355,1.30645161290323,1.29677419354839,1.29677419354839,1.28064516129032,1.28064516129032,1.29032258064516,1.28064516129032,1.28064516129032,1.29032258064516,1.2741935483871,1.3,1.32258064516129,1.34516129032258,1.3741935483871,1.39677419354839,1.43225806451613,1.45161290322581,1.44193548387097,1.44516129032258,1.44193548387097,1.42903225806452,1.41612903225806,1.41612903225806,1.38709677419355,1.38709677419355,1.38387096774194,1.39354838709677,1.39354838709677,1.38387096774194,1.39032258064516,1.37741935483871,1.38064516129032,1.37741935483871,1.38064516129032,1.39354838709677,1.37741935483871,1.38064516129032,1.39677419354839,1.38709677419355,1.38387096774194,1.38387096774194,1.38064516129032,1.37096774193548,1.38064516129032,1.38709677419355,1.37741935483871,1.38064516129032,1.38064516129032,1.37741935483871,1.38709677419355,1.38064516129032,1.39032258064516,1.37096774193548,1.35806451612903,1.38064516129032,1.38064516129032,1.37741935483871,1.3741935483871,1.37741935483871,1.38709677419355,1.38064516129032,1.38387096774194,1.37741935483871,1.3741935483871,1.37741935483871,1.37741935483871,1.37096774193548,1.36451612903226,1.37096774193548,1.37741935483871,1.37096774193548,1.39354838709677,1.4,1.4,1.4,1.41935483870968,1.43548387096774,1.45161290322581,1.46451612903226,1.46451612903226,1.45806451612903,1.43548387096774,1.39677419354839,1.37741935483871,1.37096774193548,1.37096774193548,1.36774193548387,1.36774193548387,1.35483870967742,1.35806451612903,1.36129032258065,1.35483870967742,1.35483870967742,1.35483870967742,1.35161290322581,1.38387096774194,1.57741935483871,2.02258064516129,2.47096774193548,2.55806451612903,2.39032258064516,1.69032258064516,1.32903225806452,1.20322580645161,1.24193548387097,1.28064516129032,1.29677419354839,1.29677419354839,1.31290322580645,1.31612903225806,1.31612903225806,1.32258064516129,1.3258064516129,1.31935483870968,1.31935483870968,1.31935483870968,1.31612903225806,1.31935483870968,1.31612903225806,1.30645161290323,1.31290322580645,1.32258064516129,1.31290322580645,1.30967741935484,1.31290322580645,1.31612903225806,1.30967741935484,1.30645161290323,1.31612903225806,1.30645161290323,1.30967741935484,1.31612903225806,1.31935483870968,1.32258064516129,1.3258064516129,1.34193548387097,1.37096774193548,1.38387096774194,1.41612903225806,1.44193548387097,1.45806451612903,1.45806451612903,1.46129032258065,1.45161290322581,1.43870967741935,1.43548387096774,1.42258064516129,1.41612903225806,1.40645161290323,1.39354838709677,1.38387096774194,1.38709677419355,1.39032258064516,1.38709677419355,1.38064516129032,1.38064516129032,1.38387096774194,1.38387096774194,1.37741935483871,1.38064516129032,1.3741935483871,1.3741935483871,1.3741935483871,1.3741935483871,1.37741935483871,1.3741935483871,1.35806451612903,1.36451612903226,1.36774193548387,1.37096774193548,1.38064516129032,1.3741935483871,1.36774193548387,1.36774193548387,1.36451612903226,1.35483870967742,1.35483870967742,1.35806451612903,1.36774193548387,1.35806451612903,1.36774193548387,1.36774193548387,1.36774193548387,1.3741935483871,1.37741935483871,1.36451612903226,1.37096774193548,1.37741935483871,1.36774193548387,1.37741935483871,1.36774193548387,1.36774193548387,1.36774193548387,1.37096774193548,1.36451612903226,1.36129032258065,1.36774193548387,1.36451612903226,1.3741935483871,1.38064516129032,1.38064516129032,1.39677419354839,1.4,1.4,1.42258064516129,1.44516129032258,1.46774193548387,1.46451612903226,1.46129032258065,1.45806451612903,1.44516129032258,1.4,1.3741935483871,1.36774193548387,1.36774193548387,1.36774193548387,1.35806451612903,1.35483870967742,1.35161290322581,1.34516129032258,1.34516129032258,1.35483870967742,1.34838709677419,1.34516129032258,1.43225806451613,1.71612903225806,2.18709677419355,2.54838709677419,2.59032258064516,2.26774193548387,1.66774193548387,1.33225806451613,1.25161290322581,1.25806451612903,1.28387096774194,1.30645161290323,1.31290322580645,1.3258064516129,1.31935483870968,1.3258064516129,1.30645161290323,1.31290322580645,1.33225806451613,1.30645161290323,1.30967741935484,1.31935483870968,1.3258064516129,1.31290322580645,1.3,1.31290322580645,1.32903225806452,1.30967741935484,1.31935483870968,1.31290322580645,1.31290322580645,1.30645161290323,1.29677419354839,1.29354838709677,1.28064516129032,1.29354838709677,1.28709677419355,1.29354838709677,1.30645161290323,1.3,1.3258064516129,1.34516129032258,1.36451612903226,1.39677419354839,1.43225806451613,1.42903225806452,1.43870967741935,1.43225806451613,1.42903225806452,1.43225806451613,1.40967741935484,1.40645161290323,1.4,1.39032258064516,1.39032258064516,1.37741935483871,1.38064516129032,1.37741935483871,1.37741935483871,1.37741935483871,1.36774193548387,1.37096774193548,1.3741935483871,1.36451612903226,1.35483870967742,1.35806451612903,1.37741935483871,1.37096774193548,1.36129032258065,1.36451612903226,1.37741935483871,1.36129032258065,1.35806451612903,1.37096774193548,1.36451612903226,1.36129032258065,1.35806451612903,1.34838709677419,1.36451612903226,1.37741935483871,1.36451612903226,1.37096774193548,1.36451612903226,1.38709677419355,1.36451612903226,1.35483870967742,1.36774193548387,1.36774193548387,1.35161290322581,1.36774193548387,1.36774193548387,1.36774193548387,1.36774193548387,1.35483870967742,1.3741935483871,1.36129032258065,1.36129032258065,1.36774193548387,1.36774193548387,1.38709677419355,1.39032258064516,1.40322580645161,1.40645161290323,1.40967741935484,1.42903225806452,1.46774193548387,1.46774193548387,1.46129032258065,1.45161290322581,1.46451612903226,1.43548387096774,1.38064516129032,1.36129032258065,1.3741935483871,1.37741935483871,1.35806451612903,1.36129032258065,1.37096774193548,1.3741935483871,1.37741935483871,1.38387096774194,1.36451612903226,1.39032258064516,1.37096774193548,1.47096774193548,1.75483870967742,2.23870967741935,2.55483870967742,2.53225806451613,2.15161290322581,1.53548387096774,1.25483870967742,1.25161290322581,1.29354838709677,1.3,1.31612903225806,1.34193548387097,1.35161290322581,1.35806451612903,1.36129032258065,1.35161290322581,1.35161290322581,1.35806451612903,1.35806451612903,1.36129032258065,1.35806451612903,1.35161290322581,1.31935483870968,1.32258064516129,1.31612903225806,1.31290322580645,1.31612903225806,1.31612903225806,1.31290322580645,1.31612903225806,1.30967741935484,1.29354838709677,1.3,1.29032258064516,1.29354838709677,1.30322580645161,1.30322580645161,1.31290322580645,1.3258064516129,1.33870967741935,1.36451612903226,1.38709677419355,1.4,1.42258064516129,1.45161290322581,1.44516129032258,1.46129032258065,1.43548387096774,1.41935483870968,1.4258064516129,1.41612903225806,1.4,1.4,1.4,1.38709677419355,1.38064516129032,1.38064516129032,1.38064516129032,1.3741935483871,1.3741935483871,1.36774193548387,1.37741935483871,1.39032258064516,1.3741935483871,1.3741935483871,1.37096774193548,1.37096774193548,1.37096774193548,1.37096774193548,1.36774193548387,1.36774193548387,1.36129032258065,1.35483870967742,1.34516129032258,1.35483870967742,1.35161290322581,1.35483870967742,1.35806451612903,1.35161290322581,1.34516129032258,1.35483870967742,1.34193548387097,1.34516129032258,1.34516129032258,1.35161290322581,1.35483870967742,1.35806451612903,1.35161290322581,1.35483870967742,1.36129032258065,1.36129032258065,1.35483870967742,1.35483870967742,1.36774193548387,1.34838709677419,1.35806451612903,1.36451612903226,1.36129032258065,1.35806451612903,1.36129032258065,1.38064516129032,1.38064516129032,1.38387096774194,1.39677419354839,1.39032258064516,1.40322580645161,1.43548387096774,1.44516129032258,1.45161290322581,1.45483870967742,1.45161290322581,1.44838709677419,1.41935483870968,1.38387096774194,1.36451612903226,1.3741935483871,1.35806451612903,1.35806451612903,1.35806451612903,1.34838709677419,1.34838709677419,1.34838709677419,1.36451612903226,1.36129032258065,1.34838709677419,1.36774193548387,1.49677419354839,1.8741935483871,2.34193548387097,2.58064516129032,2.51290322580645,1.94838709677419,1.48709677419355,1.27741935483871,1.24193548387097,1.28709677419355,1.31935483870968,1.31290322580645,1.33225806451613,1.33548387096774,1.3258064516129,1.33548387096774,1.33225806451613,1.33870967741935,1.33870967741935,1.33548387096774,1.33870967741935,1.33225806451613,1.34193548387097,1.32903225806452,1.33548387096774,1.33225806451613,1.32903225806452,1.3258064516129,1.31935483870968,1.31935483870968,1.3258064516129,1.31935483870968,1.31612903225806,1.31935483870968,1.31290322580645,1.31290322580645,1.3,1.30322580645161,1.31935483870968,1.3258064516129,1.35161290322581,1.36451612903226,1.39032258064516,1.41612903225806,1.43548387096774,1.44516129032258,1.45161290322581,1.45161290322581,1.44516129032258,1.4258064516129,1.4258064516129,1.40645161290323,1.40322580645161,1.39677419354839,1.39032258064516,1.38387096774194,1.37741935483871,1.37096774193548,1.38387096774194,1.39677419354839,1.37741935483871,1.37741935483871,1.36774193548387,1.36451612903226,1.36774193548387,1.36774193548387,1.37096774193548,1.3741935483871,1.36774193548387,1.3741935483871,1.36451612903226,1.3741935483871,1.36774193548387,1.3741935483871,1.38064516129032,1.38387096774194,1.3741935483871,1.36451612903226,1.36129032258065,1.36451612903226,1.3741935483871,1.36451612903226,1.36774193548387,1.36451612903226,1.36129032258065,1.36451612903226,1.36129032258065,1.35806451612903,1.35806451612903,1.36129032258065,1.35806451612903,1.37741935483871,1.36451612903226,1.35483870967742,1.35161290322581,1.36129032258065,1.35806451612903,1.36129032258065,1.36774193548387,1.35806451612903,1.36129032258065,1.37096774193548,1.3741935483871,1.37741935483871,1.39677419354839,1.4,1.41290322580645,1.42903225806452,1.45806451612903,1.46451612903226,1.45806451612903,1.45161290322581,1.43870967741935,1.4258064516129,1.39032258064516,1.37096774193548,1.36451612903226,1.36129032258065,1.35806451612903,1.35161290322581,1.35806451612903,1.36774193548387,1.35483870967742,1.36451612903226,1.35483870967742,1.34838709677419,1.35483870967742,1.50645161290323,1.89032258064516,2.38064516129032,2.59032258064516,2.50645161290323,1.99032258064516,1.49032258064516,1.26774193548387,1.23225806451613,1.25161290322581,1.28709677419355,1.30645161290323,1.32903225806452,1.31612903225806,1.30967741935484,1.30645161290323,1.31290322580645,1.33225806451613,1.31612903225806,1.33548387096774,1.33225806451613,1.31290322580645,1.31612903225806,1.31290322580645,1.33225806451613,1.32903225806452,1.31935483870968,1.31935483870968,1.3258064516129,1.31290322580645,1.31290322580645,1.29677419354839,1.29354838709677,1.29354838709677,1.29354838709677,1.29677419354839,1.3,1.29354838709677,1.29677419354839,1.30967741935484,1.32258064516129,1.35806451612903,1.35483870967742,1.39032258064516,1.41935483870968,1.45806451612903,1.46774193548387,1.45161290322581,1.43225806451613,1.43548387096774,1.41935483870968,1.40322580645161,1.39354838709677,1.38387096774194,1.38064516129032,1.38709677419355,1.38064516129032,1.38709677419355,1.38064516129032,1.37096774193548,1.37096774193548,1.38387096774194,1.38387096774194,1.38064516129032,1.40322580645161,1.38387096774194,1.39032258064516,1.40322580645161,1.38709677419355,1.40645161290323,1.40967741935484,1.39354838709677,1.37741935483871,1.37741935483871,1.37741935483871,1.39032258064516,1.37741935483871,1.36451612903226,1.35806451612903,1.38709677419355,1.38387096774194,1.3741935483871,1.37096774193548,1.3741935483871,1.36129032258065,1.36774193548387,1.35483870967742,1.37741935483871,1.38064516129032,1.35483870967742,1.36451612903226,1.36129032258065,1.36129032258065,1.35161290322581,1.36129032258065,1.35806451612903,1.36774193548387,1.34838709677419,1.36451612903226,1.37096774193548,1.38064516129032,1.39032258064516,1.40322580645161,1.38387096774194,1.41612903225806,1.43225806451613,1.44838709677419,1.46129032258065,1.46129032258065,1.46451612903226,1.44838709677419,1.40967741935484,1.37741935483871,1.37741935483871,1.36129032258065,1.35483870967742,1.35161290322581,1.36451612903226,1.36451612903226,1.37096774193548,1.37096774193548,1.3741935483871,1.3741935483871,1.36451612903226,1.38064516129032,1.56451612903226,1.99677419354839,2.45483870967742,2.55483870967742,2.4,1.71935483870968,1.3741935483871,1.2258064516129,1.26451612903226,1.29354838709677,1.31935483870968,1.33225806451613,1.33225806451613,1.34193548387097,1.34516129032258,1.34516129032258,1.34193548387097,1.34516129032258,1.34193548387097,1.34516129032258,1.34193548387097,1.32903225806452,1.33225806451613,1.33225806451613,1.31935483870968,1.32903225806452,1.3258064516129,1.31935483870968,1.30967741935484,1.30967741935484,1.30967741935484,1.30967741935484,1.30967741935484,1.29677419354839,1.29677419354839,1.29677419354839,1.29677419354839,1.29677419354839,1.31290322580645,1.30967741935484,1.33225806451613,1.36451612903226,1.38709677419355,1.41612903225806,1.43870967741935,1.45161290322581,1.45483870967742,1.44516129032258,1.42903225806452,1.41612903225806,1.41935483870968,1.41290322580645,1.40645161290323,1.39032258064516,1.38064516129032,1.37741935483871,1.37741935483871,1.3741935483871,1.3741935483871,1.38064516129032,1.36451612903226,1.37096774193548,1.3741935483871,1.36774193548387,1.36774193548387,1.36774193548387,1.36774193548387,1.36774193548387,1.36774193548387,1.38064516129032,1.37741935483871,1.38064516129032,1.3741935483871,1.37096774193548,1.36129032258065,1.36129032258065,1.36129032258065,1.36451612903226,1.35806451612903,1.36774193548387,1.35483870967742,1.36129032258065,1.36451612903226,1.36451612903226,1.36451612903226,1.35161290322581,1.36129032258065,1.37096774193548,1.37096774193548,1.36451612903226,1.3741935483871,1.35806451612903,1.35806451612903,1.36774193548387,1.36774193548387,1.37096774193548,1.36451612903226,1.36774193548387,1.36774193548387,1.36129032258065,1.36774193548387,1.35483870967742,1.3741935483871,1.38064516129032,1.39032258064516,1.40645161290323,1.39032258064516,1.4258064516129,1.44516129032258,1.44516129032258,1.45161290322581,1.45161290322581,1.44193548387097,1.42903225806452,1.40322580645161,1.37096774193548,1.37096774193548,1.3741935483871,1.36129032258065,1.36129032258065,1.36774193548387,1.36451612903226,1.35806451612903,1.35806451612903,1.36129032258065,1.34838709677419,1.34516129032258,1.48064516129032,1.80645161290323,2.30967741935484,2.60645161290323,2.57096774193548,2.16451612903226,1.6,1.31612903225806,1.25483870967742,1.26774193548387,1.28387096774194,1.29677419354839,1.31935483870968,1.33225806451613,1.3258064516129,1.3258064516129,1.33548387096774,1.3258064516129,1.3258064516129,1.33548387096774,1.33870967741935,1.32903225806452,1.3258064516129,1.32258064516129,1.3258064516129,1.31935483870968,1.30967741935484,1.31612903225806,1.30967741935484,1.31290322580645,1.32258064516129,1.31290322580645,1.29354838709677,1.29354838709677,1.29032258064516,1.28709677419355,1.29032258064516,1.29677419354839,1.29677419354839,1.30322580645161,1.32258064516129,1.34838709677419,1.3741935483871,1.39354838709677,1.42258064516129,1.43548387096774,1.43870967741935,1.44516129032258,1.42903225806452,1.42258064516129,1.40322580645161,1.4,1.40322580645161,1.39354838709677,1.38709677419355,1.38064516129032,1.3741935483871,1.38064516129032,1.37741935483871,1.37096774193548,1.3741935483871,1.37096774193548,1.36129032258065,1.37096774193548,1.34838709677419,1.35806451612903,1.35483870967742,1.36774193548387,1.37741935483871,1.36774193548387,1.36451612903226,1.36774193548387,1.34838709677419,1.36451612903226,1.36129032258065,1.37096774193548,1.37096774193548,1.36451612903226,1.35161290322581,1.37096774193548,1.35806451612903,1.37741935483871,1.35806451612903,1.36129032258065,1.37096774193548,1.37096774193548,1.3741935483871,1.38387096774194,1.34838709677419,1.35483870967742,1.36451612903226,1.36129032258065,1.35806451612903,1.35161290322581,1.36129032258065,1.35483870967742,1.35806451612903,1.35483870967742,1.36129032258065,1.3741935483871,1.37741935483871,1.38064516129032,1.37741935483871,1.39032258064516,1.4,1.39032258064516,1.39354838709677,1.41290322580645,1.45483870967742,1.46451612903226,1.45806451612903,1.46451612903226,1.48064516129032,1.45806451612903,1.43548387096774,1.40322580645161,1.37096774193548,1.36129032258065,1.36129032258065,1.36774193548387,1.36451612903226,1.36129032258065,1.36451612903226,1.37096774193548,1.35161290322581,1.36774193548387,1.36774193548387,1.37096774193548,1.49032258064516,1.8258064516129,2.36129032258065,2.60645161290323,2.55483870967742,2.11290322580645,1.51290322580645,1.25483870967742,1.24516129032258,1.26129032258065,1.29677419354839,1.30322580645161,1.33225806451613,1.31935483870968,1.33548387096774,1.32258064516129,1.34193548387097,1.33870967741935,1.34193548387097,1.33548387096774,1.34516129032258,1.33548387096774,1.34193548387097,1.34193548387097,1.33548387096774,1.33548387096774,1.32903225806452,1.32903225806452,1.33225806451613,1.31612903225806,1.30322580645161,1.30967741935484,1.30322580645161,1.30645161290323,1.30645161290323,1.30322580645161,1.3,1.30322580645161,1.31290322580645,1.33225806451613,1.34516129032258,1.35806451612903,1.38387096774194,1.41290322580645,1.43225806451613,1.44838709677419,1.46774193548387,1.45483870967742,1.45483870967742,1.47096774193548,1.44516129032258,1.43870967741935,1.4258064516129,1.40967741935484,1.39677419354839,1.40322580645161,1.39354838709677,1.38387096774194,1.38709677419355,1.37741935483871,1.38064516129032,1.38387096774194,1.4,1.3741935483871,1.38709677419355,1.37096774193548,1.37096774193548,1.3741935483871,1.37096774193548,1.37096774193548,1.36774193548387,1.36774193548387,1.35806451612903,1.36451612903226,1.35806451612903,1.3741935483871,1.3741935483871,1.35806451612903,1.35806451612903,1.35161290322581,1.35483870967742,1.35806451612903,1.35806451612903,1.34838709677419,1.35161290322581,1.35806451612903,1.35483870967742,1.36129032258065,1.34516129032258,1.34838709677419,1.34193548387097,1.34193548387097,1.34193548387097,1.33870967741935,1.34516129032258,1.35483870967742,1.35161290322581,1.35806451612903,1.35483870967742,1.36774193548387,1.35483870967742,1.35483870967742,1.38064516129032,1.39354838709677,1.40645161290323,1.42903225806452,1.43225806451613,1.43225806451613,1.41612903225806,1.40645161290323,1.38709677419355,1.34838709677419,1.35161290322581,1.34516129032258,1.33548387096774,1.33548387096774,1.31935483870968,1.32903225806452,1.31612903225806,1.32258064516129,1.33225806451613,1.32903225806452,1.33225806451613,1.34193548387097,1.50322580645161,1.88387096774194,2.34193548387097,2.53870967741935,2.44516129032258,1.8258064516129,1.40322580645161,1.2258064516129,1.23225806451613,1.26451612903226,1.29032258064516,1.29677419354839,1.30967741935484,1.30967741935484,1.31612903225806,1.32903225806452,1.33225806451613,1.3258064516129,1.32258064516129,1.32903225806452,1.3258064516129,1.32903225806452,1.33225806451613,1.33225806451613,1.32903225806452,1.31935483870968,1.33870967741935,1.32903225806452,1.33870967741935,1.33225806451613,1.34516129032258,1.32903225806452,1.33870967741935,1.34838709677419,1.35806451612903,1.36451612903226,1.37096774193548,1.37741935483871,1.39032258064516,1.39677419354839,1.43225806451613,1.44193548387097,1.48064516129032,1.51935483870968
1.45806451612903,1.47096774193548,1.47741935483871,1.47096774193548,1.45806451612903,1.44193548387097,1.44838709677419,1.43225806451613,1.41612903225806,1.4,1.40645161290323,1.39032258064516,1.39032258064516,1.39677419354839,1.38064516129032,1.38064516129032,1.38387096774194,1.38709677419355,1.3741935483871,1.37741935483871,1.38387096774194,1.37741935483871,1.38064516129032,1.38064516129032,1.37741935483871,1.38064516129032,1.36774193548387,1.37096774193548,1.3741935483871,1.36129032258065,1.36451612903226,1.36129032258065,1.36129032258065,1.35161290322581,1.35161290322581,1.35806451612903,1.35483870967742,1.35806451612903,1.37096774193548,1.36129032258065,1.35806451612903,1.34516129032258,1.34838709677419,1.36129032258065,1.35483870967742,1.36451612903226,1.36451612903226,1.36451612903226,1.36129032258065,1.35806451612903,1.36451612903226,1.36129032258065,1.37096774193548,1.36451612903226,1.36451612903226,1.37096774193548,1.37741935483871,1.38064516129032,1.38387096774194,1.39677419354839,1.39032258064516,1.41935483870968,1.44838709677419,1.45806451612903,1.45483870967742,1.45161290322581,1.45161290322581,1.44193548387097,1.4,1.37741935483871,1.3741935483871,1.35806451612903,1.35483870967742,1.35806451612903,1.36129032258065,1.36129032258065,1.36129032258065,1.35483870967742,1.35483870967742,1.35161290322581,1.33548387096774,1.41612903225806,1.68387096774194,2.16451612903226,2.54193548387097,2.6,2.31290322580645,1.66451612903226,1.31612903225806,1.24838709677419,1.28709677419355,1.30322580645161,1.31290322580645,1.33225806451613,1.32903225806452,1.32903225806452,1.34193548387097,1.32903225806452,1.33225806451613,1.31935483870968,1.31935483870968,1.32903225806452,1.32903225806452,1.33225806451613,1.3258064516129,1.32903225806452,1.31935483870968,1.31290322580645,1.31612903225806,1.3,1.31290322580645,1.3,1.30322580645161,1.29677419354839,1.30645161290323,1.3,1.30322580645161,1.28387096774194,1.3,1.3,1.31290322580645,1.3258064516129,1.36129032258065,1.37741935483871,1.4,1.4258064516129,1.44193548387097,1.44193548387097,1.44516129032258,1.44193548387097,1.43225806451613,1.4258064516129,1.41612903225806,1.40322580645161,1.40322580645161,1.39677419354839,1.39354838709677,1.36774193548387,1.36774193548387,1.36774193548387,1.37096774193548,1.36774193548387,1.36451612903226,1.36129032258065,1.36451612903226,1.35806451612903,1.35806451612903,1.36129032258065,1.35161290322581,1.35806451612903,1.38064516129032,1.35161290322581,1.34516129032258,1.34838709677419,1.35483870967742,1.34838709677419,1.35806451612903,1.35161290322581,1.35483870967742,1.35161290322581,1.35161290322581,1.35161290322581,1.34516129032258,1.34516129032258,1.36451612903226,1.36774193548387,1.34838709677419,1.34838709677419,1.33548387096774,1.34516129032258,1.35483870967742,1.37096774193548,1.35483870967742,1.35806451612903,1.36129032258065,1.3741935483871,1.35806451612903,1.35806451612903,1.35806451612903,1.36129032258065,1.38064516129032,1.3741935483871,1.38387096774194,1.39032258064516,1.39354838709677,1.41290322580645,1.42903225806452,1.45161290322581,1.46774193548387,1.43870967741935,1.44193548387097,1.4258064516129,1.42258064516129,1.38064516129032,1.3741935483871,1.35483870967742,1.3741935483871,1.36129032258065,1.35483870967742,1.35483870967742,1.36129032258065,1.35483870967742,1.36129032258065,1.35806451612903,1.34516129032258,1.3741935483871,1.53870967741935,1.93870967741935,2.42258064516129,2.60645161290323,2.5258064516129,1.95806451612903,1.48064516129032,1.28064516129032,1.23870967741935,1.28709677419355,1.3,1.31290322580645,1.31612903225806,1.32903225806452,1.34838709677419,1.32258064516129,1.32258064516129,1.32258064516129,1.32258064516129,1.34193548387097,1.34193548387097,1.35483870967742,1.34838709677419,1.35161290322581,1.33225806451613,1.30967741935484,1.32903225806452,1.31290322580645,1.32258064516129,1.32903225806452,1.30967741935484,1.30967741935484,1.31290322580645,1.3,1.29677419354839,1.3,1.28387096774194,1.29032258064516,1.30322580645161,1.30967741935484,1.32258064516129,1.35161290322581,1.38064516129032,1.40645161290323,1.44193548387097,1.45483870967742,1.46129032258065,1.43870967741935,1.43548387096774,1.43225806451613,1.41290322580645,1.40322580645161,1.39032258064516,1.39677419354839,1.39677419354839,1.40322580645161,1.38387096774194,1.39354838709677,1.38709677419355,1.38064516129032,1.3741935483871,1.38064516129032,1.3741935483871,1.38387096774194,1.36451612903226,1.3741935483871,1.35483870967742,1.37096774193548,1.37741935483871,1.36451612903226,1.36774193548387,1.36129032258065,1.36774193548387,1.35806451612903,1.34838709677419,1.36129032258065,1.36451612903226,1.36774193548387,1.35806451612903,1.35806451612903,1.38387096774194,1.3741935483871,1.3741935483871,1.3741935483871,1.36129032258065,1.3741935483871,1.35806451612903,1.37096774193548,1.37741935483871,1.3741935483871,1.37096774193548,1.37096774193548,1.38387096774194,1.38387096774194,1.3741935483871,1.38709677419355,1.38064516129032,1.38709677419355,1.40645161290323,1.41935483870968,1.40645161290323,1.42903225806452,1.45161290322581,1.46129032258065,1.4741935483871,1.46129032258065,1.46129032258065,1.43548387096774,1.39677419354839,1.3741935483871,1.36774193548387,1.3741935483871,1.36129032258065,1.34516129032258,1.35483870967742,1.34838709677419,1.35161290322581,1.35806451612903,1.35483870967742,1.35806451612903,1.33870967741935,1.36774193548387,1.54516129032258,1.95161290322581,2.40322580645161,2.53225806451613,2.40967741935484,1.75806451612903,1.3741935483871,1.23225806451613,1.26129032258065,1.29354838709677,1.29677419354839,1.30967741935484,1.30967741935484,1.32258064516129,1.31612903225806,1.32258064516129,1.3258064516129,1.33225806451613,1.33225806451613,1.33548387096774,1.33870967741935,1.34193548387097,1.3258064516129,1.31612903225806,1.31935483870968,1.3258064516129,1.32258064516129,1.31935483870968,1.31612903225806,1.32258064516129,1.31935483870968,1.31612903225806,1.30645161290323,1.30322580645161,1.30322580645161,1.30967741935484,1.30967741935484,1.30322580645161,1.31290322580645,1.32258064516129,1.34838709677419,1.36774193548387,1.39677419354839,1.41612903225806,1.43870967741935,1.46451612903226,1.43870967741935,1.44516129032258,1.44838709677419,1.41290322580645,1.41935483870968,1.39354838709677,1.39032258064516,1.37741935483871,1.3741935483871,1.37096774193548,1.38064516129032,1.3741935483871,1.3741935483871,1.3741935483871,1.37741935483871,1.38709677419355,1.37096774193548,1.37741935483871,1.38064516129032,1.3741935483871,1.37741935483871,1.37741935483871,1.36774193548387,1.36451612903226,1.37096774193548,1.36451612903226,1.36129032258065,1.36774193548387,1.39032258064516,1.38064516129032,1.37096774193548,1.3741935483871,1.37096774193548,1.38387096774194,1.36451612903226,1.36774193548387,1.36129032258065,1.37096774193548,1.3741935483871,1.36129032258065,1.37741935483871,1.38064516129032,1.3741935483871,1.37096774193548,1.36774193548387,1.36774193548387,1.36774193548387,1.36451612903226,1.35806451612903,1.36129032258065,1.3741935483871,1.36451612903226,1.36129032258065,1.37741935483871,1.36774193548387,1.37741935483871,1.38387096774194,1.38387096774194,1.39677419354839,1.42258064516129,1.44193548387097,1.44193548387097,1.45161290322581,1.43870967741935,1.43225806451613,1.41935483870968,1.38709677419355,1.36774193548387,1.35483870967742,1.35483870967742,1.35483870967742,1.34838709677419,1.34838709677419,1.35806451612903,1.35483870967742,1.35483870967742,1.34838709677419,1.35483870967742,1.34838709677419,1.45483870967742,1.7741935483871,2.26129032258065,2.58064516129032,2.56774193548387,2.19032258064516,1.6258064516129,1.31290322580645,1.24193548387097,1.27096774193548,1.30645161290323,1.31290322580645,1.31935483870968,1.32903225806452,1.32258064516129,1.32903225806452,1.33548387096774,1.33548387096774,1.3258064516129,1.33225806451613,1.33225806451613,1.33870967741935,1.33225806451613,1.3258064516129,1.31290322580645,1.31290322580645,1.31612903225806,1.31612903225806,1.30322580645161,1.32258064516129,1.31290322580645,1.31290322580645,1.31612903225806,1.30645161290323,1.30645161290323,1.3,1.29354838709677,1.3,1.3,1.3258064516129,1.32903225806452,1.34193548387097,1.38064516129032,1.40967741935484,1.42258064516129,1.44838709677419,1.46129032258065,1.43548387096774,1.43548387096774,1.42903225806452,1.42258064516129,1.41935483870968,1.4,1.40645161290323,1.38709677419355,1.39354838709677,1.3741935483871,1.37096774193548,1.36451612903226,1.38387096774194,1.37741935483871,1.38064516129032,1.38064516129032,1.38064516129032,1.38064516129032,1.38387096774194,1.38709677419355,1.37096774193548,1.36774193548387,1.37096774193548,1.3741935483871,1.3741935483871,1.37096774193548,1.36774193548387,1.36774193548387,1.35806451612903,1.35483870967742,1.36774193548387,1.35161290322581,1.35161290322581,1.34838709677419,1.35483870967742,1.35161290322581,1.35806451612903,1.36774193548387,1.3741935483871,1.37741935483871,1.35806451612903,1.37096774193548,1.35483870967742,1.36774193548387,1.34838709677419,1.35161290322581,1.35806451612903,1.36451612903226,1.35806451612903,1.3741935483871,1.35483870967742,1.36451612903226,1.38387096774194,1.40645161290323,1.40645161290323,1.41612903225806,1.43870967741935,1.43548387096774,1.44516129032258,1.46129032258065,1.42903225806452,1.43548387096774,1.38387096774194,1.37096774193548,1.36129032258065,1.35483870967742,1.34516129032258,1.35806451612903,1.33870967741935,1.34516129032258,1.34838709677419,1.35161290322581,1.35483870967742,1.33870967741935,1.34838709677419,1.38064516129032,1.6,2.04838709677419,2.50322580645161,2.58064516129032,2.40322580645161,1.7,1.33870967741935,1.20645161290323,1.23548387096774,1.28064516129032,1.30967741935484,1.3,1.33548387096774,1.31935483870968,1.31935483870968,1.31935483870968,1.32258064516129,1.34193548387097,1.33225806451613,1.33225806451613,1.33870967741935,1.34838709677419,1.35161290322581,1.35161290322581,1.31935483870968,1.32258064516129,1.32903225806452,1.32903225806452,1.34193548387097,1.3258064516129,1.31612903225806,1.30322580645161,1.31612903225806,1.31290322580645,1.3,1.31290322580645,1.31290322580645,1.32258064516129,1.32903225806452,1.32258064516129,1.34193548387097,1.3741935483871,1.39032258064516,1.42903225806452,1.43870967741935,1.47096774193548,1.45161290322581,1.45806451612903,1.45161290322581,1.43548387096774,1.43548387096774,1.41935483870968,1.41935483870968,1.41612903225806,1.41290322580645,1.4,1.38387096774194,1.39677419354839,1.38387096774194,1.38387096774194,1.37741935483871,1.37096774193548,1.38709677419355,1.39354838709677,1.36774193548387,1.37741935483871,1.37741935483871,1.38709677419355,1.3741935483871,1.3741935483871,1.36774193548387,1.36451612903226,1.36129032258065,1.36129032258065,1.37096774193548,1.36774193548387,1.38387096774194,1.35806451612903,1.35483870967742,1.36129032258065,1.37096774193548,1.35806451612903,1.36451612903226,1.36129032258065,1.36129032258065,1.35806451612903,1.36129032258065,1.36129032258065,1.36451612903226,1.36451612903226,1.36774193548387,1.35806451612903,1.36129032258065,1.36129032258065,1.35483870967742,1.34838709677419,1.35806451612903,1.37096774193548,1.39032258064516,1.4,1.39354838709677,1.40322580645161,1.4258064516129,1.43225806451613,1.45806451612903,1.43225806451613,1.43870967741935,1.4258064516129,1.41290322580645,1.37741935483871,1.36129032258065,1.37096774193548,1.34516129032258,1.34193548387097,1.33548387096774,1.33548387096774,1.33870967741935,1.34193548387097,1.35161290322581,1.35161290322581,1.34193548387097,1.35161290322581,1.50967741935484,1.88709677419355,2.34838709677419,2.55806451612903,2.46774193548387,1.89354838709677,1.46129032258065,1.27096774193548,1.24193548387097,1.27741935483871,1.3,1.31612903225806,1.32903225806452,1.33225806451613,1.33870967741935,1.33870967741935,1.33225806451613,1.34516129032258,1.32258064516129,1.32258064516129,1.32903225806452,1.33870967741935,1.32258064516129,1.34516129032258,1.32258064516129,1.31935483870968,1.32258064516129,1.32258064516129,1.31935483870968,1.32903225806452,1.31612903225806,1.32258064516129,1.30645161290323,1.30645161290323,1.30967741935484,1.31612903225806,1.30322580645161,1.30645161290323,1.31290322580645,1.33225806451613,1.35806451612903,1.37741935483871,1.39677419354839,1.41935483870968,1.44516129032258,1.45161290322581,1.46129032258065,1.45161290322581,1.45161290322581,1.42903225806452,1.42903225806452,1.41935483870968,1.40645161290323,1.39677419354839,1.38709677419355,1.38064516129032,1.38064516129032,1.3741935483871,1.36774193548387,1.37096774193548,1.36774193548387,1.3741935483871,1.37096774193548,1.3741935483871,1.36774193548387,1.37741935483871,1.37741935483871,1.38064516129032,1.3741935483871,1.38064516129032,1.38709677419355,1.38387096774194,1.38064516129032,1.37096774193548,1.3741935483871,1.37096774193548,1.36451612903226,1.35806451612903,1.36451612903226,1.36129032258065,1.37741935483871,1.36451612903226,1.36774193548387,1.37741935483871,1.36774193548387,1.37096774193548,1.3741935483871,1.37096774193548,1.35483870967742,1.35806451612903,1.35161290322581,1.36451612903226,1.36129032258065,1.36451612903226,1.36774193548387,1.36129032258065,1.36774193548387,1.3741935483871,1.36451612903226,1.36774193548387,1.3741935483871,1.37741935483871,1.39677419354839,1.40645161290323,1.41290322580645,1.41612903225806,1.43870967741935,1.44516129032258,1.44838709677419,1.44516129032258,1.44193548387097,1.43225806451613,1.38064516129032,1.36774193548387,1.35806451612903,1.35483870967742,1.35483870967742,1.33870967741935,1.33870967741935,1.34838709677419,1.33870967741935,1.34516129032258,1.34516129032258,1.34838709677419,1.34516129032258,1.43870967741935,1.71935483870968,2.2,2.56451612903226,2.59032258064516,2.28387096774194,1.67096774193548,1.33548387096774,1.25483870967742,1.27096774193548,1.28709677419355,1.30967741935484,1.31935483870968,1.3258064516129,1.3258064516129,1.31935483870968,1.31935483870968,1.33548387096774,1.3258064516129,1.3258064516129,1.34516129032258,1.34193548387097,1.35483870967742,1.33548387096774,1.33225806451613,1.33548387096774,1.33548387096774,1.31935483870968,1.31612903225806,1.32903225806452,1.31935483870968,1.30322580645161,1.29032258064516,1.28709677419355,1.27741935483871,1.29032258064516,1.27741935483871,1.27741935483871,1.29677419354839,1.29677419354839,1.32258064516129,1.31935483870968,1.36451612903226,1.39032258064516,1.41935483870968,1.43870967741935,1.45483870967742,1.44193548387097,1.43870967741935,1.42258064516129,1.4258064516129,1.42258064516129,1.40322580645161,1.38709677419355,1.38064516129032,1.39677419354839,1.39032258064516,1.38709677419355,1.36451612903226,1.37096774193548,1.37741935483871,1.36774193548387,1.36451612903226,1.37096774193548,1.37096774193548,1.35806451612903,1.36451612903226,1.35806451612903,1.36774193548387,1.36451612903226,1.36129032258065,1.35483870967742,1.35806451612903,1.35806451612903,1.36451612903226,1.35483870967742,1.34516129032258,1.36129032258065,1.3741935483871,1.36774193548387,1.35806451612903,1.38064516129032,1.35483870967742,1.35483870967742,1.36451612903226,1.35806451612903,1.36129032258065,1.36129032258065,1.35161290322581,1.36774193548387,1.36451612903226,1.35806451612903,1.37741935483871,1.37096774193548,1.38709677419355,1.37741935483871,1.38387096774194,1.38387096774194,1.41612903225806,1.4,1.40322580645161,1.42258064516129,1.44193548387097,1.46774193548387,1.46451612903226,1.45806451612903,1.44516129032258,1.43225806451613,1.41612903225806,1.38709677419355,1.37096774193548,1.36774193548387,1.36451612903226,1.35806451612903,1.35483870967742,1.35161290322581,1.35483870967742,1.35806451612903,1.36774193548387,1.36129032258065,1.38387096774194,1.37096774193548,1.51935483870968,1.86451612903226,2.31935483870968,2.53548387096774,2.44838709677419,1.88064516129032,1.41935483870968,1.24516129032258,1.25161290322581,1.29032258064516,1.31290322580645,1.31935483870968,1.33548387096774,1.33548387096774,1.34193548387097,1.33225806451613,1.33225806451613,1.33870967741935,1.34516129032258,1.32903225806452,1.33548387096774,1.35161290322581,1.33225806451613,1.32903225806452,1.3258064516129,1.32258064516129,1.31612903225806,1.3258064516129,1.3258064516129,1.33870967741935,1.3258064516129,1.3258064516129,1.32258064516129,1.3258064516129,1.33548387096774,1.31290322580645,1.30645161290323,1.30322580645161,1.31290322580645,1.32903225806452,1.34838709677419,1.36451612903226,1.39677419354839,1.41612903225806,1.46129032258065,1.45161290322581,1.44838709677419,1.43870967741935,1.43225806451613,1.41935483870968,1.41290322580645,1.4,1.39032258064516,1.39032258064516,1.39032258064516,1.38387096774194,1.37741935483871,1.39032258064516,1.37741935483871,1.38709677419355,1.37096774193548,1.37096774193548,1.3741935483871,1.38387096774194,1.3741935483871,1.38064516129032,1.38387096774194,1.3741935483871,1.36451612903226,1.36129032258065,1.35483870967742,1.35806451612903,1.36129032258065,1.36129032258065,1.37096774193548,1.35806451612903,1.36129032258065,1.35806451612903,1.36451612903226,1.35806451612903,1.35483870967742,1.36451612903226,1.35806451612903,1.34516129032258,1.34516129032258,1.35483870967742,1.35806451612903,1.36129032258065,1.36129032258065,1.36774193548387,1.36451612903226,1.36451612903226,1.36451612903226,1.36451612903226,1.37741935483871,1.36451612903226,1.35806451612903,1.35806451612903,1.37096774193548,1.37741935483871,1.38064516129032,1.38064516129032,1.38064516129032,1.39677419354839,1.38387096774194,1.40645161290323,1.42903225806452,1.45161290322581,1.45483870967742,1.44838709677419,1.45161290322581,1.44193548387097,1.4258064516129,1.39354838709677,1.3741935483871,1.35483870967742,1.35806451612903,1.35483870967742,1.35161290322581,1.34838709677419,1.35483870967742,1.35161290322581,1.36129032258065,1.35483870967742,1.34838709677419,1.35483870967742,1.49354838709677,1.84838709677419,2.31612903225806,2.5741935483871,2.53870967741935,2.01935483870968,1.54193548387097,1.30645161290323,1.25806451612903,1.28064516129032,1.30967741935484,1.31935483870968,1.33225806451613,1.33225806451613,1.33225806451613,1.34193548387097,1.33225806451613,1.34193548387097,1.34193548387097,1.33225806451613,1.33548387096774,1.33548387096774,1.33225806451613,1.33548387096774,1.31935483870968,1.31935483870968,1.31935483870968,1.31612903225806,1.31612903225806,1.30645161290323,1.30967741935484,1.31290322580645,1.30967741935484,1.30967741935484,1.30645161290323,1.31290322580645,1.31612903225806,1.30645161290323,1.31290322580645,1.32903225806452,1.34516129032258,1.37741935483871,1.39354838709677,1.42258064516129,1.45161290322581,1.44516129032258,1.46129032258065,1.45806451612903,1.44193548387097,1.42903225806452,1.41290322580645,1.39677419354839,1.40322580645161,1.40322580645161,1.39032258064516,1.38709677419355,1.38709677419355,1.37741935483871,1.38064516129032,1.38387096774194,1.37741935483871,1.37096774193548,1.38387096774194,1.4,1.40645161290323,1.39032258064516,1.38709677419355,1.38387096774194,1.38387096774194,1.38387096774194,1.38064516129032,1.38064516129032,1.37741935483871,1.39032258064516,1.3741935483871,1.38064516129032,1.36451612903226,1.36129032258065,1.35483870967742,1.37741935483871,1.36774193548387,1.3741935483871,1.35483870967742,1.35806451612903,1.35483870967742,1.35161290322581,1.35161290322581,1.35806451612903,1.35483870967742,1.36129032258065,1.35161290322581,1.35483870967742,1.34516129032258,1.34838709677419,1.35483870967742,1.36774193548387,1.34516129032258,1.35161290322581,1.35483870967742,1.35483870967742,1.37096774193548,1.38387096774194,1.39354838709677,1.37741935483871,1.40322580645161,1.43870967741935,1.45161290322581,1.44838709677419,1.43548387096774,1.43225806451613,1.40645161290323,1.37741935483871,1.34838709677419,1.34516129032258,1.33225806451613,1.31935483870968,1.31935483870968,1.3258064516129,1.3258064516129,1.32903225806452,1.31290322580645,1.33870967741935,1.32258064516129,1.34516129032258,1.35806451612903,1.58064516129032,2.03548387096774,2.51290322580645,2.58064516129032,2.4,1.70322580645161,1.35483870967742,1.22258064516129,1.22903225806452,1.26451612903226,1.26774193548387,1.3,1.30645161290323,1.31612903225806,1.3,1.30967741935484,1.30967741935484,1.31935483870968,1.32903225806452,1.33548387096774,1.34838709677419,1.34516129032258,1.35483870967742,1.3258064516129,1.33225806451613,1.31935483870968,1.31290322580645,1.31935483870968,1.31612903225806,1.31612903225806,1.29677419354839,1.28709677419355,1.29677419354839,1.3,1.28709677419355,1.28709677419355,1.30322580645161,1.30322580645161,1.3258064516129,1.33548387096774,1.35161290322581,1.38709677419355,1.41290322580645,1.44193548387097,1.45161290322581,1.48387096774194,1.4741935483871,1.48064516129032,1.47741935483871,1.47096774193548,1.44838709677419,1.46129032258065,1.44193548387097,1.45483870967742
1.37096774193548,1.36129032258065,1.35806451612903,1.36451612903226,1.37096774193548,1.36774193548387,1.36774193548387,1.3741935483871,1.36129032258065,1.37096774193548,1.38064516129032,1.36451612903226,1.37741935483871,1.36129032258065,1.37096774193548,1.35806451612903,1.36129032258065,1.36129032258065,1.35161290322581,1.34193548387097,1.35483870967742,1.34838709677419,1.35483870967742,1.34516129032258,1.35161290322581,1.35483870967742,1.36451612903226,1.36129032258065,1.36129032258065,1.35806451612903,1.35806451612903,1.35806451612903,1.35806451612903,1.35483870967742,1.34516129032258,1.35483870967742,1.33870967741935,1.33225806451613,1.36774193548387,1.36451612903226,1.36774193548387,1.36774193548387,1.3741935483871,1.38387096774194,1.40645161290323,1.40967741935484,1.44193548387097,1.43870967741935,1.45161290322581,1.43225806451613,1.42903225806452,1.4258064516129,1.38709677419355,1.37741935483871,1.36774193548387,1.36129032258065,1.35483870967742,1.35483870967742,1.36451612903226,1.36129032258065,1.35483870967742,1.35806451612903,1.34516129032258,1.37096774193548,1.34193548387097,1.39354838709677,1.59677419354839,2.04838709677419,2.5,2.55806451612903,2.37096774193548,1.64838709677419,1.3,1.19677419354839,1.23870967741935,1.2741935483871,1.29354838709677,1.31612903225806,1.32258064516129,1.31935483870968,1.33225806451613,1.34193548387097,1.33225806451613,1.33870967741935,1.33870967741935,1.33548387096774,1.31612903225806,1.33225806451613,1.33548387096774,1.34193548387097,1.34838709677419,1.33548387096774,1.30967741935484,1.3258064516129,1.32903225806452,1.32258064516129,1.30645161290323,1.31612903225806,1.31612903225806,1.30967741935484,1.31935483870968,1.31290322580645,1.31935483870968,1.31612903225806,1.34193548387097,1.33225806451613,1.35483870967742,1.37741935483871,1.40645161290323,1.4258064516129,1.44516129032258,1.46774193548387,1.4741935483871,1.45161290322581,1.43548387096774,1.42903225806452,1.41935483870968,1.4,1.40645161290323,1.39354838709677,1.39354838709677,1.39032258064516,1.38387096774194,1.37741935483871,1.38064516129032,1.37741935483871,1.36774193548387,1.38064516129032,1.38387096774194,1.38709677419355,1.38709677419355,1.40322580645161,1.38064516129032,1.38709677419355,1.38709677419355,1.37741935483871,1.39032258064516,1.37741935483871,1.36129032258065,1.36451612903226,1.3741935483871,1.36774193548387,1.37741935483871,1.3741935483871,1.36774193548387,1.36774193548387,1.3741935483871,1.36774193548387,1.37096774193548,1.36129032258065,1.36451612903226,1.37096774193548,1.37741935483871,1.3741935483871,1.37741935483871,1.3741935483871,1.3741935483871,1.37741935483871,1.3741935483871,1.36774193548387,1.37096774193548,1.37096774193548,1.36774193548387,1.36451612903226,1.36129032258065,1.37741935483871,1.38387096774194,1.37741935483871,1.38387096774194,1.39354838709677,1.40322580645161,1.41290322580645,1.44193548387097,1.44838709677419,1.45483870967742,1.45483870967742,1.44838709677419,1.42258064516129,1.39354838709677,1.36774193548387,1.36129032258065,1.35161290322581,1.34838709677419,1.34838709677419,1.34193548387097,1.33548387096774,1.34193548387097,1.34516129032258,1.34193548387097,1.35161290322581,1.33225806451613,1.39677419354839,1.64516129032258,2.1,2.51290322580645,2.59354838709677,2.35806451612903,1.71290322580645,1.34516129032258,1.25806451612903,1.26451612903226,1.29354838709677,1.31612903225806,1.3258064516129,1.32903225806452,1.3258064516129,1.33548387096774,1.33548387096774,1.34193548387097,1.33548387096774,1.33548387096774,1.3258064516129,1.31290322580645,1.32258064516129,1.3258064516129,1.32903225806452,1.3258064516129,1.32258064516129,1.32258064516129,1.32258064516129,1.31935483870968,1.31290322580645,1.31290322580645,1.31935483870968,1.30967741935484,1.31935483870968,1.31612903225806,1.30322580645161,1.30322580645161,1.31290322580645,1.31290322580645,1.32903225806452,1.35161290322581,1.37741935483871,1.4,1.43548387096774,1.44193548387097,1.45483870967742,1.45483870967742,1.43225806451613,1.42903225806452,1.40967741935484,1.40322580645161,1.39354838709677,1.38387096774194,1.38387096774194,1.39354838709677,1.37741935483871,1.38387096774194,1.37096774193548,1.36451612903226,1.36129032258065,1.36774193548387,1.36774193548387,1.36774193548387,1.36451612903226,1.36129032258065,1.3741935483871,1.3741935483871,1.37096774193548,1.3741935483871,1.36129032258065,1.36451612903226,1.36774193548387,1.35806451612903,1.36774193548387,1.35806451612903,1.36451612903226,1.35806451612903,1.36129032258065,1.37096774193548,1.36129032258065,1.35806451612903,1.34838709677419,1.36129032258065,1.36129032258065,1.35161290322581,1.35483870967742,1.36129032258065,1.35806451612903,1.35483870967742,1.35483870967742,1.35806451612903,1.34838709677419,1.35483870967742,1.35161290322581,1.34838709677419,1.36774193548387,1.35161290322581,1.35483870967742,1.3741935483871,1.36774193548387,1.40322580645161,1.39354838709677,1.39354838709677,1.39354838709677,1.4258064516129,1.42903225806452,1.46129032258065,1.45806451612903,1.45483870967742,1.45806451612903,1.43870967741935,1.39677419354839,1.37096774193548,1.36774193548387,1.35483870967742,1.35483870967742,1.36774193548387,1.36774193548387,1.34516129032258,1.35161290322581,1.35806451612903,1.34838709677419,1.35161290322581,1.33870967741935,1.36129032258065,1.52903225806452,1.93548387096774,2.40322580645161,2.6,2.4741935483871,1.90645161290323,1.46774193548387,1.27741935483871,1.23548387096774,1.2741935483871,1.30322580645161,1.31935483870968,1.33548387096774,1.33870967741935,1.33225806451613,1.33225806451613,1.3258064516129,1.3258064516129,1.33548387096774,1.34838709677419,1.33870967741935,1.36451612903226,1.34838709677419,1.33870967741935,1.33548387096774,1.32903225806452,1.3258064516129,1.3258064516129,1.32903225806452,1.31935483870968,1.31935483870968,1.31612903225806,1.30967741935484,1.29677419354839,1.28387096774194,1.29032258064516,1.29677419354839,1.28709677419355,1.30322580645161,1.31612903225806,1.3258064516129,1.36129032258065,1.38064516129032,1.40645161290323,1.43225806451613,1.43225806451613,1.44193548387097,1.43548387096774,1.43548387096774,1.42903225806452,1.41290322580645,1.40645161290323,1.4,1.38709677419355,1.38709677419355,1.38387096774194,1.39032258064516,1.39032258064516,1.4,1.38064516129032,1.38387096774194,1.38709677419355,1.3741935483871,1.37741935483871,1.35161290322581,1.37096774193548,1.36451612903226,1.36451612903226,1.36774193548387,1.36451612903226,1.38387096774194,1.36129032258065,1.3741935483871,1.37096774193548,1.35161290322581,1.34516129032258,1.36129032258065,1.37741935483871,1.37096774193548,1.35806451612903,1.36451612903226,1.38709677419355,1.38387096774194,1.36129032258065,1.36129032258065,1.37096774193548,1.36451612903226,1.35161290322581,1.36129032258065,1.36129032258065,1.38387096774194,1.38064516129032,1.38387096774194,1.37096774193548,1.37096774193548,1.38387096774194,1.3741935483871,1.3741935483871,1.39032258064516,1.39354838709677,1.39677419354839,1.41612903225806,1.42258064516129,1.42903225806452,1.46129032258065,1.45161290322581,1.46774193548387,1.46129032258065,1.43870967741935,1.4258064516129,1.39032258064516,1.3741935483871,1.36451612903226,1.36451612903226,1.37096774193548,1.35806451612903,1.36451612903226,1.36129032258065,1.36451612903226,1.35483870967742,1.36774193548387,1.36774193548387,1.36774193548387,1.43225806451613,1.71612903225806,2.18387096774194,2.51612903225806,2.5,2.15161290322581,1.55483870967742,1.24838709677419,1.2258064516129,1.27096774193548,1.30322580645161,1.31612903225806,1.3258064516129,1.3258064516129,1.33225806451613,1.32258064516129,1.33548387096774,1.32903225806452,1.33225806451613,1.33548387096774,1.33548387096774,1.33225806451613,1.32903225806452,1.33225806451613,1.31935483870968,1.3258064516129,1.32258064516129,1.31935483870968,1.32903225806452,1.3258064516129,1.32258064516129,1.31612903225806,1.30645161290323,1.31290322580645,1.30322580645161,1.30322580645161,1.30645161290323,1.32258064516129,1.30322580645161,1.31935483870968,1.33870967741935,1.36129032258065,1.38709677419355,1.40967741935484,1.44516129032258,1.44838709677419,1.46129032258065,1.45483870967742,1.45161290322581,1.43870967741935,1.41290322580645,1.40322580645161,1.38709677419355,1.39354838709677,1.3741935483871,1.37096774193548,1.37741935483871,1.38064516129032,1.37741935483871,1.36774193548387,1.36129032258065,1.38387096774194,1.36451612903226,1.37741935483871,1.37096774193548,1.37096774193548,1.37096774193548,1.36451612903226,1.36774193548387,1.37096774193548,1.37096774193548,1.36774193548387,1.3741935483871,1.36774193548387,1.36451612903226,1.36451612903226,1.36129032258065,1.37096774193548,1.3741935483871,1.36451612903226,1.35806451612903,1.36451612903226,1.36129032258065,1.35483870967742,1.35483870967742,1.36129032258065,1.36129032258065,1.35806451612903,1.35806451612903,1.36129032258065,1.35483870967742,1.36129032258065,1.36129032258065,1.35806451612903,1.36129032258065,1.36774193548387,1.37096774193548,1.36451612903226,1.36774193548387,1.38387096774194,1.38064516129032,1.38387096774194,1.39032258064516,1.39032258064516,1.40645161290323,1.39677419354839,1.41612903225806,1.43225806451613,1.44838709677419,1.45483870967742,1.46451612903226,1.45161290322581,1.42258064516129,1.40322580645161,1.3741935483871,1.36774193548387,1.37096774193548,1.36451612903226,1.35483870967742,1.36129032258065,1.3741935483871,1.35806451612903,1.35806451612903,1.35806451612903,1.37096774193548,1.34193548387097,1.44193548387097,1.71290322580645,2.19032258064516,2.53870967741935,2.59032258064516,2.27096774193548,1.67096774193548,1.33548387096774,1.26129032258065,1.28709677419355,1.31612903225806,1.32258064516129,1.33870967741935,1.33870967741935,1.33225806451613,1.33548387096774,1.33870967741935,1.33548387096774,1.35161290322581,1.33548387096774,1.33225806451613,1.3258064516129,1.32258064516129,1.3258064516129,1.31290322580645,1.30645161290323,1.31290322580645,1.31612903225806,1.3258064516129,1.30645161290323,1.29677419354839,1.3,1.29354838709677,1.29677419354839,1.28387096774194,1.28387096774194,1.27741935483871,1.29354838709677,1.29032258064516,1.3,1.32903225806452,1.35806451612903,1.37096774193548,1.39354838709677,1.42258064516129,1.44516129032258,1.45806451612903,1.44516129032258,1.44193548387097,1.42258064516129,1.40645161290323,1.39354838709677,1.38064516129032,1.39354838709677,1.40645161290323,1.3741935483871,1.36451612903226,1.36129032258065,1.35806451612903,1.33548387096774,1.37096774193548,1.36129032258065,1.36451612903226,1.36451612903226,1.35483870967742,1.3741935483871,1.36774193548387,1.36451612903226,1.3741935483871,1.3741935483871,1.36451612903226,1.36129032258065,1.36129032258065,1.35483870967742,1.35483870967742,1.35806451612903,1.35161290322581,1.36774193548387,1.36129032258065,1.36451612903226,1.35483870967742,1.35806451612903,1.35806451612903,1.36451612903226,1.36774193548387,1.35806451612903,1.36129032258065,1.36451612903226,1.37096774193548,1.36774193548387,1.35806451612903,1.35483870967742,1.36451612903226,1.35161290322581,1.36451612903226,1.36774193548387,1.38064516129032,1.37741935483871,1.39032258064516,1.39354838709677,1.4,1.40322580645161,1.42903225806452,1.43548387096774,1.46774193548387,1.47096774193548,1.46451612903226,1.44516129032258,1.42903225806452,1.41290322580645,1.37096774193548,1.35806451612903,1.34838709677419,1.36129032258065,1.35161290322581,1.35161290322581,1.34838709677419,1.34516129032258,1.34838709677419,1.35806451612903,1.36451612903226,1.36129032258065,1.35483870967742,1.49354838709677,1.84516129032258,2.34193548387097,2.58064516129032,2.49677419354839,1.98709677419355,1.45806451612903,1.24516129032258,1.23548387096774,1.28387096774194,1.3,1.31612903225806,1.30967741935484,1.32258064516129,1.31290322580645,1.31290322580645,1.32258064516129,1.3258064516129,1.33225806451613,1.36129032258065,1.34838709677419,1.35161290322581,1.35806451612903,1.34838709677419,1.34193548387097,1.33548387096774,1.34193548387097,1.33870967741935,1.33870967741935,1.34193548387097,1.33225806451613,1.32903225806452,1.31935483870968,1.30967741935484,1.30967741935484,1.29677419354839,1.31290322580645,1.30645161290323,1.32258064516129,1.34516129032258,1.34838709677419,1.36774193548387,1.38709677419355,1.41935483870968,1.44516129032258,1.46774193548387,1.46451612903226,1.46129032258065,1.46451612903226,1.43870967741935,1.42903225806452,1.42258064516129,1.40645161290323,1.39032258064516,1.38709677419355,1.39354838709677,1.4,1.39354838709677,1.4,1.3741935483871,1.38387096774194,1.38709677419355,1.36774193548387,1.36451612903226,1.37741935483871,1.38064516129032,1.37096774193548,1.3741935483871,1.38064516129032,1.37741935483871,1.3741935483871,1.3741935483871,1.36774193548387,1.36774193548387,1.36451612903226,1.36129032258065,1.36129032258065,1.36774193548387,1.35806451612903,1.36451612903226,1.35806451612903,1.36451612903226,1.36129032258065,1.35483870967742,1.35806451612903,1.36774193548387,1.35161290322581,1.35806451612903,1.36129032258065,1.35806451612903,1.36451612903226,1.3741935483871,1.36129032258065,1.36129032258065,1.36451612903226,1.35806451612903,1.36451612903226,1.36774193548387,1.37741935483871,1.3741935483871,1.39354838709677,1.38709677419355,1.40967741935484,1.42903225806452,1.44193548387097,1.44193548387097,1.43870967741935,1.42258064516129,1.41612903225806,1.38387096774194,1.36451612903226,1.34516129032258,1.34193548387097,1.34516129032258,1.34516129032258,1.33870967741935,1.34838709677419,1.33870967741935,1.34516129032258,1.34838709677419,1.35161290322581,1.32903225806452,1.39354838709677,1.64838709677419,2.10322580645161,2.50322580645161,2.56129032258065,2.31935483870968,1.6741935483871,1.31612903225806,1.23225806451613,1.26129032258065,1.29032258064516,1.30322580645161,1.31290322580645,1.33548387096774,1.32258064516129,1.33225806451613,1.3258064516129,1.35483870967742,1.32903225806452,1.3258064516129,1.3258064516129,1.3258064516129,1.31935483870968,1.31935483870968,1.31290322580645,1.31612903225806,1.30967741935484,1.31612903225806,1.31612903225806,1.31612903225806,1.31935483870968,1.31935483870968,1.31612903225806,1.31612903225806,1.30967741935484,1.30322580645161,1.30645161290323,1.29354838709677,1.3258064516129,1.31612903225806,1.33548387096774,1.35483870967742,1.38387096774194,1.41612903225806,1.43870967741935,1.45483870967742,1.4741935483871,1.45806451612903,1.44516129032258,1.43548387096774,1.43225806451613,1.41290322580645,1.40322580645161,1.40322580645161,1.4,1.39677419354839,1.4,1.38709677419355,1.39032258064516,1.38387096774194,1.37741935483871,1.3741935483871,1.38064516129032,1.37741935483871,1.36774193548387,1.38064516129032,1.38387096774194,1.39677419354839,1.3741935483871,1.39032258064516,1.37096774193548,1.3741935483871,1.37741935483871,1.3741935483871,1.3741935483871,1.38064516129032,1.36451612903226,1.36774193548387,1.36774193548387,1.37096774193548,1.3741935483871,1.37096774193548,1.37096774193548,1.38064516129032,1.35806451612903,1.36129032258065,1.36129032258065,1.37096774193548,1.37096774193548,1.35806451612903,1.36774193548387,1.35483870967742,1.37096774193548,1.36129032258065,1.36774193548387,1.36774193548387,1.36774193548387,1.36451612903226,1.36129032258065,1.35806451612903,1.37096774193548,1.38064516129032,1.39032258064516,1.39677419354839,1.40322580645161,1.4258064516129,1.44193548387097,1.42903225806452,1.45806451612903,1.45806451612903,1.4258064516129,1.4258064516129,1.38709677419355,1.36451612903226,1.3741935483871,1.35483870967742,1.34516129032258,1.33870967741935,1.34193548387097,1.34193548387097,1.35161290322581,1.34193548387097,1.34193548387097,1.34838709677419,1.36129032258065,1.4741935483871,1.8,2.29677419354839,2.6,2.54838709677419,2.15161290322581,1.55161290322581,1.29032258064516,1.23225806451613,1.27096774193548,1.30322580645161,1.30645161290323,1.31612903225806,1.32903225806452,1.32258064516129,1.31290322580645,1.31290322580645,1.31290322580645,1.32258064516129,1.30645161290323,1.33548387096774,1.33548387096774,1.32903225806452,1.33225806451613,1.32903225806452,1.3258064516129,1.31612903225806,1.30322580645161,1.30645161290323,1.30967741935484,1.28709677419355,1.3,1.29032258064516,1.28709677419355,1.27096774193548,1.27741935483871,1.28064516129032,1.27741935483871,1.29032258064516,1.3,1.32258064516129,1.35161290322581,1.36774193548387,1.39032258064516,1.41612903225806,1.43548387096774,1.44193548387097,1.45161290322581,1.44193548387097,1.43225806451613,1.42258064516129,1.40322580645161,1.40322580645161,1.39032258064516,1.4,1.39677419354839,1.37741935483871,1.38387096774194,1.38064516129032,1.3741935483871,1.3741935483871,1.37096774193548,1.37096774193548,1.37741935483871,1.38064516129032,1.37741935483871,1.36129032258065,1.38064516129032,1.37741935483871,1.37741935483871,1.36774193548387,1.36451612903226,1.34516129032258,1.36129032258065,1.3741935483871,1.36451612903226,1.35806451612903,1.37741935483871,1.36774193548387,1.36129032258065,1.35161290322581,1.35483870967742,1.36451612903226,1.36129032258065,1.35161290322581,1.36451612903226,1.37096774193548,1.35161290322581,1.35806451612903,1.37096774193548,1.37096774193548,1.36774193548387,1.37096774193548,1.37096774193548,1.38387096774194,1.37741935483871,1.38387096774194,1.38387096774194,1.40322580645161,1.40645161290323,1.41290322580645,1.42903225806452,1.47741935483871,1.4741935483871,1.46451612903226,1.45161290322581,1.45161290322581,1.43870967741935,1.40322580645161,1.38709677419355,1.3741935483871,1.38387096774194,1.35483870967742,1.36129032258065,1.36774193548387,1.36774193548387,1.37741935483871,1.39032258064516,1.37741935483871,1.38064516129032,1.3741935483871,1.42258064516129,1.66129032258065,2.14516129032258,2.51290322580645,2.52903225806452,2.26129032258065,1.58387096774194,1.25161290322581,1.2258064516129,1.27741935483871,1.30645161290323,1.3258064516129,1.34516129032258,1.35161290322581,1.34193548387097,1.34516129032258,1.34838709677419,1.34516129032258,1.34193548387097,1.34193548387097,1.34838709677419,1.33225806451613,1.34193548387097,1.33870967741935,1.33225806451613,1.33548387096774,1.32903225806452,1.31935483870968,1.33870967741935,1.31935483870968,1.33225806451613,1.31935483870968,1.32903225806452,1.30967741935484,1.31935483870968,1.3,1.30645161290323,1.30967741935484,1.30645161290323,1.31290322580645,1.33870967741935,1.34838709677419,1.36774193548387,1.40967741935484,1.42903225806452,1.44193548387097,1.45161290322581,1.44193548387097,1.44838709677419,1.4258064516129,1.42258064516129,1.40967741935484,1.4,1.4,1.39032258064516,1.38709677419355,1.39354838709677,1.38387096774194,1.38387096774194,1.3741935483871,1.3741935483871,1.3741935483871,1.3741935483871,1.37096774193548,1.38064516129032,1.38064516129032,1.38064516129032,1.37096774193548,1.3741935483871,1.3741935483871,1.3741935483871,1.36451612903226,1.37741935483871,1.36451612903226,1.36774193548387,1.35806451612903,1.35806451612903,1.36129032258065,1.35161290322581,1.35161290322581,1.35806451612903,1.35483870967742,1.34838709677419,1.35483870967742,1.34838709677419,1.36451612903226,1.34516129032258,1.34516129032258,1.34193548387097,1.35483870967742,1.34838709677419,1.36129032258065,1.34838709677419,1.34516129032258,1.36129032258065,1.35161290322581,1.35483870967742,1.35161290322581,1.35806451612903,1.36451612903226,1.35161290322581,1.35806451612903,1.36451612903226,1.38064516129032,1.38709677419355,1.4,1.41935483870968,1.43870967741935,1.44516129032258,1.45806451612903,1.44838709677419,1.43548387096774,1.41290322580645,1.37741935483871,1.35161290322581,1.34838709677419,1.34516129032258,1.35161290322581,1.35483870967742,1.35161290322581,1.35161290322581,1.35483870967742,1.34516129032258,1.35483870967742,1.33225806451613,1.34193548387097,1.46451612903226,1.81290322580645,2.29032258064516,2.55806451612903,2.52258064516129,2.05806451612903,1.55161290322581,1.28709677419355,1.25161290322581,1.27096774193548,1.30967741935484,1.3,1.32258064516129,1.31612903225806,1.31290322580645,1.31290322580645,1.3258064516129,1.3258064516129,1.31935483870968,1.32903225806452,1.31935483870968,1.31935483870968,1.31612903225806,1.31612903225806,1.30645161290323,1.30645161290323,1.30322580645161,1.30967741935484,1.29677419354839,1.30645161290323,1.3,1.29677419354839,1.29677419354839,1.28709677419355,1.29354838709677,1.29354838709677,1.29354838709677,1.3,1.3,1.32258064516129,1.33870967741935,1.36129032258065,1.38709677419355,1.41935483870968,1.44193548387097,1.45806451612903,1.47096774193548,1.47741935483871,1.4741935483871,1.45161290322581,1.43548387096774,1.4258064516129,1.42258064516129,1.41935483870968,1.42258064516129,1.40967741935484,1.40322580645161,1.41290322580645,1.40967741935484,1.40967741935484,1.39354838709677,1.39677419354839,1.40322580645161,1.40967741935484,1.41290322580645,1.43225806451613,1.46451612903226
1.36774193548387,1.36451612903226,1.35483870967742,1.36129032258065,1.35483870967742,1.35483870967742,1.35806451612903,1.36451612903226,1.36451612903226,1.34838709677419,1.34838709677419,1.35806451612903,1.34838709677419,1.35161290322581,1.35161290322581,1.35806451612903,1.35483870967742,1.35161290322581,1.35806451612903,1.34838709677419,1.35806451612903,1.36129032258065,1.36451612903226,1.37741935483871,1.37096774193548,1.36129032258065,1.35483870967742,1.35806451612903,1.36774193548387,1.37096774193548,1.37741935483871,1.38387096774194,1.39032258064516,1.38709677419355,1.40967741935484,1.43225806451613,1.44838709677419,1.45161290322581,1.44516129032258,1.44193548387097,1.4258064516129,1.39354838709677,1.37741935483871,1.36129032258065,1.34516129032258,1.34193548387097,1.33870967741935,1.35161290322581,1.34516129032258,1.34516129032258,1.35806451612903,1.35806451612903,1.36129032258065,1.33548387096774,1.41612903225806,1.68387096774194,2.16129032258065,2.53870967741935,2.59677419354839,2.30645161290323,1.68064516129032,1.33870967741935,1.25483870967742,1.26129032258065,1.28064516129032,1.3,1.30967741935484,1.31612903225806,1.32258064516129,1.31612903225806,1.3258064516129,1.31612903225806,1.33870967741935,1.31935483870968,1.3258064516129,1.31612903225806,1.31935483870968,1.31612903225806,1.31290322580645,1.3,1.31290322580645,1.34516129032258,1.32903225806452,1.30967741935484,1.30645161290323,1.30645161290323,1.29677419354839,1.3,1.30645161290323,1.29032258064516,1.28709677419355,1.28387096774194,1.28387096774194,1.28709677419355,1.30967741935484,1.33225806451613,1.35806451612903,1.41290322580645,1.42903225806452,1.43225806451613,1.43548387096774,1.43870967741935,1.43548387096774,1.43225806451613,1.41290322580645,1.39354838709677,1.39032258064516,1.38387096774194,1.38387096774194,1.37741935483871,1.37741935483871,1.34838709677419,1.36129032258065,1.36451612903226,1.36129032258065,1.36451612903226,1.36451612903226,1.37096774193548,1.37096774193548,1.37096774193548,1.36774193548387,1.37741935483871,1.37096774193548,1.37741935483871,1.38064516129032,1.3741935483871,1.37096774193548,1.37096774193548,1.36129032258065,1.34838709677419,1.36451612903226,1.35161290322581,1.35806451612903,1.35483870967742,1.35161290322581,1.36774193548387,1.35161290322581,1.37096774193548,1.36451612903226,1.35483870967742,1.36774193548387,1.37096774193548,1.36774193548387,1.36451612903226,1.34516129032258,1.36774193548387,1.36774193548387,1.3741935483871,1.36451612903226,1.36774193548387,1.37096774193548,1.40322580645161,1.39032258064516,1.39354838709677,1.39354838709677,1.40967741935484,1.43225806451613,1.46774193548387,1.44838709677419,1.45483870967742,1.44838709677419,1.4258064516129,1.40322580645161,1.38387096774194,1.3741935483871,1.35483870967742,1.35806451612903,1.34838709677419,1.35806451612903,1.36451612903226,1.34516129032258,1.35806451612903,1.35806451612903,1.36451612903226,1.35806451612903,1.3741935483871,1.53548387096774,1.93225806451613,2.40322580645161,2.56129032258065,2.44838709677419,1.84516129032258,1.39677419354839,1.24838709677419,1.24516129032258,1.29032258064516,1.30967741935484,1.3258064516129,1.33870967741935,1.31935483870968,1.33225806451613,1.3258064516129,1.33548387096774,1.34516129032258,1.34516129032258,1.35806451612903,1.3741935483871,1.35806451612903,1.36451612903226,1.37096774193548,1.34516129032258,1.33870967741935,1.33548387096774,1.33548387096774,1.33548387096774,1.31612903225806,1.33548387096774,1.30967741935484,1.31290322580645,1.31612903225806,1.31612903225806,1.32258064516129,1.31612903225806,1.3,1.29677419354839,1.32258064516129,1.33548387096774,1.38064516129032,1.39354838709677,1.4258064516129,1.44193548387097,1.45161290322581,1.47096774193548,1.45483870967742,1.43870967741935,1.43870967741935,1.43870967741935,1.41935483870968,1.39677419354839,1.40645161290323,1.39354838709677,1.38387096774194,1.38709677419355,1.39032258064516,1.37741935483871,1.37096774193548,1.37741935483871,1.37096774193548,1.37741935483871,1.37096774193548,1.38064516129032,1.36774193548387,1.37741935483871,1.38064516129032,1.37096774193548,1.3741935483871,1.38387096774194,1.36451612903226,1.3741935483871,1.36451612903226,1.36774193548387,1.36129032258065,1.35161290322581,1.34838709677419,1.35483870967742,1.35806451612903,1.35483870967742,1.35483870967742,1.36451612903226,1.35161290322581,1.35806451612903,1.36774193548387,1.35806451612903,1.35161290322581,1.36451612903226,1.3741935483871,1.35483870967742,1.35483870967742,1.35483870967742,1.35806451612903,1.35161290322581,1.35806451612903,1.36451612903226,1.36129032258065,1.3741935483871,1.39354838709677,1.39354838709677,1.40322580645161,1.4,1.42258064516129,1.44516129032258,1.44193548387097,1.44838709677419,1.45161290322581,1.42258064516129,1.42258064516129,1.37741935483871,1.36774193548387,1.35806451612903,1.35806451612903,1.35483870967742,1.34838709677419,1.34516129032258,1.35483870967742,1.36129032258065,1.36129032258065,1.35483870967742,1.35483870967742,1.34516129032258,1.47096774193548,1.82258064516129,2.29677419354839,2.54838709677419,2.49677419354839,2.03225806451613,1.5258064516129,1.2741935483871,1.24193548387097,1.2741935483871,1.29354838709677,1.31612903225806,1.33225806451613,1.33548387096774,1.33225806451613,1.33225806451613,1.33225806451613,1.32903225806452,1.33870967741935,1.34193548387097,1.33548387096774,1.33225806451613,1.32903225806452,1.33548387096774,1.31935483870968,1.31935483870968,1.31290322580645,1.32258064516129,1.31935483870968,1.31612903225806,1.31290322580645,1.31290322580645,1.30645161290323,1.30322580645161,1.3,1.30967741935484,1.30967741935484,1.30645161290323,1.31290322580645,1.32258064516129,1.34516129032258,1.36774193548387,1.4,1.41935483870968,1.45161290322581,1.45806451612903,1.45483870967742,1.45483870967742,1.45161290322581,1.42903225806452,1.41290322580645,1.40967741935484,1.4,1.39354838709677,1.37741935483871,1.38064516129032,1.37741935483871,1.36774193548387,1.37096774193548,1.3741935483871,1.37741935483871,1.37741935483871,1.3741935483871,1.37741935483871,1.37741935483871,1.37741935483871,1.38387096774194,1.37096774193548,1.3741935483871,1.37741935483871,1.37096774193548,1.37096774193548,1.35806451612903,1.36451612903226,1.35806451612903,1.36129032258065,1.36129032258065,1.36451612903226,1.36451612903226,1.36451612903226,1.35483870967742,1.36129032258065,1.34838709677419,1.34838709677419,1.35483870967742,1.34838709677419,1.36129032258065,1.36774193548387,1.34838709677419,1.35806451612903,1.35483870967742,1.35161290322581,1.35483870967742,1.35483870967742,1.36451612903226,1.35806451612903,1.3741935483871,1.36129032258065,1.36129032258065,1.35806451612903,1.3741935483871,1.37741935483871,1.38709677419355,1.38064516129032,1.40645161290323,1.43548387096774,1.44838709677419,1.46451612903226,1.46774193548387,1.46451612903226,1.43225806451613,1.4,1.37096774193548,1.36129032258065,1.36451612903226,1.36129032258065,1.34516129032258,1.34193548387097,1.35161290322581,1.35483870967742,1.35161290322581,1.35483870967742,1.36451612903226,1.35806451612903,1.40322580645161,1.66451612903226,2.14838709677419,2.55806451612903,2.6,2.37096774193548,1.70967741935484,1.35806451612903,1.25161290322581,1.26451612903226,1.29032258064516,1.29354838709677,1.31935483870968,1.33225806451613,1.32903225806452,1.32258064516129,1.3258064516129,1.32903225806452,1.33870967741935,1.32903225806452,1.33870967741935,1.35806451612903,1.34838709677419,1.34516129032258,1.33548387096774,1.32258064516129,1.31935483870968,1.31612903225806,1.31290322580645,1.3258064516129,1.33225806451613,1.32258064516129,1.3,1.29677419354839,1.3,1.27741935483871,1.27741935483871,1.29032258064516,1.3,1.30967741935484,1.30967741935484,1.34516129032258,1.37096774193548,1.4,1.41935483870968,1.44193548387097,1.45483870967742,1.47096774193548,1.43870967741935,1.44193548387097,1.42258064516129,1.41935483870968,1.39354838709677,1.39677419354839,1.39354838709677,1.38387096774194,1.37741935483871,1.37096774193548,1.3741935483871,1.35483870967742,1.37741935483871,1.36451612903226,1.35483870967742,1.36451612903226,1.38064516129032,1.36774193548387,1.36129032258065,1.35161290322581,1.35161290322581,1.35161290322581,1.35161290322581,1.37096774193548,1.36129032258065,1.35161290322581,1.3741935483871,1.3741935483871,1.36774193548387,1.37096774193548,1.35483870967742,1.3741935483871,1.35161290322581,1.35483870967742,1.36129032258065,1.36129032258065,1.36451612903226,1.34193548387097,1.35483870967742,1.35483870967742,1.35161290322581,1.36129032258065,1.36451612903226,1.3741935483871,1.35806451612903,1.36451612903226,1.36451612903226,1.37741935483871,1.38064516129032,1.39677419354839,1.39677419354839,1.40645161290323,1.40967741935484,1.43225806451613,1.48064516129032,1.4741935483871,1.47741935483871,1.45806451612903,1.44193548387097,1.43870967741935,1.4,1.38064516129032,1.3741935483871,1.36451612903226,1.34516129032258,1.36451612903226,1.36774193548387,1.3741935483871,1.35483870967742,1.36129032258065,1.36451612903226,1.37096774193548,1.35806451612903,1.4741935483871,1.79354838709677,2.3,2.53225806451613,2.45161290322581,1.96129032258065,1.44516129032258,1.22903225806452,1.24193548387097,1.28709677419355,1.30322580645161,1.32903225806452,1.34193548387097,1.34193548387097,1.34838709677419,1.34516129032258,1.34516129032258,1.35483870967742,1.35483870967742,1.35806451612903,1.35806451612903,1.34838709677419,1.32903225806452,1.34193548387097,1.34838709677419,1.34838709677419,1.33225806451613,1.33225806451613,1.32258064516129,1.32258064516129,1.31612903225806,1.30967741935484,1.30645161290323,1.31290322580645,1.30967741935484,1.30645161290323,1.30645161290323,1.31612903225806,1.33870967741935,1.32258064516129,1.33870967741935,1.35483870967742,1.39032258064516,1.40322580645161,1.43870967741935,1.44838709677419,1.43548387096774,1.44193548387097,1.43225806451613,1.42258064516129,1.40967741935484,1.39354838709677,1.39354838709677,1.38387096774194,1.37096774193548,1.36774193548387,1.37741935483871,1.38064516129032,1.3741935483871,1.3741935483871,1.37741935483871,1.37741935483871,1.38709677419355,1.3741935483871,1.38064516129032,1.38387096774194,1.36774193548387,1.3741935483871,1.36774193548387,1.36451612903226,1.36129032258065,1.36774193548387,1.36129032258065,1.37096774193548,1.3741935483871,1.36451612903226,1.36129032258065,1.36451612903226,1.36129032258065,1.36129032258065,1.36451612903226,1.35806451612903,1.36774193548387,1.36129032258065,1.36129032258065,1.35806451612903,1.35483870967742,1.36774193548387,1.35806451612903,1.35483870967742,1.35483870967742,1.34838709677419,1.35806451612903,1.35806451612903,1.35806451612903,1.35806451612903,1.35161290322581,1.35483870967742,1.35806451612903,1.36774193548387,1.37741935483871,1.38064516129032,1.39354838709677,1.38709677419355,1.41290322580645,1.43225806451613,1.45806451612903,1.45806451612903,1.44193548387097,1.44516129032258,1.42903225806452,1.40322580645161,1.36774193548387,1.36451612903226,1.35161290322581,1.34838709677419,1.34516129032258,1.36774193548387,1.36774193548387,1.35806451612903,1.35161290322581,1.34838709677419,1.35161290322581,1.34193548387097,1.38387096774194,1.6,2.02258064516129,2.47096774193548,2.6,2.43548387096774,1.7741935483871,1.41935483870968,1.25806451612903,1.26129032258065,1.29677419354839,1.30967741935484,1.32258064516129,1.33870967741935,1.32903225806452,1.3258064516129,1.3258064516129,1.33225806451613,1.33225806451613,1.34193548387097,1.33225806451613,1.32258064516129,1.32258064516129,1.31612903225806,1.31935483870968,1.31290322580645,1.31290322580645,1.30322580645161,1.31290322580645,1.32258064516129,1.30967741935484,1.31935483870968,1.35161290322581,1.33548387096774,1.30322580645161,1.29354838709677,1.29677419354839,1.29032258064516,1.3,1.30967741935484,1.33225806451613,1.35806451612903,1.3741935483871,1.39677419354839,1.41935483870968,1.44838709677419,1.46451612903226,1.45483870967742,1.44838709677419,1.44193548387097,1.4258064516129,1.41612903225806,1.40967741935484,1.4,1.39677419354839,1.37741935483871,1.39032258064516,1.38709677419355,1.38064516129032,1.3741935483871,1.38064516129032,1.37741935483871,1.37741935483871,1.37741935483871,1.37741935483871,1.3741935483871,1.38709677419355,1.4,1.3741935483871,1.37096774193548,1.37741935483871,1.38709677419355,1.3741935483871,1.3741935483871,1.39032258064516,1.38387096774194,1.35806451612903,1.36774193548387,1.36129032258065,1.36129032258065,1.37096774193548,1.36129032258065,1.36774193548387,1.36129032258065,1.36774193548387,1.35806451612903,1.35161290322581,1.3741935483871,1.37741935483871,1.37096774193548,1.36774193548387,1.36774193548387,1.37096774193548,1.36451612903226,1.36774193548387,1.35161290322581,1.34516129032258,1.35806451612903,1.35161290322581,1.37096774193548,1.36774193548387,1.37741935483871,1.39677419354839,1.40645161290323,1.39677419354839,1.43870967741935,1.45483870967742,1.43870967741935,1.45806451612903,1.45161290322581,1.43548387096774,1.41290322580645,1.37741935483871,1.36129032258065,1.36451612903226,1.35483870967742,1.36129032258065,1.35161290322581,1.34838709677419,1.33548387096774,1.34516129032258,1.34838709677419,1.36129032258065,1.36129032258065,1.36451612903226,1.5,1.83225806451613,2.35161290322581,2.58709677419355,2.50322580645161,2.07096774193548,1.49032258064516,1.24838709677419,1.24193548387097,1.26451612903226,1.29677419354839,1.3,1.31290322580645,1.31612903225806,1.30322580645161,1.30645161290323,1.30322580645161,1.30322580645161,1.32258064516129,1.33870967741935,1.33225806451613,1.33870967741935,1.33225806451613,1.33548387096774,1.34193548387097,1.31935483870968,1.31935483870968,1.30967741935484,1.31290322580645,1.31612903225806,1.31612903225806,1.30967741935484,1.3,1.30645161290323,1.29354838709677,1.29032258064516,1.29354838709677,1.29032258064516,1.30645161290323,1.3,1.33870967741935,1.35161290322581,1.38064516129032,1.40645161290323,1.43548387096774,1.44516129032258,1.44516129032258,1.45161290322581,1.45161290322581,1.4258064516129,1.40967741935484,1.41612903225806,1.39354838709677,1.38709677419355,1.39354838709677,1.39032258064516,1.38387096774194,1.37741935483871,1.38709677419355,1.39032258064516,1.38387096774194,1.38064516129032,1.39032258064516,1.3741935483871,1.38064516129032,1.38064516129032,1.38709677419355,1.38387096774194,1.3741935483871,1.3741935483871,1.3741935483871,1.36774193548387,1.36129032258065,1.36129032258065,1.38064516129032,1.36129032258065,1.36451612903226,1.3741935483871,1.36774193548387,1.38064516129032,1.36774193548387,1.35806451612903,1.36451612903226,1.3741935483871,1.36129032258065,1.35161290322581,1.35483870967742,1.35161290322581,1.35483870967742,1.35806451612903,1.35483870967742,1.35161290322581,1.35806451612903,1.36451612903226,1.36774193548387,1.36451612903226,1.3741935483871,1.38387096774194,1.39354838709677,1.4,1.40967741935484,1.42903225806452,1.45161290322581,1.45161290322581,1.45806451612903,1.45806451612903,1.43225806451613,1.42903225806452,1.38709677419355,1.36774193548387,1.36451612903226,1.36774193548387,1.35806451612903,1.35483870967742,1.34516129032258,1.34838709677419,1.34838709677419,1.35161290322581,1.36451612903226,1.36129032258065,1.35161290322581,1.41935483870968,1.68709677419355,2.16451612903226,2.52903225806452,2.53870967741935,2.24193548387097,1.61612903225806,1.28709677419355,1.23225806451613,1.26129032258065,1.28709677419355,1.3,1.31612903225806,1.32258064516129,1.31935483870968,1.31612903225806,1.33548387096774,1.33225806451613,1.32903225806452,1.33548387096774,1.32903225806452,1.3258064516129,1.3258064516129,1.33548387096774,1.32258064516129,1.31935483870968,1.33225806451613,1.31290322580645,1.3258064516129,1.32258064516129,1.3258064516129,1.31612903225806,1.32258064516129,1.31290322580645,1.31935483870968,1.3258064516129,1.30967741935484,1.31612903225806,1.32258064516129,1.3258064516129,1.33548387096774,1.36129032258065,1.3741935483871,1.4,1.43225806451613,1.44838709677419,1.45806451612903,1.44193548387097,1.44193548387097,1.4258064516129,1.41935483870968,1.40322580645161,1.4,1.4,1.4,1.39032258064516,1.38064516129032,1.38387096774194,1.37096774193548,1.3741935483871,1.3741935483871,1.37096774193548,1.36774193548387,1.36774193548387,1.36774193548387,1.37741935483871,1.37741935483871,1.3741935483871,1.3741935483871,1.38064516129032,1.36774193548387,1.3741935483871,1.37096774193548,1.36774193548387,1.3741935483871,1.38064516129032,1.37096774193548,1.37741935483871,1.3741935483871,1.36774193548387,1.36774193548387,1.38064516129032,1.3741935483871,1.38064516129032,1.36774193548387,1.36129032258065,1.35483870967742,1.36129032258065,1.36451612903226,1.36129032258065,1.37096774193548,1.36774193548387,1.3741935483871,1.36451612903226,1.37096774193548,1.36129032258065,1.36129032258065,1.36774193548387,1.3741935483871,1.37741935483871,1.38064516129032,1.38709677419355,1.4,1.39032258064516,1.42258064516129,1.43225806451613,1.46774193548387,1.45806451612903,1.45483870967742,1.46129032258065,1.44193548387097,1.4258064516129,1.37741935483871,1.35806451612903,1.36129032258065,1.35806451612903,1.35161290322581,1.34838709677419,1.34193548387097,1.34516129032258,1.35483870967742,1.34838709677419,1.35161290322581,1.33548387096774,1.35161290322581,1.54193548387097,1.95483870967742,2.43225806451613,2.57741935483871,2.45806451612903,1.83225806451613,1.45806451612903,1.2741935483871,1.24838709677419,1.27096774193548,1.3,1.29677419354839,1.31290322580645,1.33548387096774,1.31612903225806,1.31935483870968,1.33548387096774,1.30967741935484,1.32258064516129,1.32258064516129,1.33548387096774,1.36774193548387,1.34516129032258,1.33870967741935,1.3258064516129,1.33225806451613,1.32258064516129,1.3258064516129,1.33548387096774,1.32258064516129,1.33225806451613,1.31612903225806,1.29677419354839,1.3,1.29354838709677,1.29354838709677,1.29354838709677,1.29354838709677,1.31612903225806,1.3258064516129,1.33870967741935,1.35161290322581,1.39354838709677,1.4,1.4258064516129,1.44516129032258,1.44193548387097,1.43870967741935,1.43548387096774,1.4258064516129,1.41290322580645,1.41612903225806,1.38709677419355,1.39677419354839,1.38064516129032,1.37096774193548,1.38064516129032,1.3741935483871,1.3741935483871,1.3741935483871,1.36129032258065,1.37096774193548,1.36774193548387,1.36774193548387,1.37096774193548,1.3741935483871,1.38064516129032,1.37096774193548,1.37741935483871,1.38387096774194,1.36451612903226,1.35806451612903,1.3741935483871,1.38387096774194,1.36774193548387,1.36129032258065,1.37096774193548,1.38064516129032,1.3741935483871,1.37096774193548,1.36774193548387,1.37096774193548,1.35806451612903,1.34838709677419,1.35483870967742,1.35483870967742,1.35161290322581,1.35161290322581,1.34838709677419,1.35483870967742,1.36129032258065,1.36129032258065,1.34838709677419,1.35483870967742,1.37096774193548,1.35806451612903,1.38064516129032,1.38387096774194,1.38709677419355,1.40645161290323,1.40322580645161,1.42258064516129,1.42903225806452,1.43870967741935,1.43548387096774,1.44516129032258,1.40967741935484,1.39677419354839,1.36129032258065,1.35483870967742,1.37096774193548,1.34838709677419,1.34838709677419,1.33548387096774,1.35161290322581,1.35806451612903,1.36774193548387,1.36774193548387,1.35806451612903,1.36129032258065,1.43870967741935,1.7258064516129,2.20322580645161,2.51935483870968,2.49032258064516,2.14838709677419,1.51290322580645,1.23225806451613,1.22903225806452,1.26451612903226,1.28387096774194,1.30645161290323,1.32258064516129,1.3258064516129,1.33548387096774,1.34516129032258,1.34193548387097,1.34193548387097,1.34193548387097,1.35161290322581,1.34516129032258,1.34516129032258,1.33548387096774,1.34516129032258,1.32903225806452,1.32903225806452,1.32903225806452,1.31935483870968,1.33225806451613,1.32258064516129,1.31935483870968,1.31935483870968,1.31612903225806,1.30967741935484,1.30322580645161,1.29032258064516,1.28387096774194,1.30322580645161,1.32903225806452,1.33225806451613,1.32903225806452,1.35806451612903,1.38064516129032,1.42258064516129,1.43870967741935,1.45483870967742,1.44516129032258,1.44516129032258,1.44838709677419,1.43225806451613,1.41935483870968,1.4258064516129,1.40645161290323,1.4,1.39032258064516,1.39032258064516,1.38064516129032,1.39354838709677,1.38709677419355,1.39032258064516,1.39354838709677,1.4,1.39354838709677,1.4,1.4,1.4,1.40645161290323,1.40645161290323,1.39677419354839,1.39677419354839,1.39354838709677,1.39354838709677,1.39354838709677,1.4,1.40645161290323,1.40322580645161,1.38709677419355,1.39354838709677,1.40645161290323,1.40645161290323,1.40645161290323,1.41290322580645,1.40967741935484,1.40322580645161,1.40322580645161,1.41935483870968,1.4258064516129,1.41935483870968,1.43548387096774,1.42903225806452,1.42258064516129
