1.41612903225806,1.40967741935484,1.39354838709677,1.39677419354839,1.39354838709677,1.39032258064516,1.39354838709677,1.39354838709677,1.39354838709677,1.39354838709677,1.39354838709677,1.38709677419355,1.4,1.38709677419355,1.40967741935484,1.4,1.39677419354839,1.4,1.39354838709677,1.4,1.4,1.4,1.39677419354839,1.39354838709677,1.4,1.39354838709677,1.39032258064516,1.41290322580645,1.4,1.38709677419355,1.39032258064516,1.39677419354839,1.38709677419355,1.39677419354839,1.39032258064516,1.4,1.40322580645161,1.41290322580645,1.41612903225806,1.42258064516129,1.41612903225806,1.43548387096774,1.43870967741935,1.44193548387097,1.41290322580645,1.40322580645161,1.38387096774194,1.39032258064516,1.38387096774194,1.38064516129032,1.37741935483871,1.38387096774194,1.39354838709677,1.39354838709677,1.4,1.41612903225806,1.43548387096774,1.51612903225806,1.56129032258065,1.55161290322581,1.46129032258065,1.36129032258065,1.35483870967742,1.3741935483871,1.37741935483871,1.37741935483871,1.38387096774194,1.38064516129032,1.38387096774194,1.38387096774194,1.37741935483871,1.40322580645161,1.38387096774194,1.38387096774194,1.38064516129032,1.38064516129032,1.38387096774194,1.38387096774194,1.38709677419355,1.39354838709677,1.38709677419355,1.40322580645161,1.4,1.4258064516129,1.4,1.42258064516129,1.41935483870968,1.42258064516129,1.42903225806452,1.42903225806452,1.42903225806452,1.42903225806452,1.43548387096774,1.43225806451613,1.43548387096774,1.43548387096774,1.42903225806452,1.42258064516129,1.41290322580645,1.4,1.39677419354839,1.38709677419355,1.38709677419355,1.38709677419355,1.38387096774194,1.38387096774194,1.39032258064516,1.39032258064516,1.37741935483871,1.37096774193548,1.38387096774194,1.37741935483871,1.38387096774194,1.39032258064516,1.39032258064516,1.4,1.38387096774194,1.39032258064516,1.39032258064516,1.39354838709677,1.38387096774194,1.38064516129032,1.38064516129032,1.39032258064516,1.39032258064516,1.38709677419355,1.39032258064516,1.39032258064516,1.39032258064516,1.38387096774194,1.38709677419355,1.38387096774194,1.39677419354839,1.38387096774194,1.38387096774194,1.39032258064516,1.39677419354839,1.39032258064516,1.39677419354839,1.41290322580645,1.40322580645161,1.41612903225806,1.4258064516129,1.42903225806452,1.41935483870968,1.4,1.37741935483871,1.39354838709677,1.3741935483871,1.38709677419355,1.38709677419355,1.38387096774194,1.38064516129032,1.38064516129032,1.38064516129032,1.40322580645161,1.40967741935484,1.44838709677419,1.55806451612903,1.56129032258065,1.47741935483871,1.43225806451613,1.34838709677419,1.35806451612903,1.38064516129032,1.37096774193548,1.38064516129032,1.38387096774194,1.38387096774194,1.38064516129032,1.37741935483871,1.38709677419355,1.38709677419355,1.37741935483871,1.37741935483871,1.38709677419355,1.39354838709677,1.38064516129032,1.39032258064516,1.39354838709677,1.4,1.38387096774194,1.39677419354839,1.39354838709677,1.40645161290323,1.41612903225806,1.40645161290323,1.42258064516129,1.43548387096774,1.43225806451613,1.43548387096774,1.43225806451613,1.43870967741935,1.43225806451613,1.42903225806452,1.43548387096774,1.42903225806452,1.43225806451613,1.42258064516129,1.41935483870968,1.40967741935484,1.40645161290323,1.38064516129032,1.39354838709677,1.39354838709677,1.40322580645161,1.38064516129032,1.39032258064516,1.38387096774194,1.38387096774194,1.39677419354839,1.39677419354839,1.39354838709677,1.39032258064516,1.39677419354839,1.39677419354839,1.39032258064516,1.39032258064516,1.38709677419355,1.39354838709677,1.39032258064516,1.39677419354839,1.39354838709677,1.39354838709677,1.37741935483871,1.4,1.40645161290323,1.39032258064516,1.39354838709677,1.39032258064516,1.38709677419355,1.38709677419355,1.4,1.39677419354839,1.37741935483871,1.39354838709677,1.39677419354839,1.38387096774194,1.41612903225806,1.41935483870968,1.40322580645161,1.41290322580645,1.42903225806452,1.42903225806452,1.40645161290323,1.39032258064516,1.38709677419355,1.37741935483871,1.37741935483871,1.38387096774194,1.37741935483871,1.38387096774194,1.3741935483871,1.3741935483871,1.38709677419355,1.39677419354839,1.40967741935484,1.45161290322581,1.57096774193548,1.54838709677419,1.46451612903226,1.40645161290323,1.32903225806452,1.36774193548387,1.3741935483871,1.35806451612903,1.38064516129032,1.3741935483871,1.3741935483871,1.3741935483871,1.38064516129032,1.38064516129032,1.38064516129032,1.38064516129032,1.38064516129032,1.39032258064516,1.38064516129032,1.37741935483871,1.3741935483871,1.38709677419355,1.38709677419355,1.4,1.39677419354839,1.4,1.41290322580645,1.41290322580645,1.41935483870968,1.41935483870968,1.42258064516129,1.43548387096774,1.43548387096774,1.43548387096774,1.43870967741935,1.45806451612903,1.43548387096774,1.44193548387097,1.43225806451613,1.43870967741935,1.41935483870968,1.41290322580645,1.40645161290323,1.40645161290323,1.39677419354839,1.39354838709677,1.38387096774194,1.39032258064516,1.38387096774194,1.38709677419355,1.39677419354839,1.38387096774194,1.39354838709677,1.4,1.4,1.39032258064516,1.4,1.40645161290323,1.40645161290323,1.39032258064516,1.4,1.39354838709677,1.40322580645161,1.39354838709677,1.38709677419355,1.39032258064516,1.39677419354839,1.39354838709677,1.39032258064516,1.38709677419355,1.4,1.38387096774194,1.39032258064516,1.39032258064516,1.40967741935484,1.39354838709677,1.39354838709677,1.4,1.41290322580645,1.40322580645161,1.40967741935484,1.43225806451613,1.4258064516129,1.40645161290323,1.41935483870968,1.38064516129032,1.38064516129032,1.39032258064516,1.37741935483871,1.39032258064516,1.3741935483871,1.38709677419355,1.39032258064516,1.38387096774194,1.39677419354839,1.4,1.43225806451613,1.53548387096774,1.55806451612903,1.50322580645161,1.44193548387097,1.35161290322581,1.35483870967742,1.38387096774194,1.3741935483871,1.3741935483871,1.38064516129032,1.35806451612903,1.38064516129032,1.38064516129032,1.37741935483871,1.39032258064516,1.37741935483871,1.37741935483871,1.39032258064516,1.37096774193548,1.38387096774194,1.38709677419355,1.38064516129032,1.4,1.38387096774194,1.38387096774194,1.4,1.41290322580645,1.4,1.4,1.41935483870968,1.40967741935484,1.4258064516129,1.42903225806452,1.43225806451613,1.43225806451613,1.43225806451613,1.42903225806452,1.4258064516129,1.43548387096774,1.4258064516129,1.43870967741935,1.41290322580645,1.41290322580645,1.40322580645161,1.38709677419355,1.38387096774194,1.39032258064516,1.38709677419355,1.39032258064516,1.38387096774194,1.38064516129032,1.39354838709677,1.39354838709677,1.38709677419355,1.39354838709677,1.39354838709677,1.39677419354839,1.40322580645161,1.4,1.39677419354839,1.39677419354839,1.40967741935484,1.39354838709677,1.3741935483871,1.40645161290323,1.40645161290323,1.38709677419355,1.4,1.39677419354839,1.39677419354839,1.37096774193548,1.4,1.39677419354839,1.38387096774194,1.39354838709677,1.39354838709677,1.38709677419355,1.39677419354839,1.40322580645161,1.4,1.40645161290323,1.40967741935484,1.41290322580645,1.41935483870968,1.4258064516129,1.44193548387097,1.40322580645161,1.38064516129032,1.39032258064516,1.38064516129032,1.38709677419355,1.38387096774194,1.38387096774194,1.38387096774194,1.38709677419355,1.38064516129032,1.4,1.42258064516129,1.43548387096774,1.52903225806452,1.55806451612903,1.51612903225806,1.46451612903226,1.33870967741935,1.34516129032258,1.37096774193548,1.35806451612903,1.36451612903226,1.37741935483871,1.37741935483871,1.37741935483871,1.3741935483871,1.38064516129032,1.37096774193548,1.38064516129032,1.38709677419355,1.38387096774194,1.37741935483871,1.38064516129032,1.38064516129032,1.38709677419355,1.39677419354839,1.38387096774194,1.39677419354839,1.40645161290323,1.40322580645161,1.40322580645161,1.40967741935484,1.4258064516129,1.40967741935484,1.43225806451613,1.42258064516129,1.4258064516129,1.4258064516129,1.42903225806452,1.45806451612903,1.4258064516129,1.43548387096774,1.42258064516129,1.41935483870968,1.41290322580645,1.40645161290323,1.40322580645161,1.39032258064516,1.38387096774194,1.39677419354839,1.39032258064516,1.39032258064516,1.38387096774194,1.39032258064516,1.39677419354839,1.39677419354839,1.39354838709677,1.38387096774194,1.38709677419355,1.39677419354839,1.39354838709677,1.39677419354839,1.39677419354839,1.39677419354839,1.39677419354839,1.39677419354839,1.39032258064516,1.39677419354839,1.4,1.39032258064516,1.40645161290323,1.39354838709677,1.39032258064516,1.38709677419355,1.38064516129032,1.40322580645161,1.39354838709677,1.38064516129032,1.39032258064516,1.38064516129032,1.39677419354839,1.38709677419355,1.37741935483871,1.40967741935484,1.41612903225806,1.4,1.41935483870968,1.41935483870968,1.40645161290323,1.41612903225806,1.43870967741935,1.42903225806452,1.40645161290323,1.39354838709677,1.38387096774194,1.38387096774194,1.38064516129032,1.38064516129032,1.37741935483871,1.38709677419355,1.38064516129032,1.3741935483871,1.38387096774194,1.39677419354839,1.42903225806452,1.46451612903226,1.55806451612903,1.57096774193548,1.48064516129032,1.41935483870968,1.34193548387097,1.36129032258065,1.37741935483871,1.36774193548387,1.3741935483871,1.36129032258065,1.36774193548387,1.37096774193548,1.36451612903226,1.38064516129032,1.37741935483871,1.37741935483871,1.37741935483871,1.38709677419355,1.38709677419355,1.38064516129032,1.3741935483871,1.4,1.38064516129032,1.39677419354839,1.39032258064516,1.40322580645161,1.40645161290323,1.40645161290323,1.41935483870968,1.4258064516129,1.41935483870968,1.43548387096774,1.43548387096774,1.4258064516129,1.43870967741935,1.44193548387097,1.4258064516129,1.43870967741935,1.4258064516129,1.43225806451613,1.42903225806452,1.40645161290323,1.40322580645161,1.39354838709677,1.38709677419355,1.39354838709677,1.38064516129032,1.38709677419355,1.38709677419355,1.38709677419355,1.38709677419355,1.4,1.39354838709677,1.39354838709677,1.37741935483871,1.40645161290323,1.40322580645161,1.39677419354839,1.39354838709677,1.40322580645161,1.40322580645161,1.40645161290323,1.4,1.4,1.4,1.40645161290323,1.41290322580645,1.40645161290323,1.39354838709677,1.39354838709677,1.4,1.39032258064516,1.39677419354839,1.39677419354839,1.38064516129032,1.3741935483871,1.39354838709677,1.39677419354839,1.40322580645161,1.39677419354839,1.41290322580645,1.40645161290323,1.40322580645161,1.40322580645161,1.44193548387097,1.42903225806452,1.41935483870968,1.39677419354839,1.3741935483871,1.37741935483871,1.38064516129032,1.37741935483871,1.37741935483871,1.38064516129032,1.38064516129032,1.38387096774194,1.38709677419355,1.39032258064516,1.40967741935484,1.4258064516129,1.50645161290323,1.56774193548387,1.51612903225806,1.46129032258065,1.35806451612903,1.34838709677419,1.36451612903226,1.38064516129032,1.38064516129032,1.38709677419355,1.38064516129032,1.38387096774194,1.3741935483871,1.38064516129032,1.36451612903226,1.39677419354839,1.38387096774194,1.38709677419355,1.38387096774194,1.38387096774194,1.39354838709677,1.39032258064516,1.38709677419355,1.38709677419355,1.38709677419355,1.39354838709677,1.40645161290323,1.40967741935484,1.40645161290323,1.40645161290323,1.42258064516129,1.4258064516129,1.4258064516129,1.43548387096774,1.43225806451613,1.43225806451613,1.4258064516129,1.44516129032258,1.43548387096774,1.42903225806452,1.42903225806452,1.41290322580645,1.40322580645161,1.40645161290323,1.4,1.39677419354839,1.38709677419355,1.38709677419355,1.39677419354839,1.38709677419355,1.39032258064516,1.39032258064516,1.39032258064516,1.40322580645161,1.39354838709677,1.39032258064516,1.39677419354839,1.39677419354839,1.39354838709677,1.39677419354839,1.41290322580645,1.39032258064516,1.39677419354839,1.38709677419355,1.38387096774194,1.39677419354839,1.39354838709677,1.39032258064516,1.38387096774194,1.38387096774194,1.39354838709677,1.38387096774194,1.39032258064516,1.38709677419355,1.38387096774194,1.38387096774194,1.38387096774194,1.38387096774194,1.39677419354839,1.39032258064516,1.39677419354839,1.40645161290323,1.40322580645161,1.40322580645161,1.41612903225806,1.41612903225806,1.43870967741935,1.42903225806452,1.39677419354839,1.38387096774194,1.38709677419355,1.37096774193548,1.38709677419355,1.38064516129032,1.38064516129032,1.38387096774194,1.38387096774194,1.38387096774194,1.4,1.41290322580645,1.4258064516129,1.52903225806452,1.55161290322581,1.51290322580645,1.46129032258065,1.35161290322581,1.35483870967742,1.38064516129032,1.3741935483871,1.38064516129032,1.38064516129032,1.38064516129032,1.38064516129032,1.38709677419355,1.3741935483871,1.37096774193548,1.3741935483871,1.3741935483871,1.38709677419355,1.37096774193548,1.3741935483871,1.39354838709677,1.38709677419355,1.39032258064516,1.39354838709677,1.39032258064516,1.39677419354839,1.41290322580645,1.40645161290323,1.40967741935484,1.4258064516129,1.43225806451613,1.4258064516129,1.42903225806452,1.42903225806452,1.42258064516129,1.44193548387097,1.42903225806452,1.43870967741935,1.43548387096774,1.4258064516129,1.42258064516129,1.41290322580645,1.39677419354839,1.39354838709677,1.4,1.39354838709677,1.38709677419355,1.39032258064516,1.38387096774194,1.38709677419355,1.38709677419355,1.38709677419355,1.38709677419355,1.38709677419355,1.40645161290323,1.38709677419355,1.39354838709677,1.38387096774194,1.39032258064516,1.39677419354839,1.39354838709677,1.40645161290323,1.40645161290323,1.40322580645161,1.39677419354839,1.40322580645161,1.39354838709677,1.40322580645161,1.39354838709677,1.39354838709677,1.38709677419355,1.39032258064516,1.40322580645161,1.38709677419355,1.38709677419355,1.38709677419355,1.39354838709677,1.39354838709677,1.38709677419355,1.38709677419355,1.39677419354839,1.41290322580645,1.40967741935484,1.41290322580645,1.42258064516129,1.41612903225806,1.42903225806452,1.42258064516129,1.43870967741935,1.40967741935484,1.39354838709677,1.37741935483871,1.38709677419355,1.38064516129032,1.39354838709677,1.38064516129032,1.38709677419355,1.39354838709677,1.38387096774194,1.38064516129032,1.40322580645161,1.41612903225806,1.44838709677419,1.57741935483871,1.55161290322581,1.48709677419355,1.40967741935484,1.33870967741935,1.35161290322581,1.38064516129032,1.36774193548387,1.37741935483871,1.37741935483871,1.38387096774194,1.38064516129032,1.38387096774194,1.38064516129032,1.38387096774194,1.39032258064516,1.37096774193548,1.38387096774194,1.38387096774194,1.36774193548387,1.38387096774194,1.39677419354839,1.39032258064516,1.39032258064516,1.39354838709677,1.4,1.40322580645161,1.40967741935484,1.41612903225806,1.4258064516129,1.40967741935484,1.4258064516129,1.4258064516129,1.43870967741935,1.42903225806452,1.43548387096774,1.43870967741935,1.43225806451613,1.4258064516129,1.43870967741935,1.42903225806452,1.40967741935484,1.4,1.39354838709677,1.39354838709677,1.40322580645161,1.39677419354839,1.38387096774194,1.38387096774194,1.38709677419355,1.38709677419355,1.38387096774194,1.38709677419355,1.39354838709677,1.38387096774194,1.39354838709677,1.39354838709677,1.39354838709677,1.39032258064516,1.39032258064516,1.39677419354839,1.39677419354839,1.39032258064516,1.39677419354839,1.4,1.41290322580645,1.38064516129032,1.39677419354839,1.38709677419355,1.38709677419355,1.40645161290323,1.39677419354839,1.39354838709677,1.39354838709677,1.38709677419355,1.39032258064516,1.39354838709677,1.38709677419355,1.37741935483871,1.38709677419355,1.40967741935484,1.39354838709677,1.39677419354839,1.40645161290323,1.41612903225806,1.4,1.42258064516129,1.4258064516129,1.43870967741935,1.40967741935484,1.40322580645161,1.38387096774194,1.38387096774194,1.37096774193548,1.38387096774194,1.38064516129032,1.38709677419355,1.3741935483871,1.3741935483871,1.3741935483871,1.39032258064516,1.41612903225806,1.48064516129032,1.58387096774194,1.53225806451613,1.46451612903226,1.38064516129032,1.33548387096774,1.34516129032258,1.3741935483871,1.36129032258065,1.36451612903226,1.37096774193548,1.38387096774194,1.36451612903226,1.3741935483871,1.38064516129032,1.38064516129032,1.38064516129032,1.38064516129032,1.38064516129032,1.38064516129032,1.39032258064516,1.38064516129032,1.38387096774194,1.40322580645161,1.40322580645161,1.39354838709677,1.39354838709677,1.40967741935484,1.41612903225806,1.41290322580645,1.40967741935484,1.43225806451613,1.42903225806452,1.43548387096774,1.44838709677419,1.42903225806452,1.43225806451613,1.43870967741935,1.44193548387097,1.42903225806452,1.44516129032258,1.42258064516129,1.41612903225806,1.40967741935484,1.4,1.39354838709677,1.38387096774194,1.39354838709677,1.39032258064516,1.38709677419355,1.38064516129032,1.39354838709677,1.38709677419355,1.40322580645161,1.39354838709677,1.39032258064516,1.40322580645161,1.40322580645161,1.40645161290323,1.39677419354839,1.40645161290323,1.40645161290323,1.4,1.40322580645161,1.4,1.40967741935484,1.40645161290323,1.40322580645161,1.40322580645161,1.39032258064516,1.4,1.39677419354839,1.38064516129032,1.38709677419355,1.39677419354839,1.4,1.4,1.3741935483871,1.39354838709677,1.39032258064516,1.39354838709677,1.40322580645161,1.4,1.40322580645161,1.41290322580645,1.40967741935484,1.41612903225806,1.41612903225806,1.43548387096774,1.41290322580645,1.39677419354839,1.38709677419355,1.38387096774194,1.38064516129032,1.38064516129032,1.36451612903226,1.37741935483871,1.38387096774194,1.38387096774194,1.38709677419355,1.4,1.41935483870968,1.42903225806452,1.53548387096774,1.55483870967742,1.48709677419355,1.44193548387097,1.34516129032258,1.34838709677419,1.38387096774194,1.36774193548387,1.36774193548387,1.38709677419355,1.36451612903226,1.37096774193548,1.39354838709677,1.38387096774194,1.38064516129032,1.38387096774194,1.39677419354839,1.38064516129032,1.39354838709677,1.38064516129032,1.39677419354839,1.39032258064516,1.39032258064516,1.39354838709677,1.4,1.4,1.40645161290323,1.40645161290323,1.42258064516129,1.41612903225806,1.4258064516129,1.42903225806452,1.43225806451613,1.43225806451613,1.42903225806452,1.44193548387097,1.44516129032258,1.43870967741935,1.42258064516129,1.42258064516129,1.42258064516129,1.41290322580645,1.4,1.39354838709677,1.39354838709677,1.39032258064516,1.38709677419355,1.39354838709677,1.39032258064516,1.37741935483871,1.39032258064516,1.38709677419355,1.38064516129032,1.38064516129032,1.38064516129032,1.39354838709677,1.40322580645161,1.39032258064516,1.4,1.39032258064516,1.4,1.38709677419355,1.39032258064516,1.40645161290323,1.39032258064516,1.39677419354839,1.39354838709677,1.39032258064516,1.39354838709677,1.39032258064516,1.39032258064516,1.38709677419355,1.39354838709677,1.4,1.39032258064516,1.37741935483871,1.38064516129032,1.38709677419355,1.38387096774194,1.38387096774194,1.38709677419355,1.4,1.40645161290323,1.41612903225806,1.41612903225806,1.40322580645161,1.41290322580645,1.4258064516129,1.43225806451613,1.4,1.39032258064516,1.38064516129032,1.3741935483871,1.39354838709677,1.37741935483871,1.3741935483871,1.39032258064516,1.37741935483871,1.37741935483871,1.37741935483871,1.40967741935484,1.43225806451613,1.49032258064516,1.55483870967742,1.56451612903226,1.46129032258065,1.38064516129032,1.34838709677419,1.36451612903226,1.37096774193548,1.35806451612903,1.38709677419355,1.36774193548387,1.38387096774194,1.38064516129032,1.38064516129032,1.38064516129032,1.38709677419355,1.38064516129032,1.38709677419355,1.38709677419355,1.38387096774194,1.38709677419355,1.39354838709677,1.39354838709677,1.39032258064516,1.39354838709677,1.4,1.4,1.39354838709677,1.40967741935484,1.43225806451613,1.41612903225806,1.42903225806452,1.43870967741935,1.4258064516129,1.43225806451613,1.4258064516129,1.43225806451613,1.43225806451613,1.44193548387097,1.42903225806452,1.4258064516129,1.41935483870968,1.40967741935484,1.40322580645161,1.4,1.38709677419355,1.39677419354839,1.38064516129032,1.38064516129032,1.39677419354839,1.38709677419355,1.39032258064516,1.38064516129032,1.38064516129032,1.39677419354839,1.39354838709677,1.39677419354839,1.39677419354839,1.39677419354839,1.39677419354839,1.39677419354839,1.39677419354839,1.39677419354839,1.39354838709677,1.40322580645161,1.40322580645161,1.4,1.4,1.4,1.4,1.4,1.38709677419355,1.39354838709677,1.40322580645161,1.40645161290323,1.40322580645161,1.40322580645161,1.40322580645161,1.40322580645161,1.41290322580645,1.4,1.40322580645161
1.39354838709677,1.40645161290323,1.40322580645161,1.40322580645161,1.42903225806452,1.43548387096774,1.42903225806452,1.41290322580645,1.38709677419355,1.36774193548387,1.36451612903226,1.36451612903226,1.36129032258065,1.36129032258065,1.36129032258065,1.36451612903226,1.36129032258065,1.36774193548387,1.39354838709677,1.43225806451613,1.46451612903226,1.59354838709677,1.57096774193548,1.46129032258065,1.36774193548387,1.28387096774194,1.34838709677419,1.4,1.40322580645161,1.39032258064516,1.39354838709677,1.39032258064516,1.38709677419355,1.38064516129032,1.38709677419355,1.39677419354839,1.38387096774194,1.38387096774194,1.39354838709677,1.39677419354839,1.40322580645161,1.39677419354839,1.40322580645161,1.40967741935484,1.41935483870968,1.4258064516129,1.4258064516129,1.4258064516129,1.43870967741935,1.43870967741935,1.44838709677419,1.45483870967742,1.45806451612903,1.45806451612903,1.46129032258065,1.46129032258065,1.46129032258065,1.47096774193548,1.47096774193548,1.45483870967742,1.44838709677419,1.43870967741935,1.41612903225806,1.41612903225806,1.40645161290323,1.39677419354839,1.38387096774194,1.39354838709677,1.38709677419355,1.38387096774194,1.38709677419355,1.37741935483871,1.37741935483871,1.37741935483871,1.38387096774194,1.37741935483871,1.37741935483871,1.38709677419355,1.38064516129032,1.38709677419355,1.39032258064516,1.37741935483871,1.38709677419355,1.38709677419355,1.37741935483871,1.38064516129032,1.37741935483871,1.37741935483871,1.37741935483871,1.37096774193548,1.38064516129032,1.37741935483871,1.38064516129032,1.3741935483871,1.37741935483871,1.37741935483871,1.37741935483871,1.39354838709677,1.39677419354839,1.40322580645161,1.40322580645161,1.4,1.41612903225806,1.4258064516129,1.4258064516129,1.40645161290323,1.38709677419355,1.37741935483871,1.37741935483871,1.36774193548387,1.36451612903226,1.35806451612903,1.36451612903226,1.36451612903226,1.36129032258065,1.36774193548387,1.39032258064516,1.41290322580645,1.44838709677419,1.54516129032258,1.59032258064516,1.5,1.35806451612903,1.29677419354839,1.31612903225806,1.38387096774194,1.39354838709677,1.38387096774194,1.39032258064516,1.37741935483871,1.38387096774194,1.38387096774194,1.38387096774194,1.38387096774194,1.38064516129032,1.39032258064516,1.38709677419355,1.39032258064516,1.4,1.39354838709677,1.4,1.39677419354839,1.41290322580645,1.41290322580645,1.41290322580645,1.42258064516129,1.42258064516129,1.4258064516129,1.44193548387097,1.44838709677419,1.45483870967742,1.45483870967742,1.45161290322581,1.45483870967742,1.45806451612903,1.45483870967742,1.45483870967742,1.45806451612903,1.44838709677419,1.43548387096774,1.4258064516129,1.40967741935484,1.40322580645161,1.39354838709677,1.38709677419355,1.38387096774194,1.38064516129032,1.38064516129032,1.38064516129032,1.37096774193548,1.37096774193548,1.37741935483871,1.37096774193548,1.37096774193548,1.37741935483871,1.37741935483871,1.37741935483871,1.37741935483871,1.37741935483871,1.38064516129032,1.38387096774194,1.38387096774194,1.37741935483871,1.37741935483871,1.38387096774194,1.38064516129032,1.38709677419355,1.38387096774194,1.37741935483871,1.38064516129032,1.38064516129032,1.37741935483871,1.37741935483871,1.38387096774194,1.4,1.4,1.4,1.41290322580645,1.40645161290323,1.40645161290323,1.42258064516129,1.41935483870968,1.41290322580645,1.39677419354839,1.38709677419355,1.3741935483871,1.3741935483871,1.3741935483871,1.36774193548387,1.36774193548387,1.36774193548387,1.37096774193548,1.36774193548387,1.37096774193548,1.39354838709677,1.42258064516129,1.44838709677419,1.56129032258065,1.56129032258065,1.46451612903226,1.35806451612903,1.27741935483871,1.33548387096774,1.41290322580645,1.40322580645161,1.4,1.38387096774194,1.39354838709677,1.39677419354839,1.38709677419355,1.38709677419355,1.38709677419355,1.38709677419355,1.38709677419355,1.38709677419355,1.39354838709677,1.4,1.39677419354839,1.40645161290323,1.39677419354839,1.40322580645161,1.40645161290323,1.40967741935484,1.41290322580645,1.4258064516129,1.43225806451613,1.44193548387097,1.44838709677419,1.45161290322581,1.45483870967742,1.45806451612903,1.46129032258065,1.45483870967742,1.46129032258065,1.47096774193548,1.46129032258065,1.45161290322581,1.44516129032258,1.43225806451613,1.41612903225806,1.40967741935484,1.40322580645161,1.4,1.39354838709677,1.38709677419355,1.38387096774194,1.38387096774194,1.38387096774194,1.38064516129032,1.38064516129032,1.38709677419355,1.38387096774194,1.38064516129032,1.38387096774194,1.39032258064516,1.38709677419355,1.38709677419355,1.38709677419355,1.38064516129032,1.38709677419355,1.38387096774194,1.38387096774194,1.38709677419355,1.39032258064516,1.38064516129032,1.38064516129032,1.38064516129032,1.3741935483871,1.38064516129032,1.38064516129032,1.38064516129032,1.3741935483871,1.3741935483871,1.38064516129032,1.38709677419355,1.39354838709677,1.39677419354839,1.41290322580645,1.40645161290323,1.40645161290323,1.4258064516129,1.41935483870968,1.41290322580645,1.40322580645161,1.38064516129032,1.37741935483871,1.37096774193548,1.3741935483871,1.37096774193548,1.36451612903226,1.37096774193548,1.36774193548387,1.36774193548387,1.37096774193548,1.40645161290323,1.44193548387097,1.48387096774194,1.59354838709677,1.55161290322581,1.42258064516129,1.36774193548387,1.29354838709677,1.36129032258065,1.40645161290323,1.4,1.38387096774194,1.38387096774194,1.38709677419355,1.39354838709677,1.38709677419355,1.38387096774194,1.38709677419355,1.39032258064516,1.39354838709677,1.39354838709677,1.39354838709677,1.39354838709677,1.4,1.4,1.40322580645161,1.41290322580645,1.41290322580645,1.41612903225806,1.42258064516129,1.42258064516129,1.43225806451613,1.45161290322581,1.44838709677419,1.45483870967742,1.46129032258065,1.46129032258065,1.47096774193548,1.46129032258065,1.47096774193548,1.45806451612903,1.45161290322581,1.44193548387097,1.43548387096774,1.42258064516129,1.40322580645161,1.39677419354839,1.38387096774194,1.38387096774194,1.38064516129032,1.37741935483871,1.3741935483871,1.37096774193548,1.3741935483871,1.36774193548387,1.36774193548387,1.36774193548387,1.3741935483871,1.37096774193548,1.37096774193548,1.37741935483871,1.38387096774194,1.3741935483871,1.3741935483871,1.3741935483871,1.38387096774194,1.38064516129032,1.38387096774194,1.37741935483871,1.38064516129032,1.37096774193548,1.37741935483871,1.37741935483871,1.37741935483871,1.37741935483871,1.36774193548387,1.37741935483871,1.37096774193548,1.3741935483871,1.3741935483871,1.38064516129032,1.39354838709677,1.39677419354839,1.4,1.40322580645161,1.41290322580645,1.4,1.42258064516129,1.42903225806452,1.4258064516129,1.40967741935484,1.39354838709677,1.3741935483871,1.37096774193548,1.37096774193548,1.3741935483871,1.37096774193548,1.36774193548387,1.36774193548387,1.37096774193548,1.37096774193548,1.4,1.43870967741935,1.46129032258065,1.57741935483871,1.5741935483871,1.48387096774194,1.36774193548387,1.29032258064516,1.33548387096774,1.40322580645161,1.39032258064516,1.38064516129032,1.38709677419355,1.38064516129032,1.38387096774194,1.38064516129032,1.38709677419355,1.38387096774194,1.39354838709677,1.39032258064516,1.38709677419355,1.39032258064516,1.39354838709677,1.4,1.4,1.40322580645161,1.40645161290323,1.40967741935484,1.41290322580645,1.4258064516129,1.42903225806452,1.43870967741935,1.43870967741935,1.45161290322581,1.46129032258065,1.46129032258065,1.46774193548387,1.46129032258065,1.47096774193548,1.46774193548387,1.46774193548387,1.45483870967742,1.44838709677419,1.43225806451613,1.4258064516129,1.41612903225806,1.40322580645161,1.39354838709677,1.39032258064516,1.38064516129032,1.38709677419355,1.38064516129032,1.37741935483871,1.37741935483871,1.38709677419355,1.38064516129032,1.37741935483871,1.38064516129032,1.38064516129032,1.38064516129032,1.38387096774194,1.38064516129032,1.38064516129032,1.38064516129032,1.38387096774194,1.38064516129032,1.38709677419355,1.39354838709677,1.38709677419355,1.38387096774194,1.39032258064516,1.38709677419355,1.38064516129032,1.38709677419355,1.38709677419355,1.3741935483871,1.38064516129032,1.38387096774194,1.38387096774194,1.38709677419355,1.38387096774194,1.38709677419355,1.39032258064516,1.39354838709677,1.4,1.40645161290323,1.41935483870968,1.41612903225806,1.40967741935484,1.43870967741935,1.43225806451613,1.41935483870968,1.40967741935484,1.38387096774194,1.3741935483871,1.36451612903226,1.37096774193548,1.36451612903226,1.36774193548387,1.37096774193548,1.36451612903226,1.36451612903226,1.37096774193548,1.39032258064516,1.43225806451613,1.49032258064516,1.59677419354839,1.55483870967742,1.39354838709677,1.34193548387097,1.28709677419355,1.36774193548387,1.4,1.39032258064516,1.38709677419355,1.38064516129032,1.37741935483871,1.37741935483871,1.38387096774194,1.38064516129032,1.39677419354839,1.39032258064516,1.39354838709677,1.39354838709677,1.39354838709677,1.40322580645161,1.39677419354839,1.40322580645161,1.40322580645161,1.41612903225806,1.41935483870968,1.42258064516129,1.4258064516129,1.43548387096774,1.44516129032258,1.44838709677419,1.44193548387097,1.46129032258065,1.46451612903226,1.46129032258065,1.46774193548387,1.46129032258065,1.4741935483871,1.4741935483871,1.46129032258065,1.45161290322581,1.43870967741935,1.42258064516129,1.40967741935484,1.4,1.39677419354839,1.38387096774194,1.37741935483871,1.37096774193548,1.37741935483871,1.36129032258065,1.36129032258065,1.36129032258065,1.37096774193548,1.37096774193548,1.36129032258065,1.37096774193548,1.3741935483871,1.37741935483871,1.37741935483871,1.37741935483871,1.38387096774194,1.38387096774194,1.38709677419355,1.38387096774194,1.38064516129032,1.38709677419355,1.38709677419355,1.38709677419355,1.38709677419355,1.38709677419355,1.38387096774194,1.38387096774194,1.38709677419355,1.38387096774194,1.37741935483871,1.38064516129032,1.38387096774194,1.39354838709677,1.4,1.39677419354839,1.40645161290323,1.41935483870968,1.41612903225806,1.41612903225806,1.43870967741935,1.42903225806452,1.41935483870968,1.4,1.37741935483871,1.38064516129032,1.3741935483871,1.37741935483871,1.37741935483871,1.37096774193548,1.37096774193548,1.37096774193548,1.37096774193548,1.37741935483871,1.40645161290323,1.44193548387097,1.49677419354839,1.60645161290323,1.55161290322581,1.4,1.3258064516129,1.3,1.36129032258065,1.40645161290323,1.39354838709677,1.38387096774194,1.38064516129032,1.37741935483871,1.38064516129032,1.38064516129032,1.38387096774194,1.38064516129032,1.39354838709677,1.39032258064516,1.39032258064516,1.39032258064516,1.39032258064516,1.39354838709677,1.39677419354839,1.4,1.4,1.41612903225806,1.41935483870968,1.42258064516129,1.43225806451613,1.43870967741935,1.43870967741935,1.44516129032258,1.45483870967742,1.46129032258065,1.44516129032258,1.45806451612903,1.46129032258065,1.45806451612903,1.45483870967742,1.45483870967742,1.43870967741935,1.43225806451613,1.41612903225806,1.40967741935484,1.4,1.38709677419355,1.39032258064516,1.38387096774194,1.3741935483871,1.37096774193548,1.3741935483871,1.38064516129032,1.37096774193548,1.3741935483871,1.3741935483871,1.38064516129032,1.38064516129032,1.38064516129032,1.38709677419355,1.38064516129032,1.38064516129032,1.39032258064516,1.38064516129032,1.38064516129032,1.38064516129032,1.38064516129032,1.37096774193548,1.38064516129032,1.36774193548387,1.37741935483871,1.3741935483871,1.3741935483871,1.36774193548387,1.3741935483871,1.36129032258065,1.37096774193548,1.3741935483871,1.38709677419355,1.38709677419355,1.39677419354839,1.4,1.40322580645161,1.40322580645161,1.41612903225806,1.42903225806452,1.41935483870968,1.40322580645161,1.39032258064516,1.3741935483871,1.36774193548387,1.38064516129032,1.3741935483871,1.3741935483871,1.37741935483871,1.3741935483871,1.3741935483871,1.3741935483871,1.39354838709677,1.42903225806452,1.44193548387097,1.55483870967742,1.58387096774194,1.48064516129032,1.36129032258065,1.28709677419355,1.32258064516129,1.39032258064516,1.40645161290323,1.38387096774194,1.39354838709677,1.38387096774194,1.38387096774194,1.38387096774194,1.37741935483871,1.39354838709677,1.39032258064516,1.39677419354839,1.39677419354839,1.4,1.40967741935484,1.4,1.4,1.40645161290323,1.41612903225806,1.41290322580645,1.41612903225806,1.4258064516129,1.42903225806452,1.43548387096774,1.44838709677419,1.44838709677419,1.45483870967742,1.46451612903226,1.46451612903226,1.46451612903226,1.46451612903226,1.47096774193548,1.46774193548387,1.46451612903226,1.45806451612903,1.44516129032258,1.42903225806452,1.41935483870968,1.39677419354839,1.39032258064516,1.38709677419355,1.38709677419355,1.38387096774194,1.38387096774194,1.38709677419355,1.37741935483871,1.38064516129032,1.37741935483871,1.37741935483871,1.37741935483871,1.37741935483871,1.37741935483871,1.38064516129032,1.38709677419355,1.38387096774194,1.38709677419355,1.38064516129032,1.38709677419355,1.38709677419355,1.39032258064516,1.39677419354839,1.38709677419355,1.38709677419355,1.38387096774194,1.38387096774194,1.38387096774194,1.39032258064516,1.38064516129032,1.38709677419355,1.38387096774194,1.38387096774194,1.38709677419355,1.39032258064516,1.39677419354839,1.4,1.40645161290323,1.42258064516129,1.40645161290323,1.40967741935484,1.44516129032258,1.42903225806452,1.42258064516129,1.40967741935484,1.38709677419355,1.37741935483871,1.37741935483871,1.37096774193548,1.36774193548387,1.36451612903226,1.37096774193548,1.36774193548387,1.36774193548387,1.38064516129032,1.40322580645161,1.44193548387097,1.5,1.58709677419355,1.54838709677419,1.39677419354839,1.35161290322581,1.3,1.3741935483871,1.40645161290323,1.39677419354839,1.38387096774194,1.38387096774194,1.37741935483871,1.38387096774194,1.37741935483871,1.38387096774194,1.38387096774194,1.38387096774194,1.38387096774194,1.38387096774194,1.38709677419355,1.38709677419355,1.39354838709677,1.39354838709677,1.40322580645161,1.40322580645161,1.40322580645161,1.40967741935484,1.41290322580645,1.42258064516129,1.43225806451613,1.44193548387097,1.44193548387097,1.45161290322581,1.45806451612903,1.46129032258065,1.46129032258065,1.46451612903226,1.46451612903226,1.46129032258065,1.45161290322581,1.43548387096774,1.42903225806452,1.41290322580645,1.40645161290323,1.4,1.38709677419355,1.38064516129032,1.36774193548387,1.3741935483871,1.36774193548387,1.36129032258065,1.37096774193548,1.37096774193548,1.37096774193548,1.37096774193548,1.37096774193548,1.37096774193548,1.3741935483871,1.3741935483871,1.37741935483871,1.38709677419355,1.38709677419355,1.38387096774194,1.38064516129032,1.3741935483871,1.38064516129032,1.38064516129032,1.37741935483871,1.37741935483871,1.37741935483871,1.36451612903226,1.3741935483871,1.37741935483871,1.37741935483871,1.3741935483871,1.3741935483871,1.3741935483871,1.37096774193548,1.38064516129032,1.38709677419355,1.39032258064516,1.39677419354839,1.41290322580645,1.41290322580645,1.41290322580645,1.4258064516129,1.41935483870968,1.41612903225806,1.39677419354839,1.38064516129032,1.3741935483871,1.37096774193548,1.36774193548387,1.36774193548387,1.36774193548387,1.37741935483871,1.37096774193548,1.36774193548387,1.3741935483871,1.40645161290323,1.44193548387097,1.50645161290323,1.60645161290323,1.54838709677419,1.40322580645161,1.34516129032258,1.30967741935484,1.38064516129032,1.40645161290323,1.39354838709677,1.39032258064516,1.38709677419355,1.39032258064516,1.39032258064516,1.39032258064516,1.38709677419355,1.39032258064516,1.4,1.39677419354839,1.4,1.4,1.4,1.40645161290323,1.4,1.40645161290323,1.40645161290323,1.41290322580645,1.4258064516129,1.42903225806452,1.43548387096774,1.44516129032258,1.45161290322581,1.45806451612903,1.46774193548387,1.4741935483871,1.47096774193548,1.4741935483871,1.4741935483871,1.4741935483871,1.47096774193548,1.45161290322581,1.45161290322581,1.43225806451613,1.42903225806452,1.41935483870968,1.40645161290323,1.40322580645161,1.39032258064516,1.39032258064516,1.38387096774194,1.37741935483871,1.38387096774194,1.38064516129032,1.38387096774194,1.38064516129032,1.38064516129032,1.38387096774194,1.38387096774194,1.37741935483871,1.37741935483871,1.38709677419355,1.38064516129032,1.38387096774194,1.38387096774194,1.38387096774194,1.38387096774194,1.38387096774194,1.39032258064516,1.38064516129032,1.38709677419355,1.38064516129032,1.38064516129032,1.37741935483871,1.37741935483871,1.37096774193548,1.37741935483871,1.37741935483871,1.36774193548387,1.36774193548387,1.36774193548387,1.38387096774194,1.39032258064516,1.39354838709677,1.39677419354839,1.40645161290323,1.40967741935484,1.40645161290323,1.41612903225806,1.42903225806452,1.41935483870968,1.41290322580645,1.39032258064516,1.37096774193548,1.36451612903226,1.3741935483871,1.35806451612903,1.36774193548387,1.36774193548387,1.36774193548387,1.36451612903226,1.36774193548387,1.39677419354839,1.42258064516129,1.46451612903226,1.57096774193548,1.58709677419355,1.49032258064516,1.36774193548387,1.28387096774194,1.33225806451613,1.39032258064516,1.39677419354839,1.3741935483871,1.38064516129032,1.38064516129032,1.38709677419355,1.37741935483871,1.38387096774194,1.37741935483871,1.39032258064516,1.39032258064516,1.39032258064516,1.38387096774194,1.39677419354839,1.39677419354839,1.39354838709677,1.4,1.4,1.40967741935484,1.40967741935484,1.41935483870968,1.42258064516129,1.43870967741935,1.43870967741935,1.44516129032258,1.45483870967742,1.44838709677419,1.46451612903226,1.46451612903226,1.46774193548387,1.45806451612903,1.46451612903226,1.45806451612903,1.45161290322581,1.43870967741935,1.4258064516129,1.41612903225806,1.40322580645161,1.4,1.39354838709677,1.38709677419355,1.38064516129032,1.38709677419355,1.38387096774194,1.38709677419355,1.38387096774194,1.38064516129032,1.37741935483871,1.37741935483871,1.38387096774194,1.37741935483871,1.38709677419355,1.37741935483871,1.38709677419355,1.38709677419355,1.38709677419355,1.38709677419355,1.38064516129032,1.38709677419355,1.37741935483871,1.38064516129032,1.38064516129032,1.37741935483871,1.3741935483871,1.3741935483871,1.37741935483871,1.37741935483871,1.37096774193548,1.3741935483871,1.37741935483871,1.37741935483871,1.37741935483871,1.38709677419355,1.4,1.40322580645161,1.41935483870968,1.40645161290323,1.4,1.41290322580645,1.42903225806452,1.42903225806452,1.40322580645161,1.38064516129032,1.36774193548387,1.36774193548387,1.36451612903226,1.36774193548387,1.36129032258065,1.36129032258065,1.36774193548387,1.3741935483871,1.36129032258065,1.39677419354839,1.43548387096774,1.46451612903226,1.58709677419355,1.57741935483871,1.47741935483871,1.36774193548387,1.28387096774194,1.33870967741935,1.40645161290323,1.39677419354839,1.37741935483871,1.38064516129032,1.38709677419355,1.39032258064516,1.39032258064516,1.38709677419355,1.38064516129032,1.38064516129032,1.39032258064516,1.39032258064516,1.39677419354839,1.39677419354839,1.39032258064516,1.39677419354839,1.4,1.40322580645161,1.40645161290323,1.41612903225806,1.41935483870968,1.4258064516129,1.43225806451613,1.44193548387097,1.44516129032258,1.45161290322581,1.44838709677419,1.46129032258065,1.45806451612903,1.46774193548387,1.46451612903226,1.46451612903226,1.45483870967742,1.45483870967742,1.43225806451613,1.4258064516129,1.41935483870968,1.40322580645161,1.39677419354839,1.38709677419355,1.38064516129032,1.38064516129032,1.37096774193548,1.37741935483871,1.37741935483871,1.37096774193548,1.38064516129032,1.38387096774194,1.38064516129032,1.38064516129032,1.37741935483871,1.39032258064516,1.39354838709677,1.39354838709677,1.38387096774194,1.39354838709677,1.38709677419355,1.38709677419355,1.39354838709677,1.38709677419355,1.38387096774194,1.38387096774194,1.38709677419355,1.38709677419355,1.39032258064516,1.39354838709677,1.38709677419355,1.38709677419355,1.38387096774194,1.38064516129032,1.38064516129032,1.39354838709677,1.40322580645161,1.40967741935484,1.40967741935484,1.40967741935484,1.40322580645161,1.42258064516129,1.43548387096774,1.42258064516129,1.40645161290323,1.39032258064516,1.37096774193548,1.37096774193548,1.36774193548387,1.37096774193548,1.37096774193548,1.37741935483871,1.37096774193548,1.37096774193548,1.37741935483871,1.4,1.42903225806452,1.45161290322581,1.56129032258065,1.58387096774194,1.49354838709677,1.37096774193548,1.3,1.34516129032258,1.40967741935484,1.40645161290323,1.39354838709677,1.39677419354839,1.39032258064516,1.39354838709677,1.39354838709677,1.38709677419355,1.39032258064516,1.39032258064516,1.39032258064516,1.39032258064516,1.40645161290323,1.40645161290323,1.39354838709677,1.40967741935484,1.40967741935484,1.41290322580645
1.40967741935484,1.41935483870968,1.42258064516129,1.42903225806452,1.43225806451613,1.43870967741935,1.44516129032258,1.45161290322581,1.45806451612903,1.46774193548387,1.46774193548387,1.46451612903226,1.46451612903226,1.46451612903226,1.4741935483871,1.47096774193548,1.46451612903226,1.45806451612903,1.43870967741935,1.4258064516129,1.41935483870968,1.40645161290323,1.40322580645161,1.38709677419355,1.38709677419355,1.38709677419355,1.38064516129032,1.38064516129032,1.38387096774194,1.38387096774194,1.37741935483871,1.37741935483871,1.38064516129032,1.38709677419355,1.38709677419355,1.37741935483871,1.38387096774194,1.38387096774194,1.39354838709677,1.38709677419355,1.38709677419355,1.38709677419355,1.39677419354839,1.4,1.38387096774194,1.39032258064516,1.39032258064516,1.39032258064516,1.39032258064516,1.39032258064516,1.39032258064516,1.39032258064516,1.40645161290323,1.40967741935484,1.40967741935484,1.41612903225806,1.41290322580645,1.41935483870968,1.4258064516129,1.44193548387097,1.43548387096774,1.41935483870968,1.4,1.38064516129032,1.3741935483871,1.3741935483871,1.3741935483871,1.3741935483871,1.3741935483871,1.3741935483871,1.37096774193548,1.37096774193548,1.39032258064516,1.40967741935484,1.44193548387097,1.51612903225806,1.60322580645161,1.58064516129032,1.43870967741935,1.38064516129032,1.29677419354839,1.36451612903226,1.40322580645161,1.38709677419355,1.38064516129032,1.37741935483871,1.3741935483871,1.38064516129032,1.38064516129032,1.38064516129032,1.38387096774194,1.39032258064516,1.39032258064516,1.38387096774194,1.38064516129032,1.39032258064516,1.39354838709677,1.4,1.39677419354839,1.40322580645161,1.40322580645161,1.41612903225806,1.41612903225806,1.42258064516129,1.4258064516129,1.43870967741935,1.45161290322581,1.44516129032258,1.44193548387097,1.45483870967742,1.45806451612903,1.45806451612903,1.45161290322581,1.44838709677419,1.44193548387097,1.42903225806452,1.42258064516129,1.41290322580645,1.4,1.38709677419355,1.38387096774194,1.37741935483871,1.3741935483871,1.37741935483871,1.3741935483871,1.37741935483871,1.37096774193548,1.37741935483871,1.37096774193548,1.36774193548387,1.3741935483871,1.37096774193548,1.37741935483871,1.3741935483871,1.37741935483871,1.37741935483871,1.38709677419355,1.37096774193548,1.38064516129032,1.3741935483871,1.38064516129032,1.38387096774194,1.38064516129032,1.38064516129032,1.37096774193548,1.3741935483871,1.3741935483871,1.38064516129032,1.3741935483871,1.3741935483871,1.3741935483871,1.39032258064516,1.38387096774194,1.39032258064516,1.39677419354839,1.41290322580645,1.40322580645161,1.40645161290323,1.43225806451613,1.43225806451613,1.41612903225806,1.40645161290323,1.38387096774194,1.36774193548387,1.36129032258065,1.36451612903226,1.35806451612903,1.36451612903226,1.37096774193548,1.37096774193548,1.36129032258065,1.3741935483871,1.39354838709677,1.41612903225806,1.44838709677419,1.55161290322581,1.61612903225806,1.57096774193548,1.40967741935484,1.32903225806452,1.31290322580645,1.36451612903226,1.39354838709677,1.38709677419355,1.38709677419355,1.38064516129032,1.38709677419355,1.38387096774194,1.38064516129032,1.38064516129032,1.38064516129032,1.37741935483871,1.38064516129032,1.39354838709677,1.38064516129032,1.39032258064516,1.38709677419355,1.39677419354839,1.4,1.4,1.40645161290323,1.41290322580645,1.41612903225806,1.4258064516129,1.43548387096774,1.43870967741935,1.45161290322581,1.45161290322581,1.45161290322581,1.45161290322581,1.44838709677419,1.45161290322581,1.44516129032258,1.44516129032258,1.43870967741935,1.4258064516129,1.41935483870968,1.40967741935484,1.4,1.38709677419355,1.38709677419355,1.37741935483871,1.38387096774194,1.38064516129032,1.38064516129032,1.38064516129032,1.37741935483871,1.37096774193548,1.37741935483871,1.38064516129032,1.38709677419355,1.38064516129032,1.38387096774194,1.38709677419355,1.38064516129032,1.38387096774194,1.4,1.38387096774194,1.39354838709677,1.39032258064516,1.39032258064516,1.39032258064516,1.39677419354839,1.39354838709677,1.38387096774194,1.38387096774194,1.37741935483871,1.38709677419355,1.38709677419355,1.39677419354839,1.39032258064516,1.39032258064516,1.4,1.40645161290323,1.40967741935484,1.41290322580645,1.42903225806452,1.42258064516129,1.43225806451613,1.45161290322581,1.44516129032258,1.4258064516129,1.4,1.39032258064516,1.38064516129032,1.37741935483871,1.37741935483871,1.37741935483871,1.3741935483871,1.37096774193548,1.37096774193548,1.37741935483871,1.38387096774194,1.40645161290323,1.44516129032258,1.5,1.61935483870968,1.60645161290323,1.50967741935484,1.40967741935484,1.3,1.34193548387097,1.39354838709677,1.38709677419355,1.37096774193548,1.38387096774194,1.38064516129032,1.38387096774194,1.38387096774194,1.3741935483871,1.38064516129032,1.3741935483871,1.38064516129032,1.38709677419355,1.38064516129032,1.39032258064516,1.39032258064516,1.39677419354839,1.39354838709677,1.4,1.4,1.40322580645161,1.41935483870968,1.4258064516129,1.4258064516129,1.44193548387097,1.44838709677419,1.45161290322581,1.44516129032258,1.45483870967742,1.45161290322581,1.43870967741935,1.45483870967742,1.43870967741935,1.43548387096774,1.43225806451613,1.41935483870968,1.41290322580645,1.39677419354839,1.39354838709677,1.38387096774194,1.38064516129032,1.37741935483871,1.37741935483871,1.38064516129032,1.37096774193548,1.36774193548387,1.37741935483871,1.36774193548387,1.37741935483871,1.36451612903226,1.36451612903226,1.36774193548387,1.3741935483871,1.36774193548387,1.3741935483871,1.37741935483871,1.38064516129032,1.3741935483871,1.38387096774194,1.38064516129032,1.37741935483871,1.37741935483871,1.38709677419355,1.38064516129032,1.38387096774194,1.38709677419355,1.38709677419355,1.38064516129032,1.38387096774194,1.38064516129032,1.38387096774194,1.38387096774194,1.39354838709677,1.40322580645161,1.40322580645161,1.40967741935484,1.42258064516129,1.4258064516129,1.42903225806452,1.44516129032258,1.44193548387097,1.42903225806452,1.41612903225806,1.39354838709677,1.38064516129032,1.37741935483871,1.3741935483871,1.36451612903226,1.37096774193548,1.37096774193548,1.36129032258065,1.36451612903226,1.37096774193548,1.4,1.42903225806452,1.46129032258065,1.58064516129032,1.60322580645161,1.53548387096774,1.4,1.29354838709677,1.31612903225806,1.37741935483871,1.38387096774194,1.36774193548387,1.37741935483871,1.36774193548387,1.37741935483871,1.36774193548387,1.37741935483871,1.38387096774194,1.37741935483871,1.38387096774194,1.38709677419355,1.38387096774194,1.39032258064516,1.39032258064516,1.39032258064516,1.4,1.40322580645161,1.40645161290323,1.41290322580645,1.41612903225806,1.42903225806452,1.43225806451613,1.43548387096774,1.44193548387097,1.45806451612903,1.45161290322581,1.45161290322581,1.45806451612903,1.45483870967742,1.45806451612903,1.45483870967742,1.44838709677419,1.44193548387097,1.43548387096774,1.42258064516129,1.40967741935484,1.39354838709677,1.39354838709677,1.39677419354839,1.38064516129032,1.38387096774194,1.39032258064516,1.38064516129032,1.38064516129032,1.38064516129032,1.37741935483871,1.38064516129032,1.3741935483871,1.3741935483871,1.38064516129032,1.3741935483871,1.36774193548387,1.37741935483871,1.3741935483871,1.3741935483871,1.38064516129032,1.38064516129032,1.38387096774194,1.38709677419355,1.38387096774194,1.38064516129032,1.38064516129032,1.38064516129032,1.38064516129032,1.38064516129032,1.38709677419355,1.3741935483871,1.38387096774194,1.38709677419355,1.38709677419355,1.39677419354839,1.39677419354839,1.40967741935484,1.41612903225806,1.40967741935484,1.41612903225806,1.43548387096774,1.4258064516129,1.41935483870968,1.40322580645161,1.38387096774194,1.37741935483871,1.37096774193548,1.37096774193548,1.37741935483871,1.3741935483871,1.3741935483871,1.37096774193548,1.37096774193548,1.3741935483871,1.4,1.43870967741935,1.46129032258065,1.5741935483871,1.60322580645161,1.54516129032258,1.39032258064516,1.31612903225806,1.31935483870968,1.38387096774194,1.4,1.38064516129032,1.39032258064516,1.37741935483871,1.38387096774194,1.38387096774194,1.38387096774194,1.39032258064516,1.39354838709677,1.39032258064516,1.38709677419355,1.39032258064516,1.39354838709677,1.40322580645161,1.4,1.40967741935484,1.40967741935484,1.42258064516129,1.42258064516129,1.4258064516129,1.4258064516129,1.42903225806452,1.43548387096774,1.44193548387097,1.44838709677419,1.45161290322581,1.45161290322581,1.45806451612903,1.45161290322581,1.45161290322581,1.44838709677419,1.43870967741935,1.43548387096774,1.4258064516129,1.41290322580645,1.4,1.40322580645161,1.38387096774194,1.38387096774194,1.38387096774194,1.38064516129032,1.36774193548387,1.37741935483871,1.37096774193548,1.37741935483871,1.38064516129032,1.38064516129032,1.38387096774194,1.37741935483871,1.38064516129032,1.38387096774194,1.38064516129032,1.38387096774194,1.38709677419355,1.39032258064516,1.38387096774194,1.38709677419355,1.38387096774194,1.38387096774194,1.38709677419355,1.38064516129032,1.38387096774194,1.37741935483871,1.37741935483871,1.37741935483871,1.37741935483871,1.37741935483871,1.37741935483871,1.38064516129032,1.37741935483871,1.39032258064516,1.39354838709677,1.4,1.40322580645161,1.4,1.4,1.41935483870968,1.43225806451613,1.42258064516129,1.41290322580645,1.39354838709677,1.38387096774194,1.37096774193548,1.37096774193548,1.37096774193548,1.37096774193548,1.37096774193548,1.36774193548387,1.37741935483871,1.3741935483871,1.38709677419355,1.41935483870968,1.44193548387097,1.50967741935484,1.60645161290323,1.5741935483871,1.44193548387097,1.3741935483871,1.30645161290323,1.36451612903226,1.40322580645161,1.39677419354839,1.39032258064516,1.39032258064516,1.38387096774194,1.38387096774194,1.39032258064516,1.38387096774194,1.38709677419355,1.39032258064516,1.38387096774194,1.39032258064516,1.39677419354839,1.39032258064516,1.39354838709677,1.40322580645161,1.40322580645161,1.40645161290323,1.40645161290323,1.41612903225806,1.42258064516129,1.4258064516129,1.43548387096774,1.43870967741935,1.44516129032258,1.45483870967742,1.45483870967742,1.46129032258065,1.45483870967742,1.45161290322581,1.45161290322581,1.45161290322581,1.44193548387097,1.43225806451613,1.4258064516129,1.40967741935484,1.40322580645161,1.39354838709677,1.39354838709677,1.39032258064516,1.38064516129032,1.38387096774194,1.37741935483871,1.38387096774194,1.38064516129032,1.3741935483871,1.3741935483871,1.37741935483871,1.37741935483871,1.37741935483871,1.37741935483871,1.37741935483871,1.38064516129032,1.37741935483871,1.38387096774194,1.37741935483871,1.38387096774194,1.38064516129032,1.38064516129032,1.38387096774194,1.37741935483871,1.37741935483871,1.38064516129032,1.37096774193548,1.37096774193548,1.37096774193548,1.36774193548387,1.3741935483871,1.37741935483871,1.37096774193548,1.37096774193548,1.36451612903226,1.39032258064516,1.39032258064516,1.39677419354839,1.40967741935484,1.41290322580645,1.41290322580645,1.42903225806452,1.42903225806452,1.4258064516129,1.40645161290323,1.38387096774194,1.37096774193548,1.36451612903226,1.36451612903226,1.36774193548387,1.36451612903226,1.36129032258065,1.36129032258065,1.37096774193548,1.36129032258065,1.39354838709677,1.42258064516129,1.45483870967742,1.56451612903226,1.61612903225806,1.5741935483871,1.41612903225806,1.33548387096774,1.31935483870968,1.37096774193548,1.4,1.38064516129032,1.38709677419355,1.37741935483871,1.37741935483871,1.3741935483871,1.3741935483871,1.37741935483871,1.37741935483871,1.38064516129032,1.39032258064516,1.39032258064516,1.38709677419355,1.39032258064516,1.39677419354839,1.39677419354839,1.40645161290323,1.40645161290323,1.41290322580645,1.41290322580645,1.4258064516129,1.43225806451613,1.43548387096774,1.45161290322581,1.45806451612903,1.45806451612903,1.46129032258065,1.46451612903226,1.46451612903226,1.46451612903226,1.45806451612903,1.44838709677419,1.44516129032258,1.43548387096774,1.43225806451613,1.41935483870968,1.41290322580645,1.39354838709677,1.39677419354839,1.39032258064516,1.39354838709677,1.38709677419355,1.38709677419355,1.38064516129032,1.38387096774194,1.38064516129032,1.38064516129032,1.37741935483871,1.38387096774194,1.38064516129032,1.38709677419355,1.39032258064516,1.38709677419355,1.38709677419355,1.39354838709677,1.38387096774194,1.38709677419355,1.38709677419355,1.39032258064516,1.39032258064516,1.39354838709677,1.39354838709677,1.39032258064516,1.38387096774194,1.38064516129032,1.38709677419355,1.38064516129032,1.38064516129032,1.37741935483871,1.38064516129032,1.37741935483871,1.3741935483871,1.38709677419355,1.39354838709677,1.4,1.40967741935484,1.41935483870968,1.42903225806452,1.41612903225806,1.43870967741935,1.43548387096774,1.43225806451613,1.41612903225806,1.39354838709677,1.3741935483871,1.3741935483871,1.3741935483871,1.3741935483871,1.36774193548387,1.37096774193548,1.36774193548387,1.37096774193548,1.37741935483871,1.40645161290323,1.43548387096774,1.46129032258065,1.57096774193548,1.60967741935484,1.55806451612903,1.4,1.31290322580645,1.30967741935484,1.36774193548387,1.38387096774194,1.36774193548387,1.37741935483871,1.36774193548387,1.37096774193548,1.37741935483871,1.37741935483871,1.37096774193548,1.37741935483871,1.37741935483871,1.38387096774194,1.38387096774194,1.38387096774194,1.38709677419355,1.39032258064516,1.39677419354839,1.39677419354839,1.39677419354839,1.40322580645161,1.40645161290323,1.41612903225806,1.42903225806452,1.43548387096774,1.43870967741935,1.44838709677419,1.44838709677419,1.45806451612903,1.45161290322581,1.45806451612903,1.45806451612903,1.44516129032258,1.44193548387097,1.43870967741935,1.42903225806452,1.41612903225806,1.40322580645161,1.39677419354839,1.39032258064516,1.38064516129032,1.38064516129032,1.37741935483871,1.3741935483871,1.3741935483871,1.3741935483871,1.37096774193548,1.37096774193548,1.36451612903226,1.3741935483871,1.36451612903226,1.36451612903226,1.37096774193548,1.3741935483871,1.3741935483871,1.3741935483871,1.3741935483871,1.37741935483871,1.38064516129032,1.38387096774194,1.38064516129032,1.38064516129032,1.38064516129032,1.38064516129032,1.38064516129032,1.3741935483871,1.38064516129032,1.38064516129032,1.37741935483871,1.37741935483871,1.38387096774194,1.38387096774194,1.3741935483871,1.37096774193548,1.37741935483871,1.38709677419355,1.4,1.4,1.40645161290323,1.41612903225806,1.41612903225806,1.42903225806452,1.44193548387097,1.44516129032258,1.4258064516129,1.4,1.39032258064516,1.38387096774194,1.37741935483871,1.37741935483871,1.38387096774194,1.37741935483871,1.38064516129032,1.38387096774194,1.38387096774194,1.39354838709677,1.42258064516129,1.45806451612903,1.51935483870968,1.62903225806452,1.60645161290323,1.48064516129032,1.39677419354839,1.30645161290323,1.35161290322581,1.4,1.39032258064516,1.38387096774194,1.39354838709677,1.38064516129032,1.39032258064516,1.38064516129032,1.39032258064516,1.38387096774194,1.39032258064516,1.39354838709677,1.38709677419355,1.39354838709677,1.39354838709677,1.39677419354839,1.40322580645161,1.40322580645161,1.41612903225806,1.41612903225806,1.42258064516129,1.43225806451613,1.43225806451613,1.44193548387097,1.44838709677419,1.45483870967742,1.45806451612903,1.45806451612903,1.46129032258065,1.46774193548387,1.46129032258065,1.45483870967742,1.45161290322581,1.45161290322581,1.43548387096774,1.42903225806452,1.40967741935484,1.4,1.40322580645161,1.4,1.39032258064516,1.38709677419355,1.37741935483871,1.37096774193548,1.38064516129032,1.3741935483871,1.3741935483871,1.3741935483871,1.3741935483871,1.3741935483871,1.37096774193548,1.3741935483871,1.3741935483871,1.37741935483871,1.3741935483871,1.3741935483871,1.37096774193548,1.3741935483871,1.38064516129032,1.37096774193548,1.37096774193548,1.3741935483871,1.37096774193548,1.3741935483871,1.3741935483871,1.37741935483871,1.37096774193548,1.3741935483871,1.37096774193548,1.37096774193548,1.3741935483871,1.3741935483871,1.3741935483871,1.39032258064516,1.39677419354839,1.39677419354839,1.40645161290323,1.4,1.40967741935484,1.43225806451613,1.4258064516129,1.41290322580645,1.38709677419355,1.38064516129032,1.36774193548387,1.36774193548387,1.36451612903226,1.36451612903226,1.37096774193548,1.37096774193548,1.36774193548387,1.36774193548387,1.37096774193548,1.40322580645161,1.43225806451613,1.45483870967742,1.58387096774194,1.59677419354839,1.51612903225806,1.38709677419355,1.29677419354839,1.31935483870968,1.38064516129032,1.39032258064516,1.38387096774194,1.38709677419355,1.38064516129032,1.38387096774194,1.38387096774194,1.38064516129032,1.38387096774194,1.38709677419355,1.38709677419355,1.38709677419355,1.38709677419355,1.39354838709677,1.40322580645161,1.39354838709677,1.39354838709677,1.40322580645161,1.40645161290323,1.40967741935484,1.43225806451613,1.43225806451613,1.43870967741935,1.44838709677419,1.45161290322581,1.45483870967742,1.45161290322581,1.45483870967742,1.45483870967742,1.45806451612903,1.45483870967742,1.46129032258065,1.44838709677419,1.44838709677419,1.43870967741935,1.4258064516129,1.41612903225806,1.40322580645161,1.39354838709677,1.39354838709677,1.39354838709677,1.38709677419355,1.38709677419355,1.38387096774194,1.38064516129032,1.3741935483871,1.37096774193548,1.38064516129032,1.38064516129032,1.38064516129032,1.37096774193548,1.38064516129032,1.38709677419355,1.38064516129032,1.38709677419355,1.38064516129032,1.38709677419355,1.39032258064516,1.38709677419355,1.38709677419355,1.39032258064516,1.38709677419355,1.38064516129032,1.39032258064516,1.38709677419355,1.38387096774194,1.38387096774194,1.38064516129032,1.38064516129032,1.38709677419355,1.4,1.40322580645161,1.40645161290323,1.41290322580645,1.40645161290323,1.40967741935484,1.43870967741935,1.4258064516129,1.42258064516129,1.40645161290323,1.38064516129032,1.37741935483871,1.36774193548387,1.36774193548387,1.37096774193548,1.36451612903226,1.37096774193548,1.36451612903226,1.36774193548387,1.36451612903226,1.39354838709677,1.42903225806452,1.46129032258065,1.57741935483871,1.60645161290323,1.53225806451613,1.39354838709677,1.31612903225806,1.3258064516129,1.38387096774194,1.39677419354839,1.38709677419355,1.38709677419355,1.37741935483871,1.39032258064516,1.37096774193548,1.3741935483871,1.37096774193548,1.3741935483871,1.3741935483871,1.37741935483871,1.3741935483871,1.38064516129032,1.38387096774194,1.38387096774194,1.39354838709677,1.4,1.40645161290323,1.41612903225806,1.41935483870968,1.42258064516129,1.43870967741935,1.43548387096774,1.44838709677419,1.45161290322581,1.45806451612903,1.45806451612903,1.45806451612903,1.45806451612903,1.45806451612903,1.45161290322581,1.45483870967742,1.43870967741935,1.43548387096774,1.42258064516129,1.41290322580645,1.4,1.39677419354839,1.39677419354839,1.38064516129032,1.38064516129032,1.38064516129032,1.3741935483871,1.38064516129032,1.37741935483871,1.37741935483871,1.38064516129032,1.37741935483871,1.37741935483871,1.38064516129032,1.38387096774194,1.38709677419355,1.38387096774194,1.38387096774194,1.39032258064516,1.38709677419355,1.37741935483871,1.39032258064516,1.38387096774194,1.38387096774194,1.37741935483871,1.37741935483871,1.38387096774194,1.38387096774194,1.38387096774194,1.38064516129032,1.38064516129032,1.38064516129032,1.38387096774194,1.39677419354839,1.4,1.4,1.42258064516129,1.40322580645161,1.41612903225806,1.43870967741935,1.43548387096774,1.4258064516129,1.40322580645161,1.38709677419355,1.38064516129032,1.3741935483871,1.36451612903226,1.37096774193548,1.36129032258065,1.36451612903226,1.37096774193548,1.36451612903226,1.37741935483871,1.4,1.43548387096774,1.46451612903226,1.58064516129032,1.59354838709677,1.5258064516129,1.39354838709677,1.29354838709677,1.3258064516129,1.37741935483871,1.38709677419355,1.37096774193548,1.37741935483871,1.3741935483871,1.3741935483871,1.38387096774194,1.36774193548387,1.3741935483871,1.36774193548387,1.36774193548387,1.3741935483871,1.37741935483871,1.38387096774194,1.38387096774194,1.38709677419355,1.39032258064516,1.4,1.4,1.40322580645161,1.40967741935484,1.41935483870968,1.41935483870968,1.42258064516129,1.43225806451613,1.43548387096774,1.44516129032258,1.45161290322581,1.44516129032258,1.45483870967742,1.45483870967742,1.45483870967742,1.43870967741935,1.43225806451613,1.4258064516129,1.41935483870968,1.40967741935484,1.39677419354839,1.39354838709677,1.39032258064516,1.38709677419355,1.38387096774194,1.38709677419355,1.38387096774194,1.38387096774194,1.38064516129032,1.37741935483871,1.38387096774194,1.38064516129032,1.38709677419355,1.38709677419355,1.39032258064516,1.39354838709677,1.39354838709677,1.4,1.39354838709677,1.40322580645161,1.40322580645161,1.40645161290323
1.55806451612903,1.46451612903226,1.39354838709677,1.35483870967742,1.4,1.39032258064516,1.39354838709677,1.38387096774194,1.38387096774194,1.38387096774194,1.39032258064516,1.39354838709677,1.39354838709677,1.40645161290323,1.38387096774194,1.39032258064516,1.39032258064516,1.38064516129032,1.39677419354839,1.38709677419355,1.38709677419355,1.40322580645161,1.4,1.41612903225806,1.4258064516129,1.41935483870968,1.43870967741935,1.4258064516129,1.43870967741935,1.44838709677419,1.44516129032258,1.46129032258065,1.45483870967742,1.45806451612903,1.45483870967742,1.44838709677419,1.44838709677419,1.41935483870968,1.43870967741935,1.41935483870968,1.40322580645161,1.39032258064516,1.40645161290323,1.40322580645161,1.40967741935484,1.39677419354839,1.4,1.38709677419355,1.39032258064516,1.4,1.39354838709677,1.40322580645161,1.39354838709677,1.37741935483871,1.39354838709677,1.38709677419355,1.39677419354839,1.40322580645161,1.40322580645161,1.39677419354839,1.40645161290323,1.37741935483871,1.40322580645161,1.42258064516129,1.39032258064516,1.4,1.39032258064516,1.4,1.39032258064516,1.39032258064516,1.39032258064516,1.39677419354839,1.40967741935484,1.39032258064516,1.41290322580645,1.4,1.40645161290323,1.41290322580645,1.4258064516129,1.42258064516129,1.41290322580645,1.39677419354839,1.38064516129032,1.39032258064516,1.39032258064516,1.36774193548387,1.39032258064516,1.39677419354839,1.39354838709677,1.39354838709677,1.3741935483871,1.39677419354839,1.41935483870968,1.46451612903226,1.54193548387097,1.51612903225806,1.45483870967742,1.38064516129032,1.35161290322581,1.37741935483871,1.37096774193548,1.38064516129032,1.38709677419355,1.3741935483871,1.38387096774194,1.38709677419355,1.38064516129032,1.38387096774194,1.39677419354839,1.38709677419355,1.37741935483871,1.38064516129032,1.38387096774194,1.38387096774194,1.38064516129032,1.39032258064516,1.38387096774194,1.40322580645161,1.39677419354839,1.40645161290323,1.40322580645161,1.41290322580645,1.43225806451613,1.41935483870968,1.43870967741935,1.43548387096774,1.44193548387097,1.43225806451613,1.45161290322581,1.44193548387097,1.43548387096774,1.4258064516129,1.40967741935484,1.39677419354839,1.4,1.38387096774194,1.38064516129032,1.38709677419355,1.36129032258065,1.38064516129032,1.37096774193548,1.38709677419355,1.37741935483871,1.38064516129032,1.39354838709677,1.37096774193548,1.39032258064516,1.37741935483871,1.39354838709677,1.38709677419355,1.38709677419355,1.39032258064516,1.39354838709677,1.39354838709677,1.38064516129032,1.40322580645161,1.40322580645161,1.38709677419355,1.4,1.39677419354839,1.39354838709677,1.39354838709677,1.39032258064516,1.39032258064516,1.39032258064516,1.38709677419355,1.39354838709677,1.38387096774194,1.39354838709677,1.41290322580645,1.38709677419355,1.40645161290323,1.42903225806452,1.41935483870968,1.40322580645161,1.38387096774194,1.37741935483871,1.37096774193548,1.37741935483871,1.37096774193548,1.38387096774194,1.38387096774194,1.37096774193548,1.38064516129032,1.37741935483871,1.39032258064516,1.41935483870968,1.48064516129032,1.54838709677419,1.52258064516129,1.46774193548387,1.37096774193548,1.36774193548387,1.3741935483871,1.39032258064516,1.38387096774194,1.38387096774194,1.38064516129032,1.38709677419355,1.37741935483871,1.35806451612903,1.38709677419355,1.39354838709677,1.38709677419355,1.3741935483871,1.38387096774194,1.38709677419355,1.39354838709677,1.39032258064516,1.38709677419355,1.39677419354839,1.40322580645161,1.39677419354839,1.41612903225806,1.41935483870968,1.39677419354839,1.42258064516129,1.42903225806452,1.43225806451613,1.43548387096774,1.44838709677419,1.45161290322581,1.45161290322581,1.44193548387097,1.43870967741935,1.42903225806452,1.42258064516129,1.41612903225806,1.4,1.38709677419355,1.40322580645161,1.40322580645161,1.38709677419355,1.39032258064516,1.38709677419355,1.39677419354839,1.38387096774194,1.39032258064516,1.39677419354839,1.40322580645161,1.39354838709677,1.38709677419355,1.38709677419355,1.39677419354839,1.40322580645161,1.39032258064516,1.38064516129032,1.38387096774194,1.39354838709677,1.39677419354839,1.39677419354839,1.39677419354839,1.39354838709677,1.38709677419355,1.38709677419355,1.40967741935484,1.38387096774194,1.39354838709677,1.39032258064516,1.39354838709677,1.4,1.38709677419355,1.40645161290323,1.41935483870968,1.41612903225806,1.41290322580645,1.42258064516129,1.41935483870968,1.41935483870968,1.45161290322581,1.43548387096774,1.42903225806452,1.39354838709677,1.39354838709677,1.38387096774194,1.39032258064516,1.39032258064516,1.39032258064516,1.39032258064516,1.38064516129032,1.38387096774194,1.4,1.41612903225806,1.43870967741935,1.53548387096774,1.55483870967742,1.48387096774194,1.43870967741935,1.36451612903226,1.37741935483871,1.38064516129032,1.3741935483871,1.38709677419355,1.38709677419355,1.39032258064516,1.39354838709677,1.38387096774194,1.38064516129032,1.38709677419355,1.38709677419355,1.38709677419355,1.37741935483871,1.39354838709677,1.38387096774194,1.38064516129032,1.38387096774194,1.39032258064516,1.4,1.39677419354839,1.41290322580645,1.4,1.39677419354839,1.41290322580645,1.41290322580645,1.41935483870968,1.43225806451613,1.43870967741935,1.42903225806452,1.44193548387097,1.43548387096774,1.43548387096774,1.42903225806452,1.41612903225806,1.40322580645161,1.39032258064516,1.35161290322581,1.39032258064516,1.37741935483871,1.37741935483871,1.37741935483871,1.37741935483871,1.36451612903226,1.37741935483871,1.37096774193548,1.37096774193548,1.3741935483871,1.35483870967742,1.37096774193548,1.36774193548387,1.37741935483871,1.38387096774194,1.37741935483871,1.3741935483871,1.38387096774194,1.38387096774194,1.39032258064516,1.38064516129032,1.39354838709677,1.39032258064516,1.4,1.39354838709677,1.39354838709677,1.4,1.39677419354839,1.39032258064516,1.39677419354839,1.39032258064516,1.37741935483871,1.39354838709677,1.39354838709677,1.40967741935484,1.39677419354839,1.40967741935484,1.41935483870968,1.41612903225806,1.42258064516129,1.43870967741935,1.43548387096774,1.41290322580645,1.4,1.37741935483871,1.38709677419355,1.39354838709677,1.38709677419355,1.3741935483871,1.36451612903226,1.38064516129032,1.38387096774194,1.39354838709677,1.40322580645161,1.41935483870968,1.50645161290323,1.56129032258065,1.49677419354839,1.44838709677419,1.36129032258065,1.3741935483871,1.38387096774194,1.38064516129032,1.38064516129032,1.38387096774194,1.38064516129032,1.4,1.38709677419355,1.37741935483871,1.38709677419355,1.38709677419355,1.39032258064516,1.38709677419355,1.38387096774194,1.4,1.4,1.38709677419355,1.39354838709677,1.39354838709677,1.40322580645161,1.4,1.41612903225806,1.40967741935484,1.43548387096774,1.45483870967742,1.43225806451613,1.43548387096774,1.42903225806452,1.44838709677419,1.45483870967742,1.44193548387097,1.44838709677419,1.43225806451613,1.44193548387097,1.40967741935484,1.40967741935484,1.38709677419355,1.40322580645161,1.40967741935484,1.38709677419355,1.38387096774194,1.38387096774194,1.38709677419355,1.38064516129032,1.38064516129032,1.37096774193548,1.38387096774194,1.3741935483871,1.38387096774194,1.39677419354839,1.3741935483871,1.39677419354839,1.39677419354839,1.38709677419355,1.38709677419355,1.38387096774194,1.4,1.4,1.39032258064516,1.39032258064516,1.39677419354839,1.39677419354839,1.39032258064516,1.38387096774194,1.4,1.39677419354839,1.39677419354839,1.41935483870968,1.40967741935484,1.40967741935484,1.40322580645161,1.41612903225806,1.41290322580645,1.41290322580645,1.4258064516129,1.4258064516129,1.40967741935484,1.38064516129032,1.39032258064516,1.37096774193548,1.38709677419355,1.3741935483871,1.37096774193548,1.38709677419355,1.3741935483871,1.39354838709677,1.39032258064516,1.39354838709677,1.42258064516129,1.48387096774194,1.55483870967742,1.5258064516129,1.45483870967742,1.36774193548387,1.36774193548387,1.38387096774194,1.39354838709677,1.38387096774194,1.38064516129032,1.38387096774194,1.38387096774194,1.39032258064516,1.38709677419355,1.38709677419355,1.39032258064516,1.39032258064516,1.37741935483871,1.37741935483871,1.38709677419355,1.38387096774194,1.39354838709677,1.39032258064516,1.39032258064516,1.4,1.4,1.41612903225806,1.41612903225806,1.41290322580645,1.42258064516129,1.44516129032258,1.44838709677419,1.44516129032258,1.45161290322581,1.44516129032258,1.44516129032258,1.43548387096774,1.44193548387097,1.41935483870968,1.41935483870968,1.38387096774194,1.4,1.38709677419355,1.38709677419355,1.4,1.39032258064516,1.36451612903226,1.38709677419355,1.39032258064516,1.38387096774194,1.38387096774194,1.36774193548387,1.38709677419355,1.36129032258065,1.37741935483871,1.39032258064516,1.38387096774194,1.38387096774194,1.36451612903226,1.39032258064516,1.39032258064516,1.39032258064516,1.38387096774194,1.38709677419355,1.40645161290323,1.39032258064516,1.38709677419355,1.39677419354839,1.39677419354839,1.38709677419355,1.39677419354839,1.38064516129032,1.39354838709677,1.40645161290323,1.38387096774194,1.40967741935484,1.40645161290323,1.40645161290323,1.41290322580645,1.43870967741935,1.43225806451613,1.40322580645161,1.39354838709677,1.37741935483871,1.36451612903226,1.38064516129032,1.37741935483871,1.39032258064516,1.3741935483871,1.38064516129032,1.38064516129032,1.38709677419355,1.4,1.43225806451613,1.49677419354839,1.55483870967742,1.49354838709677,1.44516129032258,1.36129032258065,1.36451612903226,1.38387096774194,1.38064516129032,1.38709677419355,1.38387096774194,1.36451612903226,1.39354838709677,1.38064516129032,1.36774193548387,1.37741935483871,1.38709677419355,1.38709677419355,1.39032258064516,1.37741935483871,1.37741935483871,1.39354838709677,1.4,1.39354838709677,1.40322580645161,1.4,1.41612903225806,1.40645161290323,1.41935483870968,1.42258064516129,1.42903225806452,1.43548387096774,1.44516129032258,1.44193548387097,1.44193548387097,1.44193548387097,1.44193548387097,1.43548387096774,1.4258064516129,1.42258064516129,1.40967741935484,1.41290322580645,1.38064516129032,1.39354838709677,1.38064516129032,1.38064516129032,1.39354838709677,1.36774193548387,1.39032258064516,1.38709677419355,1.39032258064516,1.38064516129032,1.38709677419355,1.38709677419355,1.39354838709677,1.38387096774194,1.37096774193548,1.39677419354839,1.39032258064516,1.38709677419355,1.39032258064516,1.39032258064516,1.39354838709677,1.38709677419355,1.4,1.4,1.40322580645161,1.39032258064516,1.41290322580645,1.40645161290323,1.4,1.39677419354839,1.40645161290323,1.40967741935484,1.39032258064516,1.39032258064516,1.39677419354839,1.40322580645161,1.41935483870968,1.41935483870968,1.41935483870968,1.42258064516129,1.43548387096774,1.41935483870968,1.40322580645161,1.38709677419355,1.38709677419355,1.37741935483871,1.38064516129032,1.38064516129032,1.37741935483871,1.38709677419355,1.38064516129032,1.38709677419355,1.40645161290323,1.41935483870968,1.4741935483871,1.54193548387097,1.53548387096774,1.45483870967742,1.38387096774194,1.34838709677419,1.37096774193548,1.3741935483871,1.34838709677419,1.39032258064516,1.38064516129032,1.3741935483871,1.37741935483871,1.38387096774194,1.37741935483871,1.37096774193548,1.37741935483871,1.38709677419355,1.38387096774194,1.39677419354839,1.40322580645161,1.39032258064516,1.4,1.39677419354839,1.4,1.39032258064516,1.39354838709677,1.41290322580645,1.40967741935484,1.42258064516129,1.4258064516129,1.42903225806452,1.43870967741935,1.44516129032258,1.43548387096774,1.45483870967742,1.43548387096774,1.42258064516129,1.40967741935484,1.41290322580645,1.39677419354839,1.37096774193548,1.36774193548387,1.39032258064516,1.3741935483871,1.3741935483871,1.37096774193548,1.37096774193548,1.37096774193548,1.3741935483871,1.36451612903226,1.38387096774194,1.39032258064516,1.36774193548387,1.38387096774194,1.4,1.4,1.40322580645161,1.40322580645161,1.4,1.39354838709677,1.41290322580645,1.40967741935484,1.40645161290323,1.40645161290323,1.40322580645161,1.41290322580645,1.41290322580645,1.40645161290323,1.40967741935484,1.40645161290323,1.38387096774194,1.4,1.40645161290323,1.40645161290323,1.40645161290323,1.41612903225806,1.41290322580645,1.42258064516129,1.43870967741935,1.42903225806452,1.42903225806452,1.41612903225806,1.37741935483871,1.38709677419355,1.38709677419355,1.38064516129032,1.39032258064516,1.4,1.38709677419355,1.39032258064516,1.38387096774194,1.40322580645161,1.40967741935484,1.43225806451613,1.52903225806452,1.55806451612903,1.5,1.4258064516129,1.36451612903226,1.36129032258065,1.38064516129032,1.3741935483871,1.38387096774194,1.38387096774194,1.3741935483871,1.38709677419355,1.37741935483871,1.39032258064516,1.38064516129032,1.37741935483871,1.37741935483871,1.38709677419355,1.39032258064516,1.39032258064516,1.39032258064516,1.39032258064516,1.39032258064516,1.39354838709677,1.39677419354839,1.40645161290323,1.40322580645161,1.4258064516129,1.41290322580645,1.42903225806452,1.42903225806452,1.44838709677419,1.46774193548387,1.45806451612903,1.45806451612903,1.43225806451613,1.45161290322581,1.43225806451613,1.42903225806452,1.42258064516129,1.40645161290323,1.4,1.36774193548387,1.39354838709677,1.39032258064516,1.4,1.39354838709677,1.37741935483871,1.3741935483871,1.37741935483871,1.37741935483871,1.39032258064516,1.38709677419355,1.35483870967742,1.37741935483871,1.39354838709677,1.39354838709677,1.38387096774194,1.38709677419355,1.39032258064516,1.38387096774194,1.39354838709677,1.38709677419355,1.37741935483871,1.38064516129032,1.39032258064516,1.39354838709677,1.39354838709677,1.38064516129032,1.39677419354839,1.4,1.39677419354839,1.39677419354839,1.39677419354839,1.40322580645161,1.39677419354839,1.40967741935484,1.4258064516129,1.40967741935484,1.42258064516129,1.42258064516129,1.41935483870968,1.40322580645161,1.38709677419355,1.38064516129032,1.38387096774194,1.37741935483871,1.3741935483871,1.38387096774194,1.38064516129032,1.38064516129032,1.3741935483871,1.38064516129032,1.40322580645161,1.43225806451613,1.51612903225806,1.54516129032258,1.46451612903226,1.42903225806452,1.32903225806452,1.37096774193548,1.3741935483871,1.3741935483871,1.37096774193548,1.38387096774194,1.36451612903226,1.38064516129032,1.38064516129032,1.37741935483871,1.3741935483871,1.35806451612903,1.38387096774194,1.3741935483871,1.38387096774194,1.37741935483871,1.36451612903226,1.38709677419355,1.38387096774194,1.37741935483871,1.39677419354839,1.39032258064516,1.39032258064516,1.40967741935484,1.40967741935484,1.4258064516129,1.43225806451613,1.41290322580645,1.43870967741935,1.43225806451613,1.43870967741935,1.43870967741935,1.44193548387097,1.43225806451613,1.41935483870968,1.40322580645161,1.39032258064516,1.39677419354839,1.40322580645161,1.39032258064516,1.37741935483871,1.38709677419355,1.39354838709677,1.3741935483871,1.38709677419355,1.38387096774194,1.37741935483871,1.39677419354839,1.39354838709677,1.37741935483871,1.39032258064516,1.40967741935484,1.4,1.39354838709677,1.39354838709677,1.4,1.39354838709677,1.39677419354839,1.39354838709677,1.4,1.39354838709677,1.4,1.39354838709677,1.40645161290323,1.38387096774194,1.40645161290323,1.39354838709677,1.4,1.39032258064516,1.4,1.4,1.40322580645161,1.40967741935484,1.4,1.41612903225806,1.43870967741935,1.42903225806452,1.40967741935484,1.4,1.37741935483871,1.39354838709677,1.39354838709677,1.38709677419355,1.39354838709677,1.38387096774194,1.39354838709677,1.38709677419355,1.38709677419355,1.41612903225806,1.42258064516129,1.48709677419355,1.54193548387097,1.53548387096774,1.44838709677419,1.37096774193548,1.35806451612903,1.38387096774194,1.38709677419355,1.39032258064516,1.39354838709677,1.38387096774194,1.38387096774194,1.39677419354839,1.4,1.39032258064516,1.4,1.4,1.40967741935484,1.40322580645161,1.4,1.4,1.39677419354839,1.40967741935484,1.40322580645161,1.4,1.41290322580645,1.41935483870968,1.43548387096774,1.42903225806452,1.43225806451613,1.43225806451613,1.43870967741935,1.44193548387097,1.45483870967742,1.44838709677419,1.43225806451613,1.45161290322581,1.4258064516129,1.4258064516129,1.42258064516129,1.40967741935484,1.40322580645161,1.39677419354839,1.38709677419355,1.38709677419355,1.38064516129032,1.37741935483871,1.39354838709677,1.38064516129032,1.39032258064516,1.39677419354839,1.39032258064516,1.40645161290323,1.39677419354839,1.39677419354839,1.39354838709677,1.39354838709677,1.4,1.39354838709677,1.38387096774194,1.39677419354839,1.39677419354839,1.38709677419355,1.39354838709677,1.39677419354839,1.4,1.39354838709677,1.38387096774194,1.39354838709677,1.39354838709677,1.37741935483871,1.38709677419355,1.39354838709677,1.3741935483871,1.38064516129032,1.4,1.38709677419355,1.39032258064516,1.40967741935484,1.38064516129032,1.41612903225806,1.40967741935484,1.41935483870968,1.39677419354839,1.38064516129032,1.37741935483871,1.37741935483871,1.37096774193548,1.37096774193548,1.36774193548387,1.38064516129032,1.3741935483871,1.39032258064516,1.38064516129032,1.40645161290323,1.43225806451613,1.5258064516129,1.54193548387097,1.46129032258065,1.41612903225806,1.34838709677419,1.37096774193548,1.3741935483871,1.37096774193548,1.37741935483871,1.37096774193548,1.37741935483871,1.38064516129032,1.38387096774194,1.3741935483871,1.36774193548387,1.38709677419355,1.38064516129032,1.38709677419355,1.38709677419355,1.38709677419355,1.38709677419355,1.39677419354839,1.39677419354839,1.39677419354839,1.4,1.4,1.40967741935484,1.41290322580645,1.41290322580645,1.42903225806452,1.43548387096774,1.42903225806452,1.44193548387097,1.44193548387097,1.45161290322581,1.44838709677419,1.43548387096774,1.42258064516129,1.41290322580645,1.41290322580645,1.38387096774194,1.38387096774194,1.37741935483871,1.37741935483871,1.37741935483871,1.37741935483871,1.38387096774194,1.37741935483871,1.3741935483871,1.37741935483871,1.38387096774194,1.37741935483871,1.39354838709677,1.38709677419355,1.38064516129032,1.4,1.3741935483871,1.38709677419355,1.39354838709677,1.37741935483871,1.39354838709677,1.39032258064516,1.38709677419355,1.39032258064516,1.37096774193548,1.39354838709677,1.4,1.39354838709677,1.39354838709677,1.39677419354839,1.39032258064516,1.4,1.38387096774194,1.40322580645161,1.39032258064516,1.39354838709677,1.40322580645161,1.40322580645161,1.40322580645161,1.41612903225806,1.41612903225806,1.4,1.43225806451613,1.43548387096774,1.43225806451613,1.40645161290323,1.37741935483871,1.40645161290323,1.39032258064516,1.38709677419355,1.37741935483871,1.39354838709677,1.39354838709677,1.39354838709677,1.39354838709677,1.41612903225806,1.41290322580645,1.47096774193548,1.57096774193548,1.56129032258065,1.46451612903226,1.39032258064516,1.35806451612903,1.38387096774194,1.38387096774194,1.37741935483871,1.39354838709677,1.39354838709677,1.39032258064516,1.38387096774194,1.38387096774194,1.4,1.40645161290323,1.38709677419355,1.4,1.39677419354839,1.40645161290323,1.39032258064516,1.39677419354839,1.39354838709677,1.38387096774194,1.4,1.4,1.41935483870968,1.41290322580645,1.41935483870968,1.42903225806452,1.44193548387097,1.44838709677419,1.43870967741935,1.44838709677419,1.45806451612903,1.45483870967742,1.45483870967742,1.43870967741935,1.43225806451613,1.41612903225806,1.4,1.4,1.39354838709677,1.39032258064516,1.39032258064516,1.37741935483871,1.35161290322581,1.38709677419355,1.37741935483871,1.36774193548387,1.37741935483871,1.38709677419355,1.38064516129032,1.37741935483871,1.38387096774194,1.3741935483871,1.38387096774194,1.38387096774194,1.38064516129032,1.39032258064516,1.38387096774194,1.38387096774194,1.38064516129032,1.38709677419355,1.39677419354839,1.38709677419355,1.40322580645161,1.39354838709677,1.38064516129032,1.38709677419355,1.38709677419355,1.38709677419355,1.38387096774194,1.4,1.4,1.38709677419355,1.40645161290323,1.38387096774194,1.39354838709677,1.40645161290323,1.40645161290323,1.40967741935484,1.41290322580645,1.42258064516129,1.41612903225806,1.39354838709677,1.3741935483871,1.39677419354839,1.38387096774194,1.38709677419355,1.37096774193548,1.39354838709677,1.38387096774194,1.37096774193548,1.3741935483871,1.4,1.42258064516129,1.45161290322581,1.55806451612903,1.54193548387097,1.45483870967742,1.4,1.34516129032258,1.38387096774194,1.38064516129032,1.3741935483871,1.39032258064516,1.38709677419355,1.38064516129032
1.33870967741935,1.35483870967742,1.34516129032258,1.35161290322581,1.35483870967742,1.35806451612903,1.36451612903226,1.36129032258065,1.37096774193548,1.36129032258065,1.36129032258065,1.37096774193548,1.36129032258065,1.37096774193548,1.37741935483871,1.38387096774194,1.38709677419355,1.38064516129032,1.39354838709677,1.39354838709677,1.39677419354839,1.4,1.41290322580645,1.42258064516129,1.42903225806452,1.43225806451613,1.43225806451613,1.43870967741935,1.44193548387097,1.44838709677419,1.44193548387097,1.45483870967742,1.45161290322581,1.45483870967742,1.44838709677419,1.43870967741935,1.4258064516129,1.41612903225806,1.40967741935484,1.40967741935484,1.40645161290323,1.40322580645161,1.40322580645161,1.39677419354839,1.38709677419355,1.4,1.40645161290323,1.39677419354839,1.4,1.40645161290323,1.40322580645161,1.40967741935484,1.40645161290323,1.39677419354839,1.40322580645161,1.4,1.40967741935484,1.40322580645161,1.41290322580645,1.40322580645161,1.39354838709677,1.39677419354839,1.4,1.38064516129032,1.40322580645161,1.39032258064516,1.4,1.39032258064516,1.39677419354839,1.38387096774194,1.39032258064516,1.4,1.39354838709677,1.39354838709677,1.38387096774194,1.40322580645161,1.4,1.39677419354839,1.41290322580645,1.40967741935484,1.40322580645161,1.41935483870968,1.4258064516129,1.40967741935484,1.38387096774194,1.38064516129032,1.3741935483871,1.38387096774194,1.38064516129032,1.37741935483871,1.36774193548387,1.3741935483871,1.36451612903226,1.37741935483871,1.38064516129032,1.40967741935484,1.46451612903226,1.54193548387097,1.54516129032258,1.45806451612903,1.38709677419355,1.34193548387097,1.36774193548387,1.37096774193548,1.36774193548387,1.37096774193548,1.38064516129032,1.3741935483871,1.36774193548387,1.38387096774194,1.3741935483871,1.3741935483871,1.37096774193548,1.38709677419355,1.3741935483871,1.37096774193548,1.38387096774194,1.37741935483871,1.38064516129032,1.39354838709677,1.38709677419355,1.39354838709677,1.40322580645161,1.39032258064516,1.41935483870968,1.41935483870968,1.42903225806452,1.42258064516129,1.43870967741935,1.43548387096774,1.43548387096774,1.44193548387097,1.43870967741935,1.45161290322581,1.45161290322581,1.44838709677419,1.43548387096774,1.41935483870968,1.41935483870968,1.41290322580645,1.39677419354839,1.40645161290323,1.4,1.40322580645161,1.39677419354839,1.39677419354839,1.4,1.39354838709677,1.40322580645161,1.40645161290323,1.39032258064516,1.4,1.40645161290323,1.40645161290323,1.39354838709677,1.39677419354839,1.39354838709677,1.39354838709677,1.4,1.39677419354839,1.39354838709677,1.39032258064516,1.39677419354839,1.39032258064516,1.39032258064516,1.39032258064516,1.38709677419355,1.38387096774194,1.39032258064516,1.38709677419355,1.38709677419355,1.39354838709677,1.39032258064516,1.38709677419355,1.38064516129032,1.39032258064516,1.39354838709677,1.3741935483871,1.38709677419355,1.39677419354839,1.40322580645161,1.40967741935484,1.40967741935484,1.40645161290323,1.40967741935484,1.4258064516129,1.43225806451613,1.40645161290323,1.37096774193548,1.37096774193548,1.37741935483871,1.3741935483871,1.3741935483871,1.3741935483871,1.3741935483871,1.3741935483871,1.37096774193548,1.37741935483871,1.39354838709677,1.40645161290323,1.49677419354839,1.56451612903226,1.54193548387097,1.46451612903226,1.36774193548387,1.35483870967742,1.36129032258065,1.37096774193548,1.37096774193548,1.37096774193548,1.3741935483871,1.38064516129032,1.3741935483871,1.37741935483871,1.3741935483871,1.37741935483871,1.37096774193548,1.36774193548387,1.39032258064516,1.38064516129032,1.3741935483871,1.38064516129032,1.37741935483871,1.39354838709677,1.40322580645161,1.39032258064516,1.39677419354839,1.39677419354839,1.39677419354839,1.41290322580645,1.41612903225806,1.43548387096774,1.4258064516129,1.44838709677419,1.44193548387097,1.43548387096774,1.46451612903226,1.44838709677419,1.45806451612903,1.44193548387097,1.43870967741935,1.43548387096774,1.41290322580645,1.41612903225806,1.40322580645161,1.40322580645161,1.39677419354839,1.39677419354839,1.40322580645161,1.39677419354839,1.40322580645161,1.39677419354839,1.39677419354839,1.40967741935484,1.40322580645161,1.40322580645161,1.39677419354839,1.39677419354839,1.40322580645161,1.39677419354839,1.40645161290323,1.39677419354839,1.39677419354839,1.40967741935484,1.40322580645161,1.40322580645161,1.39677419354839,1.39354838709677,1.4,1.4,1.39354838709677,1.4,1.39032258064516,1.38709677419355,1.39677419354839,1.37741935483871,1.38387096774194,1.38709677419355,1.39032258064516,1.39032258064516,1.39354838709677,1.39032258064516,1.38709677419355,1.39677419354839,1.39677419354839,1.39354838709677,1.39354838709677,1.41290322580645,1.40322580645161,1.40322580645161,1.4258064516129,1.42258064516129,1.40967741935484,1.39677419354839,1.36451612903226,1.38064516129032,1.3741935483871,1.3741935483871,1.38064516129032,1.36774193548387,1.3741935483871,1.37741935483871,1.36774193548387,1.39677419354839,1.40645161290323,1.44838709677419,1.56129032258065,1.55806451612903,1.47741935483871,1.42903225806452,1.3741935483871,1.36774193548387,1.38709677419355,1.37741935483871,1.38387096774194,1.37096774193548,1.38387096774194,1.38387096774194,1.38709677419355,1.38387096774194,1.38709677419355,1.38709677419355,1.38709677419355,1.39354838709677,1.39677419354839,1.39354838709677,1.39677419354839,1.39032258064516,1.39032258064516,1.39032258064516,1.4,1.4,1.40645161290323,1.40645161290323,1.41935483870968,1.4258064516129,1.43548387096774,1.43870967741935,1.44193548387097,1.44516129032258,1.45483870967742,1.44838709677419,1.45161290322581,1.45483870967742,1.45483870967742,1.44193548387097,1.43870967741935,1.4258064516129,1.41935483870968,1.41935483870968,1.40967741935484,1.40645161290323,1.4,1.39677419354839,1.40645161290323,1.4,1.39032258064516,1.4,1.40322580645161,1.39354838709677,1.4,1.4,1.39677419354839,1.4,1.39354838709677,1.38387096774194,1.39677419354839,1.40322580645161,1.38709677419355,1.4,1.38064516129032,1.39354838709677,1.38387096774194,1.38709677419355,1.3741935483871,1.37741935483871,1.38064516129032,1.3741935483871,1.36129032258065,1.38064516129032,1.37741935483871,1.36774193548387,1.37096774193548,1.3741935483871,1.38064516129032,1.38064516129032,1.3741935483871,1.38387096774194,1.37741935483871,1.37741935483871,1.37741935483871,1.38709677419355,1.39032258064516,1.39354838709677,1.39677419354839,1.40967741935484,1.41290322580645,1.38064516129032,1.36129032258065,1.35806451612903,1.34838709677419,1.37741935483871,1.35483870967742,1.36451612903226,1.35806451612903,1.36451612903226,1.36451612903226,1.36451612903226,1.39354838709677,1.40645161290323,1.49354838709677,1.54516129032258,1.50645161290323,1.43870967741935,1.35161290322581,1.34193548387097,1.34838709677419,1.35806451612903,1.37096774193548,1.37741935483871,1.36774193548387,1.37096774193548,1.37096774193548,1.37096774193548,1.36774193548387,1.37096774193548,1.37096774193548,1.37741935483871,1.38064516129032,1.38064516129032,1.38064516129032,1.38387096774194,1.38709677419355,1.38709677419355,1.39354838709677,1.40645161290323,1.40322580645161,1.41290322580645,1.42258064516129,1.42903225806452,1.42903225806452,1.44838709677419,1.43870967741935,1.45161290322581,1.46129032258065,1.46129032258065,1.45806451612903,1.46451612903226,1.46129032258065,1.45161290322581,1.43870967741935,1.43870967741935,1.41612903225806,1.43548387096774,1.41612903225806,1.41612903225806,1.41290322580645,1.41612903225806,1.4,1.41290322580645,1.42258064516129,1.40967741935484,1.40967741935484,1.41290322580645,1.41290322580645,1.40645161290323,1.41290322580645,1.40322580645161,1.41612903225806,1.41935483870968,1.41612903225806,1.42258064516129,1.41935483870968,1.41290322580645,1.41290322580645,1.40645161290323,1.42258064516129,1.40967741935484,1.41290322580645,1.39354838709677,1.40645161290323,1.39677419354839,1.39677419354839,1.39677419354839,1.39677419354839,1.39032258064516,1.39677419354839,1.4,1.39677419354839,1.39677419354839,1.38709677419355,1.40322580645161,1.40322580645161,1.40645161290323,1.41935483870968,1.40967741935484,1.39354838709677,1.42258064516129,1.4258064516129,1.40645161290323,1.39354838709677,1.37741935483871,1.36774193548387,1.37741935483871,1.3741935483871,1.37096774193548,1.37096774193548,1.37096774193548,1.36451612903226,1.37096774193548,1.39032258064516,1.40322580645161,1.47741935483871,1.54838709677419,1.53225806451613,1.45806451612903,1.38387096774194,1.35161290322581,1.3741935483871,1.3741935483871,1.35806451612903,1.37096774193548,1.36774193548387,1.37096774193548,1.36129032258065,1.3741935483871,1.36129032258065,1.37096774193548,1.36451612903226,1.36774193548387,1.38064516129032,1.37741935483871,1.37741935483871,1.37741935483871,1.38709677419355,1.38387096774194,1.39677419354839,1.4,1.4,1.40967741935484,1.40967741935484,1.42258064516129,1.42903225806452,1.42903225806452,1.43225806451613,1.42903225806452,1.43548387096774,1.44193548387097,1.44516129032258,1.44838709677419,1.43870967741935,1.43870967741935,1.43225806451613,1.42903225806452,1.41290322580645,1.40967741935484,1.40322580645161,1.39354838709677,1.4,1.39032258064516,1.38387096774194,1.39354838709677,1.39354838709677,1.39354838709677,1.38709677419355,1.39677419354839,1.4,1.39677419354839,1.40322580645161,1.39677419354839,1.4,1.39032258064516,1.39354838709677,1.40645161290323,1.39677419354839,1.39354838709677,1.38709677419355,1.39677419354839,1.38709677419355,1.38709677419355,1.38709677419355,1.39354838709677,1.39032258064516,1.38709677419355,1.38709677419355,1.38064516129032,1.37741935483871,1.37741935483871,1.38387096774194,1.38709677419355,1.38387096774194,1.3741935483871,1.3741935483871,1.38709677419355,1.39032258064516,1.4,1.39032258064516,1.41290322580645,1.40322580645161,1.40967741935484,1.4258064516129,1.41935483870968,1.39354838709677,1.3741935483871,1.3741935483871,1.37096774193548,1.37741935483871,1.3741935483871,1.36129032258065,1.37741935483871,1.37096774193548,1.3741935483871,1.37741935483871,1.39032258064516,1.42258064516129,1.49677419354839,1.55161290322581,1.53225806451613,1.46451612903226,1.3741935483871,1.35483870967742,1.36774193548387,1.38064516129032,1.38064516129032,1.3741935483871,1.3741935483871,1.37096774193548,1.38064516129032,1.38709677419355,1.38387096774194,1.38709677419355,1.37096774193548,1.37741935483871,1.38064516129032,1.38064516129032,1.37741935483871,1.38387096774194,1.38387096774194,1.38387096774194,1.4,1.39032258064516,1.4,1.39677419354839,1.41290322580645,1.42258064516129,1.43225806451613,1.43548387096774,1.43225806451613,1.44838709677419,1.44516129032258,1.45161290322581,1.45483870967742,1.45161290322581,1.44193548387097,1.44838709677419,1.43548387096774,1.43225806451613,1.4258064516129,1.41612903225806,1.41290322580645,1.40645161290323,1.4,1.4,1.40322580645161,1.39677419354839,1.39354838709677,1.40322580645161,1.4,1.4,1.39032258064516,1.39677419354839,1.4,1.40645161290323,1.40322580645161,1.41290322580645,1.40645161290323,1.41290322580645,1.40645161290323,1.39677419354839,1.40645161290323,1.39677419354839,1.40322580645161,1.39677419354839,1.39677419354839,1.39677419354839,1.39354838709677,1.40322580645161,1.39032258064516,1.39677419354839,1.39354838709677,1.38709677419355,1.38709677419355,1.38709677419355,1.38064516129032,1.38387096774194,1.38387096774194,1.39032258064516,1.37096774193548,1.39032258064516,1.40322580645161,1.38709677419355,1.40967741935484,1.40967741935484,1.40645161290323,1.40967741935484,1.41935483870968,1.41290322580645,1.39677419354839,1.3741935483871,1.37096774193548,1.36451612903226,1.37741935483871,1.37741935483871,1.37741935483871,1.37096774193548,1.37096774193548,1.3741935483871,1.38387096774194,1.40645161290323,1.42258064516129,1.52903225806452,1.54516129032258,1.5,1.44516129032258,1.36451612903226,1.37096774193548,1.37096774193548,1.3741935483871,1.37741935483871,1.36451612903226,1.37096774193548,1.37741935483871,1.37741935483871,1.3741935483871,1.38387096774194,1.38709677419355,1.37741935483871,1.38387096774194,1.38387096774194,1.38709677419355,1.38387096774194,1.38387096774194,1.39032258064516,1.38709677419355,1.39032258064516,1.4,1.41612903225806,1.4258064516129,1.41612903225806,1.43225806451613,1.43225806451613,1.43870967741935,1.44838709677419,1.45483870967742,1.45161290322581,1.45806451612903,1.46774193548387,1.45161290322581,1.45483870967742,1.44838709677419,1.44516129032258,1.42258064516129,1.41935483870968,1.40967741935484,1.41935483870968,1.39677419354839,1.39677419354839,1.39677419354839,1.39677419354839,1.39354838709677,1.39354838709677,1.38064516129032,1.40322580645161,1.39677419354839,1.39354838709677,1.38709677419355,1.39354838709677,1.39677419354839,1.39032258064516,1.39354838709677,1.39677419354839,1.39677419354839,1.40322580645161,1.39677419354839,1.39677419354839,1.39032258064516,1.39032258064516,1.39032258064516,1.39354838709677,1.38387096774194,1.38709677419355,1.37741935483871,1.37741935483871,1.38387096774194,1.37741935483871,1.38064516129032,1.38387096774194,1.37096774193548,1.37096774193548,1.38709677419355,1.37741935483871,1.38064516129032,1.3741935483871,1.37741935483871,1.38709677419355,1.39354838709677,1.39354838709677,1.39354838709677,1.40322580645161,1.40322580645161,1.40645161290323,1.4258064516129,1.40967741935484,1.39032258064516,1.3741935483871,1.36129032258065,1.36129032258065,1.3741935483871,1.37741935483871,1.37096774193548,1.37096774193548,1.3741935483871,1.36774193548387,1.38387096774194,1.39677419354839,1.42258064516129,1.51935483870968,1.55161290322581,1.5,1.45161290322581,1.34516129032258,1.35483870967742,1.36774193548387,1.36774193548387,1.37096774193548,1.37741935483871,1.37096774193548,1.37741935483871,1.3741935483871,1.37741935483871,1.37741935483871,1.3741935483871,1.37096774193548,1.38709677419355,1.38387096774194,1.38064516129032,1.38709677419355,1.39354838709677,1.38387096774194,1.39032258064516,1.39354838709677,1.4,1.4,1.40645161290323,1.41612903225806,1.43870967741935,1.42903225806452,1.44193548387097,1.45161290322581,1.44838709677419,1.45483870967742,1.46451612903226,1.46774193548387,1.46451612903226,1.45806451612903,1.44838709677419,1.44193548387097,1.43870967741935,1.42258064516129,1.42258064516129,1.41290322580645,1.41290322580645,1.40645161290323,1.40645161290323,1.40645161290323,1.4,1.39677419354839,1.40645161290323,1.40645161290323,1.40322580645161,1.41612903225806,1.40322580645161,1.41612903225806,1.40967741935484,1.40967741935484,1.4,1.40967741935484,1.40967741935484,1.41290322580645,1.40645161290323,1.39354838709677,1.40322580645161,1.4,1.40645161290323,1.40322580645161,1.4,1.38709677419355,1.38064516129032,1.38709677419355,1.38387096774194,1.38387096774194,1.39032258064516,1.39032258064516,1.38064516129032,1.39032258064516,1.38064516129032,1.3741935483871,1.39032258064516,1.38709677419355,1.40645161290323,1.39677419354839,1.39354838709677,1.40645161290323,1.4,1.4,1.41612903225806,1.4258064516129,1.40967741935484,1.38709677419355,1.37741935483871,1.37096774193548,1.3741935483871,1.37096774193548,1.37741935483871,1.3741935483871,1.35806451612903,1.37741935483871,1.36451612903226,1.37741935483871,1.38709677419355,1.43548387096774,1.5258064516129,1.54838709677419,1.46129032258065,1.40967741935484,1.3258064516129,1.34516129032258,1.34838709677419,1.36451612903226,1.35806451612903,1.36129032258065,1.36451612903226,1.36129032258065,1.37741935483871,1.37741935483871,1.36774193548387,1.3741935483871,1.3741935483871,1.37096774193548,1.38064516129032,1.37741935483871,1.36774193548387,1.38387096774194,1.38064516129032,1.39032258064516,1.40967741935484,1.39032258064516,1.39354838709677,1.41290322580645,1.41612903225806,1.41935483870968,1.43548387096774,1.43548387096774,1.44193548387097,1.44838709677419,1.45806451612903,1.45161290322581,1.45806451612903,1.45483870967742,1.45161290322581,1.45161290322581,1.42903225806452,1.42903225806452,1.4258064516129,1.42258064516129,1.41290322580645,1.41290322580645,1.40322580645161,1.40645161290323,1.4,1.40645161290323,1.40322580645161,1.4,1.39032258064516,1.40322580645161,1.39677419354839,1.40645161290323,1.41612903225806,1.4,1.40967741935484,1.40967741935484,1.40967741935484,1.40967741935484,1.40967741935484,1.40967741935484,1.40645161290323,1.4,1.4,1.39677419354839,1.39354838709677,1.39032258064516,1.40322580645161,1.39677419354839,1.38709677419355,1.38709677419355,1.39354838709677,1.39032258064516,1.38709677419355,1.38709677419355,1.38709677419355,1.39677419354839,1.39032258064516,1.38064516129032,1.38064516129032,1.38064516129032,1.38387096774194,1.38064516129032,1.40322580645161,1.40322580645161,1.38064516129032,1.40322580645161,1.41612903225806,1.41290322580645,1.39677419354839,1.36774193548387,1.36774193548387,1.3741935483871,1.36774193548387,1.36774193548387,1.36774193548387,1.36774193548387,1.36774193548387,1.36451612903226,1.37096774193548,1.39032258064516,1.40322580645161,1.5,1.54838709677419,1.52258064516129,1.45806451612903,1.35161290322581,1.36129032258065,1.36774193548387,1.37096774193548,1.36774193548387,1.37096774193548,1.36774193548387,1.3741935483871,1.3741935483871,1.3741935483871,1.38387096774194,1.3741935483871,1.3741935483871,1.38387096774194,1.39032258064516,1.39032258064516,1.38387096774194,1.39032258064516,1.39032258064516,1.4,1.40322580645161,1.40645161290323,1.40645161290323,1.41290322580645,1.41290322580645,1.42258064516129,1.43548387096774,1.43548387096774,1.44838709677419,1.43548387096774,1.45161290322581,1.45483870967742,1.46129032258065,1.45161290322581,1.45483870967742,1.45161290322581,1.43548387096774,1.44193548387097,1.42258064516129,1.40645161290323,1.42258064516129,1.42258064516129,1.41290322580645,1.39354838709677,1.40645161290323,1.4,1.39354838709677,1.40967741935484,1.4,1.39354838709677,1.40322580645161,1.40967741935484,1.4,1.41290322580645,1.40645161290323,1.40322580645161,1.41290322580645,1.41290322580645,1.40645161290323,1.40322580645161,1.40645161290323,1.40322580645161,1.4,1.40322580645161,1.39677419354839,1.39354838709677,1.39354838709677,1.39677419354839,1.39032258064516,1.39354838709677,1.39032258064516,1.38709677419355,1.39032258064516,1.38387096774194,1.38387096774194,1.38387096774194,1.38387096774194,1.37741935483871,1.37741935483871,1.3741935483871,1.36774193548387,1.38709677419355,1.38709677419355,1.38064516129032,1.39354838709677,1.40967741935484,1.39677419354839,1.40322580645161,1.4258064516129,1.41935483870968,1.42258064516129,1.38387096774194,1.38064516129032,1.3741935483871,1.37096774193548,1.38064516129032,1.37096774193548,1.36451612903226,1.36774193548387,1.36129032258065,1.36451612903226,1.38064516129032,1.38387096774194,1.43548387096774,1.53548387096774,1.55806451612903,1.45483870967742,1.41612903225806,1.34193548387097,1.35806451612903,1.36774193548387,1.37096774193548,1.37096774193548,1.37096774193548,1.36774193548387,1.38387096774194,1.3741935483871,1.38387096774194,1.37741935483871,1.37741935483871,1.38709677419355,1.37741935483871,1.3741935483871,1.38709677419355,1.38709677419355,1.38709677419355,1.39354838709677,1.38709677419355,1.39032258064516,1.4,1.39677419354839,1.40967741935484,1.41935483870968,1.40645161290323,1.41935483870968,1.44516129032258,1.42903225806452,1.43548387096774,1.44838709677419,1.44516129032258,1.44838709677419,1.44516129032258,1.44838709677419,1.43225806451613,1.44193548387097,1.4258064516129,1.41290322580645,1.40322580645161,1.39677419354839,1.40322580645161,1.40967741935484,1.40645161290323,1.4,1.39354838709677,1.39677419354839,1.40645161290323,1.39354838709677,1.40322580645161,1.40322580645161,1.40645161290323,1.39677419354839,1.40322580645161,1.40322580645161,1.40322580645161,1.40322580645161,1.40322580645161,1.40322580645161,1.39677419354839,1.39354838709677,1.39677419354839,1.39032258064516,1.39032258064516,1.4,1.38387096774194,1.38387096774194,1.39677419354839,1.37741935483871,1.39677419354839,1.39354838709677,1.39354838709677,1.40322580645161,1.39354838709677,1.38709677419355,1.38709677419355,1.39677419354839,1.38709677419355,1.4,1.39354838709677,1.39354838709677,1.38709677419355,1.38064516129032,1.40322580645161,1.4,1.40645161290323,1.4258064516129,1.42258064516129,1.42258064516129,1.43225806451613,1.43548387096774,1.41935483870968,1.39677419354839,1.39032258064516,1.39354838709677,1.39354838709677,1.38709677419355,1.39032258064516,1.4,1.39032258064516,1.39354838709677,1.41290322580645
