1.55161290322581,1.5,1.44838709677419,1.40322580645161,1.36774193548387,1.34516129032258,1.33548387096774,1.32258064516129,1.3258064516129,1.32258064516129,1.32258064516129,1.31935483870968,1.3258064516129,1.31290322580645,1.32258064516129,1.33548387096774,1.31935483870968,1.33548387096774,1.31290322580645,1.3,1.3,1.30645161290323,1.30645161290323,1.31612903225806,1.30967741935484,1.3,1.3,1.30322580645161,1.29677419354839,1.30322580645161,1.3,1.30322580645161,1.30645161290323,1.3,1.30322580645161,1.30322580645161,1.3,1.3,1.31290322580645,1.32258064516129,1.32258064516129,1.31935483870968,1.30967741935484,1.31290322580645,1.3258064516129,1.31290322580645,1.31612903225806,1.31290322580645,1.30322580645161,1.30645161290323,1.30322580645161,1.30645161290323,1.31612903225806,1.30645161290323,1.31290322580645,1.30645161290323,1.31935483870968,1.30322580645161,1.30645161290323,1.30322580645161,1.30645161290323,1.3,1.30322580645161,1.31290322580645,1.31935483870968,1.31290322580645,1.31935483870968,1.32258064516129,1.32903225806452,1.34193548387097,1.33225806451613,1.35483870967742,1.38064516129032,1.37096774193548,1.38387096774194,1.40322580645161,1.4,1.38709677419355,1.36774193548387,1.37096774193548,1.36129032258065,1.35483870967742,1.34838709677419,1.34838709677419,1.35161290322581,1.35483870967742,1.35483870967742,1.35161290322581,1.32258064516129,1.30322580645161,1.39032258064516,1.63548387096774,2.02903225806452,2.12258064516129,1.92903225806452,1.65806451612903,1.49032258064516,1.44193548387097,1.41935483870968,1.40967741935484,1.39032258064516,1.4,1.39032258064516,1.39032258064516,1.40645161290323,1.41290322580645,1.40645161290323,1.40645161290323,1.41290322580645,1.41612903225806,1.4258064516129,1.4258064516129,1.43548387096774,1.43548387096774,1.43548387096774,1.44193548387097,1.44838709677419,1.46129032258065,1.4741935483871,1.49354838709677,1.51935483870968,1.53870967741935,1.56774193548387,1.59677419354839,1.62258064516129,1.65806451612903,1.68709677419355,1.7,1.7,1.68709677419355,1.65161290322581,1.6,1.54516129032258,1.49354838709677,1.44516129032258,1.4258064516129,1.37741935483871,1.37741935483871,1.37096774193548,1.36774193548387,1.36129032258065,1.36129032258065,1.35806451612903,1.35161290322581,1.34838709677419,1.33870967741935,1.34838709677419,1.35806451612903,1.35483870967742,1.34516129032258,1.33548387096774,1.33548387096774,1.34193548387097,1.34516129032258,1.34516129032258,1.34838709677419,1.34193548387097,1.35161290322581,1.34193548387097,1.33870967741935,1.32903225806452,1.33225806451613,1.33225806451613,1.33225806451613,1.32258064516129,1.32258064516129,1.31290322580645,1.31612903225806,1.31290322580645,1.31935483870968,1.32903225806452,1.32903225806452,1.33870967741935,1.33870967741935,1.34838709677419,1.34516129032258,1.34516129032258,1.34838709677419,1.34516129032258,1.35161290322581,1.34838709677419,1.35161290322581,1.34193548387097,1.34838709677419,1.34838709677419,1.34838709677419,1.34838709677419,1.36129032258065,1.36451612903226,1.35483870967742,1.35483870967742,1.35483870967742,1.35806451612903,1.34838709677419,1.34516129032258,1.34838709677419,1.35483870967742,1.36451612903226,1.37096774193548,1.38387096774194,1.39354838709677,1.39032258064516,1.41290322580645,1.41935483870968,1.39677419354839,1.39354838709677,1.40322580645161,1.37741935483871,1.36451612903226,1.33548387096774,1.34193548387097,1.34193548387097,1.33870967741935,1.33870967741935,1.33548387096774,1.34516129032258,1.34838709677419,1.33870967741935,1.33548387096774,1.28387096774194,1.26774193548387,1.35161290322581,1.61935483870968,2.00322580645161,2.05806451612903,1.88064516129032,1.61612903225806,1.44193548387097,1.36774193548387,1.35806451612903,1.34516129032258,1.33870967741935,1.33225806451613,1.33225806451613,1.33225806451613,1.33548387096774,1.33548387096774,1.33870967741935,1.34193548387097,1.34838709677419,1.35483870967742,1.35161290322581,1.36451612903226,1.3741935483871,1.38064516129032,1.39032258064516,1.39677419354839,1.40645161290323,1.41290322580645,1.42903225806452,1.44193548387097,1.45161290322581,1.47096774193548,1.49354838709677,1.5258064516129,1.56129032258065,1.58709677419355,1.61612903225806,1.63548387096774,1.64516129032258,1.63870967741935,1.60967741935484,1.57096774193548,1.51935483870968,1.47096774193548,1.43870967741935,1.41290322580645,1.39677419354839,1.39032258064516,1.38709677419355,1.39032258064516,1.37741935483871,1.3741935483871,1.37096774193548,1.3741935483871,1.37741935483871,1.36774193548387,1.36129032258065,1.36129032258065,1.36129032258065,1.36129032258065,1.37741935483871,1.36774193548387,1.36774193548387,1.36774193548387,1.36774193548387,1.35483870967742,1.35483870967742,1.35161290322581,1.34516129032258,1.35483870967742,1.34838709677419,1.34838709677419,1.35161290322581,1.36129032258065,1.36451612903226,1.36129032258065,1.36774193548387,1.37096774193548,1.37096774193548,1.36774193548387,1.36451612903226,1.35483870967742,1.35483870967742,1.35806451612903,1.35483870967742,1.35483870967742,1.35483870967742,1.34193548387097,1.35806451612903,1.36451612903226,1.36774193548387,1.35806451612903,1.36451612903226,1.35806451612903,1.36129032258065,1.35483870967742,1.34193548387097,1.34838709677419,1.34193548387097,1.34838709677419,1.33870967741935,1.33548387096774,1.3258064516129,1.3258064516129,1.31612903225806,1.32258064516129,1.30967741935484,1.30967741935484,1.31935483870968,1.32903225806452,1.33225806451613,1.33225806451613,1.33548387096774,1.35161290322581,1.35806451612903,1.36451612903226,1.3741935483871,1.41290322580645,1.39354838709677,1.40322580645161,1.40645161290323,1.38709677419355,1.37096774193548,1.35806451612903,1.36129032258065,1.35483870967742,1.35806451612903,1.35483870967742,1.34516129032258,1.34838709677419,1.35806451612903,1.35806451612903,1.36451612903226,1.34193548387097,1.28387096774194,1.32903225806452,1.53225806451613,1.94193548387097,2.16129032258065,2.05483870967742,1.78709677419355,1.54838709677419,1.44838709677419,1.42903225806452,1.40967741935484,1.38709677419355,1.3741935483871,1.36774193548387,1.37096774193548,1.36451612903226,1.35806451612903,1.34516129032258,1.33870967741935,1.32903225806452,1.30967741935484,1.3258064516129,1.31935483870968,1.32258064516129,1.31935483870968,1.31935483870968,1.33870967741935,1.34193548387097,1.36129032258065,1.3741935483871,1.39354838709677,1.40967741935484,1.43225806451613,1.46774193548387,1.50645161290323,1.55161290322581,1.58387096774194,1.61935483870968,1.65161290322581,1.66774193548387,1.65161290322581,1.63548387096774,1.59354838709677,1.54193548387097,1.49354838709677,1.44516129032258,1.41290322580645,1.40322580645161,1.39354838709677,1.37741935483871,1.37741935483871,1.3741935483871,1.36774193548387,1.37096774193548,1.37741935483871,1.36129032258065,1.35806451612903,1.36451612903226,1.36774193548387,1.35806451612903,1.35161290322581,1.36774193548387,1.35806451612903,1.35483870967742,1.35161290322581,1.35483870967742,1.35483870967742,1.34516129032258,1.34838709677419,1.35483870967742,1.35483870967742,1.35483870967742,1.35161290322581,1.36129032258065,1.36129032258065,1.36774193548387,1.3741935483871,1.37096774193548,1.36451612903226,1.36451612903226,1.36129032258065,1.34838709677419,1.35806451612903,1.35161290322581,1.35483870967742,1.33870967741935,1.34193548387097,1.33870967741935,1.33548387096774,1.33225806451613,1.32903225806452,1.3258064516129,1.3258064516129,1.32258064516129,1.3258064516129,1.33225806451613,1.3258064516129,1.33548387096774,1.34516129032258,1.35483870967742,1.35806451612903,1.35483870967742,1.36451612903226,1.36774193548387,1.36451612903226,1.37096774193548,1.3741935483871,1.37741935483871,1.37096774193548,1.36129032258065,1.36451612903226,1.35806451612903,1.36129032258065,1.36774193548387,1.36129032258065,1.35806451612903,1.35806451612903,1.37096774193548,1.38709677419355,1.39032258064516,1.4,1.43225806451613,1.41290322580645,1.40967741935484,1.40645161290323,1.38064516129032,1.36451612903226,1.33225806451613,1.3258064516129,1.32258064516129,1.31935483870968,1.31612903225806,1.31935483870968,1.32258064516129,1.31935483870968,1.3258064516129,1.30967741935484,1.28064516129032,1.23548387096774,1.29032258064516,1.5258064516129,1.94838709677419,2.16129032258065,2.01612903225806,1.71612903225806,1.50322580645161,1.41290322580645,1.40967741935484,1.39354838709677,1.38064516129032,1.36774193548387,1.3741935483871,1.37096774193548,1.36774193548387,1.37096774193548,1.37096774193548,1.39354838709677,1.40967741935484,1.40967741935484,1.41935483870968,1.42258064516129,1.4258064516129,1.43548387096774,1.44193548387097,1.45483870967742,1.45161290322581,1.45161290322581,1.47741935483871,1.49032258064516,1.51290322580645,1.52903225806452,1.55806451612903,1.58387096774194,1.61612903225806,1.64516129032258,1.66129032258065,1.69032258064516,1.7,1.68387096774194,1.65161290322581,1.59032258064516,1.51935483870968,1.46774193548387,1.43548387096774,1.4,1.38387096774194,1.36774193548387,1.35161290322581,1.34193548387097,1.33870967741935,1.34193548387097,1.34516129032258,1.34193548387097,1.32903225806452,1.33548387096774,1.34838709677419,1.35483870967742,1.35483870967742,1.36129032258065,1.3741935483871,1.38387096774194,1.38064516129032,1.37741935483871,1.37741935483871,1.38387096774194,1.38064516129032,1.38064516129032,1.38387096774194,1.37096774193548,1.36451612903226,1.36774193548387,1.37096774193548,1.36774193548387,1.36129032258065,1.35161290322581,1.34516129032258,1.34838709677419,1.35483870967742,1.34193548387097,1.35161290322581,1.34838709677419,1.33870967741935,1.33870967741935,1.33870967741935,1.33870967741935,1.33548387096774,1.32903225806452,1.32258064516129,1.3258064516129,1.3258064516129,1.32258064516129,1.33225806451613,1.33225806451613,1.31935483870968,1.30322580645161,1.30967741935484,1.31290322580645,1.30645161290323,1.31290322580645,1.31935483870968,1.30967741935484,1.30967741935484,1.30322580645161,1.29032258064516,1.29677419354839,1.3,1.28709677419355,1.29354838709677,1.29032258064516,1.28709677419355,1.29032258064516,1.30322580645161,1.29354838709677,1.31612903225806,1.34516129032258,1.32258064516129,1.33548387096774,1.33870967741935,1.31935483870968,1.30967741935484,1.29354838709677,1.29032258064516,1.29677419354839,1.28709677419355,1.28387096774194,1.28709677419355,1.27741935483871,1.28064516129032,1.28387096774194,1.28064516129032,1.25483870967742,1.22258064516129,1.30322580645161,1.53548387096774,1.95161290322581,2.06774193548387,1.87741935483871,1.59354838709677,1.42903225806452,1.37096774193548,1.36451612903226,1.34516129032258,1.32903225806452,1.33870967741935,1.33870967741935,1.34838709677419,1.33225806451613,1.36774193548387,1.37741935483871,1.38064516129032,1.37096774193548,1.38064516129032,1.38709677419355,1.39032258064516,1.39354838709677,1.41290322580645,1.41935483870968,1.43870967741935,1.45161290322581,1.46774193548387,1.47741935483871,1.5,1.53225806451613,1.55483870967742,1.58064516129032,1.59354838709677,1.63225806451613,1.66774193548387,1.69354838709677,1.70322580645161,1.71935483870968,1.70967741935484,1.6741935483871,1.6258064516129,1.57096774193548,1.51935483870968,1.48709677419355,1.46129032258065,1.44516129032258,1.42258064516129,1.42258064516129,1.41290322580645,1.41612903225806,1.41290322580645,1.4,1.39677419354839,1.4,1.39677419354839,1.4,1.40645161290323,1.39677419354839,1.4,1.38387096774194,1.39354838709677,1.38387096774194,1.39354838709677,1.39354838709677,1.39032258064516,1.39677419354839,1.39032258064516,1.39032258064516,1.38387096774194,1.39032258064516,1.39032258064516,1.38387096774194,1.38387096774194,1.3741935483871,1.37741935483871,1.37096774193548,1.3741935483871,1.38387096774194,1.37741935483871,1.36451612903226,1.36129032258065,1.34193548387097,1.34193548387097,1.34193548387097,1.34193548387097,1.34516129032258,1.34193548387097,1.34193548387097,1.34193548387097,1.32903225806452,1.31935483870968,1.31935483870968,1.32258064516129,1.3258064516129,1.33225806451613,1.32903225806452,1.33225806451613,1.31935483870968,1.31290322580645,1.30645161290323,1.30645161290323,1.29677419354839,1.3,1.29032258064516,1.29354838709677,1.3,1.31612903225806,1.32258064516129,1.32903225806452,1.32903225806452,1.35483870967742,1.3741935483871,1.35483870967742,1.35483870967742,1.36129032258065,1.34193548387097,1.32903225806452,1.31612903225806,1.3258064516129,1.32903225806452,1.32258064516129,1.31935483870968,1.31612903225806,1.32258064516129,1.31935483870968,1.31612903225806,1.30967741935484,1.25806451612903,1.26774193548387,1.39677419354839,1.74193548387097,2.05483870967742,2.03225806451613,1.78709677419355,1.5258064516129,1.4258064516129,1.39354838709677,1.3741935483871,1.36451612903226,1.35161290322581,1.35483870967742,1.35806451612903,1.35483870967742,1.36451612903226,1.36129032258065,1.37096774193548,1.37096774193548,1.39354838709677,1.39354838709677,1.4,1.4,1.40645161290323,1.41935483870968,1.4258064516129,1.41935483870968,1.42903225806452,1.44193548387097,1.45161290322581,1.46451612903226,1.48387096774194,1.50967741935484,1.53225806451613,1.55483870967742,1.58709677419355,1.61612903225806,1.64193548387097,1.65161290322581,1.65161290322581,1.63225806451613,1.59354838709677,1.53870967741935,1.47741935483871,1.43870967741935,1.40322580645161,1.3741935483871,1.36129032258065,1.35806451612903,1.34838709677419,1.34838709677419,1.34516129032258,1.35483870967742,1.34838709677419,1.34193548387097,1.34193548387097,1.35161290322581,1.35806451612903,1.34838709677419,1.34516129032258,1.35161290322581,1.34516129032258,1.34516129032258,1.33870967741935,1.34193548387097,1.33870967741935,1.33870967741935,1.34193548387097,1.33548387096774,1.34516129032258,1.35806451612903,1.36129032258065,1.36774193548387,1.36451612903226,1.36129032258065,1.35806451612903,1.35483870967742,1.35483870967742,1.34193548387097,1.34516129032258,1.34838709677419,1.34838709677419,1.33870967741935,1.33870967741935,1.33870967741935,1.33870967741935,1.33225806451613,1.33870967741935,1.34193548387097,1.34838709677419,1.34838709677419,1.35161290322581,1.36129032258065,1.36129032258065,1.36451612903226,1.36774193548387,1.36451612903226,1.36129032258065,1.35161290322581,1.35483870967742,1.36451612903226,1.36129032258065,1.35161290322581,1.35483870967742,1.36129032258065,1.35483870967742,1.35806451612903,1.36774193548387,1.36774193548387,1.3741935483871,1.38387096774194,1.39032258064516,1.4,1.40645161290323,1.44193548387097,1.43548387096774,1.43548387096774,1.44193548387097,1.44193548387097,1.41612903225806,1.39032258064516,1.3741935483871,1.37096774193548,1.37096774193548,1.36129032258065,1.35806451612903,1.36129032258065,1.36451612903226,1.37096774193548,1.38064516129032,1.37096774193548,1.31290322580645,1.32903225806452,1.43225806451613,1.76774193548387,2.09677419354839,2.09677419354839,1.87096774193548,1.60322580645161,1.45806451612903,1.41290322580645,1.39032258064516,1.3741935483871,1.37741935483871,1.37741935483871,1.3741935483871,1.3741935483871,1.3741935483871,1.36774193548387,1.35483870967742,1.36129032258065,1.36451612903226,1.35806451612903,1.3741935483871,1.38387096774194,1.38709677419355,1.37096774193548,1.37096774193548,1.3741935483871,1.38387096774194,1.38709677419355,1.40322580645161,1.40645161290323,1.42903225806452,1.45161290322581,1.4741935483871,1.5,1.53225806451613,1.55161290322581,1.58709677419355,1.61290322580645,1.61935483870968,1.60645161290323,1.56129032258065,1.5,1.45483870967742,1.39354838709677,1.36129032258065,1.33225806451613,1.3258064516129,1.31935483870968,1.31935483870968,1.33225806451613,1.3258064516129,1.33548387096774,1.33870967741935,1.32903225806452,1.32258064516129,1.31935483870968,1.3258064516129,1.33548387096774,1.35161290322581,1.33870967741935,1.34516129032258,1.34193548387097,1.35806451612903,1.35161290322581,1.34838709677419,1.36129032258065,1.34838709677419,1.35161290322581,1.34193548387097,1.34193548387097,1.33548387096774,1.34516129032258,1.34193548387097,1.33870967741935,1.34193548387097,1.34516129032258,1.34838709677419,1.34838709677419,1.34516129032258,1.35483870967742,1.35806451612903,1.35161290322581,1.34838709677419,1.35483870967742,1.35483870967742,1.34838709677419,1.35161290322581,1.35161290322581,1.33870967741935,1.34516129032258,1.33870967741935,1.34193548387097,1.33870967741935,1.34193548387097,1.35161290322581,1.34193548387097,1.33870967741935,1.33548387096774,1.34193548387097,1.34516129032258,1.33870967741935,1.33870967741935,1.3258064516129,1.33548387096774,1.33225806451613,1.33548387096774,1.34838709677419,1.34516129032258,1.33548387096774,1.33870967741935,1.34193548387097,1.34838709677419,1.36774193548387,1.36774193548387,1.36774193548387,1.41290322580645,1.41612903225806,1.39354838709677,1.40645161290323,1.41612903225806,1.38064516129032,1.35806451612903,1.34838709677419,1.34193548387097,1.34516129032258,1.34838709677419,1.33870967741935,1.33870967741935,1.34193548387097,1.34193548387097,1.34516129032258,1.34838709677419,1.29354838709677,1.27096774193548,1.35161290322581,1.62258064516129,2.03548387096774,2.13548387096774,1.94193548387097,1.66451612903226,1.47741935483871,1.4,1.39354838709677,1.3741935483871,1.36774193548387,1.36129032258065,1.3741935483871,1.38709677419355,1.39354838709677,1.39032258064516,1.39354838709677,1.40322580645161,1.4,1.4,1.40645161290323,1.40967741935484,1.41935483870968,1.41935483870968,1.42903225806452,1.43548387096774,1.45161290322581,1.47096774193548,1.47741935483871,1.50322580645161,1.52903225806452,1.54193548387097,1.57096774193548,1.59677419354839,1.62903225806452,1.66451612903226,1.69032258064516,1.71935483870968,1.73548387096774,1.72258064516129,1.68709677419355,1.64516129032258,1.58387096774194,1.52903225806452,1.49032258064516,1.46129032258065,1.4258064516129,1.40322580645161,1.39354838709677,1.39032258064516,1.37741935483871,1.37096774193548,1.37096774193548,1.37096774193548,1.35806451612903,1.35161290322581,1.35806451612903,1.35161290322581,1.34193548387097,1.33870967741935,1.34193548387097,1.34838709677419,1.33870967741935,1.33870967741935,1.33548387096774,1.32903225806452,1.31290322580645,1.30967741935484,1.30322580645161,1.3,1.3,1.30322580645161,1.30322580645161,1.31612903225806,1.31290322580645,1.32258064516129,1.32258064516129,1.3258064516129,1.32903225806452,1.32258064516129,1.31612903225806,1.32258064516129,1.32258064516129,1.31935483870968,1.32258064516129,1.31935483870968,1.30967741935484,1.31290322580645,1.31612903225806,1.32258064516129,1.32258064516129,1.32903225806452,1.33548387096774,1.31935483870968,1.32258064516129,1.31935483870968,1.3,1.3,1.30967741935484,1.32258064516129,1.31935483870968,1.31935483870968,1.31612903225806,1.3258064516129,1.32903225806452,1.33548387096774,1.33548387096774,1.34193548387097,1.35806451612903,1.35806451612903,1.35483870967742,1.35806451612903,1.36129032258065,1.38064516129032,1.3741935483871,1.38064516129032,1.41935483870968,1.39677419354839,1.39354838709677,1.40645161290323,1.39032258064516,1.37741935483871,1.36129032258065,1.34193548387097,1.32903225806452,1.31935483870968,1.3,1.31290322580645,1.30967741935484,1.31612903225806,1.31612903225806,1.31290322580645,1.3,1.24838709677419,1.3,1.51290322580645,1.90645161290323,2.13548387096774,2,1.70322580645161,1.47741935483871,1.42258064516129,1.40322580645161,1.37741935483871,1.36774193548387,1.35483870967742,1.36451612903226,1.36129032258065,1.34838709677419,1.35161290322581,1.35161290322581,1.35483870967742,1.35483870967742,1.36129032258065,1.36451612903226,1.36774193548387,1.36774193548387,1.37096774193548,1.37741935483871,1.39032258064516,1.40967741935484,1.41612903225806,1.43870967741935,1.44516129032258,1.47096774193548,1.49677419354839,1.5258064516129,1.54838709677419,1.56774193548387,1.60645161290323,1.62903225806452,1.65483870967742,1.66451612903226,1.66451612903226,1.63870967741935,1.58064516129032,1.51935483870968,1.46129032258065,1.41290322580645,1.38387096774194,1.36451612903226,1.35161290322581,1.33870967741935,1.34193548387097,1.32903225806452,1.3258064516129,1.32903225806452,1.32258064516129,1.3258064516129,1.32903225806452,1.33548387096774,1.33870967741935,1.33225806451613,1.33870967741935,1.3258064516129,1.33225806451613,1.31612903225806,1.3258064516129,1.32903225806452,1.32903225806452,1.33225806451613,1.33225806451613,1.32903225806452,1.33225806451613,1.33225806451613,1.35161290322581,1.34516129032258,1.35161290322581,1.34838709677419,1.37096774193548,1.37096774193548,1.36451612903226,1.36451612903226,1.38709677419355,1.38709677419355,1.39354838709677,1.40645161290323,1.40967741935484,1.40967741935484,1.41290322580645,1.41612903225806,1.43548387096774,1.44838709677419,1.45483870967742,1.46451612903226,1.48387096774194,1.49677419354839
1.30967741935484,1.31612903225806,1.31290322580645,1.31290322580645,1.30645161290323,1.25161290322581,1.26451612903226,1.39354838709677,1.73870967741935,2.05161290322581,2.02903225806452,1.78387096774194,1.51935483870968,1.42258064516129,1.38709677419355,1.37096774193548,1.36129032258065,1.34838709677419,1.35161290322581,1.35483870967742,1.35161290322581,1.36129032258065,1.36129032258065,1.36774193548387,1.37096774193548,1.39032258064516,1.39354838709677,1.39677419354839,1.4,1.40322580645161,1.41935483870968,1.42258064516129,1.41935483870968,1.42903225806452,1.44193548387097,1.44838709677419,1.46129032258065,1.48387096774194,1.50645161290323,1.52903225806452,1.55161290322581,1.58387096774194,1.61612903225806,1.63870967741935,1.64838709677419,1.64838709677419,1.62903225806452,1.59032258064516,1.53548387096774,1.4741935483871,1.43548387096774,1.4,1.37096774193548,1.35806451612903,1.35483870967742,1.34516129032258,1.34516129032258,1.34193548387097,1.35161290322581,1.34516129032258,1.33870967741935,1.33870967741935,1.34838709677419,1.35483870967742,1.34516129032258,1.34193548387097,1.34838709677419,1.34193548387097,1.34193548387097,1.33548387096774,1.33870967741935,1.33548387096774,1.33225806451613,1.33870967741935,1.33225806451613,1.34193548387097,1.35161290322581,1.35806451612903,1.36451612903226,1.36129032258065,1.35806451612903,1.35161290322581,1.35161290322581,1.35161290322581,1.33870967741935,1.34193548387097,1.34193548387097,1.34516129032258,1.33225806451613,1.33548387096774,1.33548387096774,1.33225806451613,1.32903225806452,1.33548387096774,1.33870967741935,1.34516129032258,1.34516129032258,1.34838709677419,1.35483870967742,1.35483870967742,1.35806451612903,1.36129032258065,1.35806451612903,1.35483870967742,1.34838709677419,1.34838709677419,1.36129032258065,1.35483870967742,1.34838709677419,1.34838709677419,1.35483870967742,1.34838709677419,1.35483870967742,1.36451612903226,1.36129032258065,1.37096774193548,1.37741935483871,1.38709677419355,1.39677419354839,1.4,1.43870967741935,1.42903225806452,1.42903225806452,1.43870967741935,1.43870967741935,1.41290322580645,1.38709677419355,1.37096774193548,1.36774193548387,1.36774193548387,1.35483870967742,1.35483870967742,1.35806451612903,1.36129032258065,1.37096774193548,1.38064516129032,1.36774193548387,1.30967741935484,1.3258064516129,1.42903225806452,1.76774193548387,2.09677419354839,2.09677419354839,1.86774193548387,1.60322580645161,1.45483870967742,1.40967741935484,1.39032258064516,1.3741935483871,1.3741935483871,1.37741935483871,1.37096774193548,1.3741935483871,1.37096774193548,1.36774193548387,1.35483870967742,1.35806451612903,1.36451612903226,1.35806451612903,1.3741935483871,1.38387096774194,1.38709677419355,1.37096774193548,1.3741935483871,1.3741935483871,1.38709677419355,1.39032258064516,1.40322580645161,1.40967741935484,1.42903225806452,1.45483870967742,1.4741935483871,1.50322580645161,1.53548387096774,1.55483870967742,1.59032258064516,1.61290322580645,1.62258064516129,1.60967741935484,1.56451612903226,1.50322580645161,1.45806451612903,1.4,1.36451612903226,1.33548387096774,1.32903225806452,1.32258064516129,1.32258064516129,1.33870967741935,1.32903225806452,1.33870967741935,1.34516129032258,1.33225806451613,1.32903225806452,1.3258064516129,1.32903225806452,1.34193548387097,1.35483870967742,1.34516129032258,1.35161290322581,1.34838709677419,1.36129032258065,1.35806451612903,1.35483870967742,1.36774193548387,1.35483870967742,1.35806451612903,1.34516129032258,1.34838709677419,1.34193548387097,1.35161290322581,1.34838709677419,1.34516129032258,1.34838709677419,1.35161290322581,1.35483870967742,1.35483870967742,1.35161290322581,1.36129032258065,1.36451612903226,1.35806451612903,1.35483870967742,1.36129032258065,1.35806451612903,1.35483870967742,1.35806451612903,1.35806451612903,1.34516129032258,1.35161290322581,1.34516129032258,1.34838709677419,1.34193548387097,1.34838709677419,1.35483870967742,1.34838709677419,1.34516129032258,1.34193548387097,1.34516129032258,1.35161290322581,1.34193548387097,1.34516129032258,1.33225806451613,1.33870967741935,1.33548387096774,1.34193548387097,1.35161290322581,1.34838709677419,1.33870967741935,1.34193548387097,1.34516129032258,1.35161290322581,1.37096774193548,1.37096774193548,1.37096774193548,1.41612903225806,1.41612903225806,1.39677419354839,1.40967741935484,1.41612903225806,1.38064516129032,1.36129032258065,1.34838709677419,1.34516129032258,1.34516129032258,1.34838709677419,1.33870967741935,1.33870967741935,1.34193548387097,1.34193548387097,1.34516129032258,1.34516129032258,1.29354838709677,1.27096774193548,1.35161290322581,1.61935483870968,2.03225806451613,2.13225806451613,1.93870967741935,1.66129032258065,1.4741935483871,1.39677419354839,1.39032258064516,1.36774193548387,1.36129032258065,1.35483870967742,1.37096774193548,1.38064516129032,1.38709677419355,1.38387096774194,1.38709677419355,1.39677419354839,1.39354838709677,1.39354838709677,1.4,1.40322580645161,1.41290322580645,1.40967741935484,1.42258064516129,1.4258064516129,1.44193548387097,1.46129032258065,1.47096774193548,1.49354838709677,1.51935483870968,1.53225806451613,1.56129032258065,1.58709677419355,1.61612903225806,1.65161290322581,1.67741935483871,1.70645161290323,1.7258064516129,1.71290322580645,1.67741935483871,1.63225806451613,1.57096774193548,1.51935483870968,1.47741935483871,1.44838709677419,1.41612903225806,1.39032258064516,1.38064516129032,1.37741935483871,1.36451612903226,1.35806451612903,1.35806451612903,1.35806451612903,1.34516129032258,1.33870967741935,1.34516129032258,1.33870967741935,1.32903225806452,1.3258064516129,1.32903225806452,1.33870967741935,1.3258064516129,1.3258064516129,1.32258064516129,1.31612903225806,1.3,1.3,1.29032258064516,1.28709677419355,1.28709677419355,1.29354838709677,1.29354838709677,1.30645161290323,1.3,1.31290322580645,1.31290322580645,1.31612903225806,1.31935483870968,1.31290322580645,1.30645161290323,1.31612903225806,1.31612903225806,1.30967741935484,1.31290322580645,1.30967741935484,1.30322580645161,1.30645161290323,1.30967741935484,1.31612903225806,1.31612903225806,1.32258064516129,1.33225806451613,1.31612903225806,1.31935483870968,1.31612903225806,1.29677419354839,1.29677419354839,1.30967741935484,1.32258064516129,1.31935483870968,1.32258064516129,1.31935483870968,1.32903225806452,1.33225806451613,1.33870967741935,1.33870967741935,1.34838709677419,1.36129032258065,1.36451612903226,1.36129032258065,1.36774193548387,1.37096774193548,1.39032258064516,1.38387096774194,1.39354838709677,1.42903225806452,1.40967741935484,1.40645161290323,1.42258064516129,1.40645161290323,1.39354838709677,1.37741935483871,1.35806451612903,1.34838709677419,1.33870967741935,1.32258064516129,1.33225806451613,1.33225806451613,1.33548387096774,1.33870967741935,1.33870967741935,1.32258064516129,1.2741935483871,1.3258064516129,1.54193548387097,1.93548387096774,2.16451612903226,2.02903225806452,1.73225806451613,1.50967741935484,1.45161290322581,1.43225806451613,1.40967741935484,1.4,1.39032258064516,1.4,1.39354838709677,1.38387096774194,1.38709677419355,1.38709677419355,1.39032258064516,1.39354838709677,1.39677419354839,1.40322580645161,1.40645161290323,1.40322580645161,1.40967741935484,1.41612903225806,1.42903225806452,1.44838709677419,1.45483870967742,1.47741935483871,1.48387096774194,1.50967741935484,1.53548387096774,1.56451612903226,1.58709677419355,1.60645161290323,1.64516129032258,1.66129032258065,1.69032258064516,1.7,1.7,1.66774193548387,1.61612903225806,1.55161290322581,1.49032258064516,1.44193548387097,1.41290322580645,1.39032258064516,1.37741935483871,1.36451612903226,1.36129032258065,1.34838709677419,1.34516129032258,1.34516129032258,1.33870967741935,1.33548387096774,1.33870967741935,1.34193548387097,1.34516129032258,1.33225806451613,1.33870967741935,1.32258064516129,1.3258064516129,1.30645161290323,1.31290322580645,1.31290322580645,1.30645161290323,1.30645161290323,1.30322580645161,1.29677419354839,1.29354838709677,1.29354838709677,1.30322580645161,1.29354838709677,1.29677419354839,1.28709677419355,1.30322580645161,1.29677419354839,1.28387096774194,1.27741935483871,1.29677419354839,1.28709677419355,1.29032258064516,1.29354838709677,1.29032258064516,1.28387096774194,1.27741935483871,1.2741935483871,1.28709677419355,1.29032258064516,1.28709677419355,1.28709677419355,1.29677419354839,1.3,1.3,1.31612903225806,1.31612903225806,1.31935483870968,1.3258064516129,1.32258064516129,1.3258064516129,1.33225806451613,1.33870967741935,1.33225806451613,1.34193548387097,1.32903225806452,1.34516129032258,1.35161290322581,1.37741935483871,1.3741935483871,1.38387096774194,1.41290322580645,1.40967741935484,1.4,1.39677419354839,1.38387096774194,1.3741935483871,1.35161290322581,1.35161290322581,1.36129032258065,1.35161290322581,1.34516129032258,1.35161290322581,1.33548387096774,1.34193548387097,1.33548387096774,1.34193548387097,1.3258064516129,1.26451612903226,1.33548387096774,1.54516129032258,1.93548387096774,2.14193548387097,2,1.71290322580645,1.51290322580645,1.44838709677419,1.4258064516129,1.40967741935484,1.39354838709677,1.4,1.39354838709677,1.39032258064516,1.39032258064516,1.38387096774194,1.38387096774194,1.38064516129032,1.38064516129032,1.38387096774194,1.39677419354839,1.40645161290323,1.41290322580645,1.41935483870968,1.41612903225806,1.42903225806452,1.43870967741935,1.44516129032258,1.46129032258065,1.47096774193548,1.48709677419355,1.51290322580645,1.54193548387097,1.57096774193548,1.61290322580645,1.63870967741935,1.65483870967742,1.6741935483871,1.6741935483871,1.66129032258065,1.63225806451613,1.58387096774194,1.52903225806452,1.48064516129032,1.43225806451613,1.39354838709677,1.3741935483871,1.35483870967742,1.34838709677419,1.35161290322581,1.35161290322581,1.35483870967742,1.35806451612903,1.35806451612903,1.36129032258065,1.36451612903226,1.36774193548387,1.36774193548387,1.3741935483871,1.36774193548387,1.35806451612903,1.35161290322581,1.34838709677419,1.35161290322581,1.35483870967742,1.35483870967742,1.35806451612903,1.36129032258065,1.36129032258065,1.36451612903226,1.36451612903226,1.36774193548387,1.35806451612903,1.36129032258065,1.35806451612903,1.35806451612903,1.36129032258065,1.36774193548387,1.36129032258065,1.36774193548387,1.36129032258065,1.35483870967742,1.36129032258065,1.36451612903226,1.36451612903226,1.35806451612903,1.35483870967742,1.35483870967742,1.35806451612903,1.35806451612903,1.36451612903226,1.35483870967742,1.34516129032258,1.33548387096774,1.33548387096774,1.3258064516129,1.33225806451613,1.32903225806452,1.33225806451613,1.32258064516129,1.31935483870968,1.3258064516129,1.33225806451613,1.33548387096774,1.33548387096774,1.32903225806452,1.3258064516129,1.32903225806452,1.33870967741935,1.34193548387097,1.33870967741935,1.33870967741935,1.37741935483871,1.35806451612903,1.36451612903226,1.37741935483871,1.36451612903226,1.35806451612903,1.33548387096774,1.31935483870968,1.3258064516129,1.32258064516129,1.31935483870968,1.3258064516129,1.31612903225806,1.31935483870968,1.32258064516129,1.32258064516129,1.29354838709677,1.23870967741935,1.28387096774194,1.48387096774194,1.89032258064516,2.1,2.00967741935484,1.73548387096774,1.50967741935484,1.40322580645161,1.39677419354839,1.38387096774194,1.36774193548387,1.35806451612903,1.35483870967742,1.36451612903226,1.36774193548387,1.36129032258065,1.36774193548387,1.37741935483871,1.36774193548387,1.36774193548387,1.36129032258065,1.35483870967742,1.35483870967742,1.35806451612903,1.36451612903226,1.3741935483871,1.38709677419355,1.39354838709677,1.40322580645161,1.42258064516129,1.44516129032258,1.47741935483871,1.48709677419355,1.5258064516129,1.56451612903226,1.59677419354839,1.63225806451613,1.66129032258065,1.68064516129032,1.68064516129032,1.65161290322581,1.62258064516129,1.55483870967742,1.48709677419355,1.45483870967742,1.41290322580645,1.39354838709677,1.38709677419355,1.38064516129032,1.38064516129032,1.38709677419355,1.38387096774194,1.37741935483871,1.3741935483871,1.36451612903226,1.3741935483871,1.37096774193548,1.37096774193548,1.36774193548387,1.36129032258065,1.36451612903226,1.36129032258065,1.36774193548387,1.35806451612903,1.35161290322581,1.35483870967742,1.34838709677419,1.35483870967742,1.35161290322581,1.34516129032258,1.34516129032258,1.35161290322581,1.34193548387097,1.33548387096774,1.34193548387097,1.34193548387097,1.34516129032258,1.34516129032258,1.34838709677419,1.34193548387097,1.34838709677419,1.35483870967742,1.35806451612903,1.35483870967742,1.36774193548387,1.37096774193548,1.37096774193548,1.38387096774194,1.38064516129032,1.38387096774194,1.38387096774194,1.3741935483871,1.36451612903226,1.35483870967742,1.35483870967742,1.35161290322581,1.35806451612903,1.35806451612903,1.35806451612903,1.34193548387097,1.34516129032258,1.33225806451613,1.33870967741935,1.32258064516129,1.32258064516129,1.31612903225806,1.31290322580645,1.30967741935484,1.31935483870968,1.33225806451613,1.33870967741935,1.33870967741935,1.34193548387097,1.38064516129032,1.3741935483871,1.35483870967742,1.36451612903226,1.37096774193548,1.34838709677419,1.31935483870968,1.30645161290323,1.31935483870968,1.31612903225806,1.31612903225806,1.31935483870968,1.31290322580645,1.30322580645161,1.30967741935484,1.3,1.28709677419355,1.2258064516129,1.24516129032258,1.35161290322581,1.69354838709677,2.07741935483871,2.07741935483871,1.84516129032258,1.5741935483871,1.42258064516129,1.37096774193548,1.35161290322581,1.3258064516129,1.32903225806452,1.3258064516129,1.3258064516129,1.3258064516129,1.33225806451613,1.32903225806452,1.33870967741935,1.34516129032258,1.35483870967742,1.36451612903226,1.37096774193548,1.37741935483871,1.38387096774194,1.38709677419355,1.40322580645161,1.40645161290323,1.42258064516129,1.42903225806452,1.44838709677419,1.45483870967742,1.48709677419355,1.51935483870968,1.55161290322581,1.59354838709677,1.62258064516129,1.65806451612903,1.69032258064516,1.70322580645161,1.70645161290323,1.68387096774194,1.63870967741935,1.59354838709677,1.53548387096774,1.47741935483871,1.43225806451613,1.41290322580645,1.39677419354839,1.38709677419355,1.38387096774194,1.38387096774194,1.38387096774194,1.39354838709677,1.4,1.40322580645161,1.39677419354839,1.39354838709677,1.39032258064516,1.38387096774194,1.38387096774194,1.38709677419355,1.38387096774194,1.38064516129032,1.38709677419355,1.38387096774194,1.3741935483871,1.37741935483871,1.37741935483871,1.37741935483871,1.36774193548387,1.36774193548387,1.35806451612903,1.36451612903226,1.37741935483871,1.37741935483871,1.38064516129032,1.3741935483871,1.3741935483871,1.38709677419355,1.37096774193548,1.3741935483871,1.38064516129032,1.39354838709677,1.39354838709677,1.39354838709677,1.39354838709677,1.39032258064516,1.37741935483871,1.3741935483871,1.3741935483871,1.36451612903226,1.3741935483871,1.3741935483871,1.35806451612903,1.36129032258065,1.35161290322581,1.34193548387097,1.34193548387097,1.34193548387097,1.34838709677419,1.35161290322581,1.35161290322581,1.35483870967742,1.35483870967742,1.35161290322581,1.34516129032258,1.34193548387097,1.34193548387097,1.33548387096774,1.3258064516129,1.32903225806452,1.33225806451613,1.34193548387097,1.33870967741935,1.35483870967742,1.35161290322581,1.36774193548387,1.38064516129032,1.35161290322581,1.35483870967742,1.35483870967742,1.31935483870968,1.30645161290323,1.29032258064516,1.28064516129032,1.28387096774194,1.27741935483871,1.2741935483871,1.26451612903226,1.26451612903226,1.25806451612903,1.24516129032258,1.26129032258065,1.22903225806452,1.18709677419355,1.26451612903226,1.50645161290323,1.94193548387097,2.1,1.9258064516129,1.64193548387097,1.44516129032258,1.36774193548387,1.36129032258065,1.34193548387097,1.34193548387097,1.33870967741935,1.34838709677419,1.34516129032258,1.34838709677419,1.36129032258065,1.3741935483871,1.38387096774194,1.37741935483871,1.38387096774194,1.38709677419355,1.4,1.41290322580645,1.40645161290323,1.42258064516129,1.4258064516129,1.43225806451613,1.44838709677419,1.46774193548387,1.48709677419355,1.50967741935484,1.53548387096774,1.56774193548387,1.59354838709677,1.63225806451613,1.66451612903226,1.69032258064516,1.71612903225806,1.7258064516129,1.71935483870968,1.68064516129032,1.63225806451613,1.56774193548387,1.50645161290323,1.46774193548387,1.41935483870968,1.4,1.38387096774194,1.36774193548387,1.35483870967742,1.35161290322581,1.34838709677419,1.34838709677419,1.35161290322581,1.34516129032258,1.34838709677419,1.35161290322581,1.35483870967742,1.35483870967742,1.35483870967742,1.34516129032258,1.34838709677419,1.35161290322581,1.34516129032258,1.34838709677419,1.34516129032258,1.34516129032258,1.34516129032258,1.34193548387097,1.33870967741935,1.33548387096774,1.34516129032258,1.35483870967742,1.34516129032258,1.35161290322581,1.33870967741935,1.35806451612903,1.35483870967742,1.35483870967742,1.35161290322581,1.35483870967742,1.36451612903226,1.34516129032258,1.35483870967742,1.35806451612903,1.37096774193548,1.36774193548387,1.36129032258065,1.35483870967742,1.34838709677419,1.33870967741935,1.34193548387097,1.33870967741935,1.33225806451613,1.32258064516129,1.32903225806452,1.32903225806452,1.33548387096774,1.33548387096774,1.32258064516129,1.30967741935484,1.3258064516129,1.33870967741935,1.32903225806452,1.34193548387097,1.33548387096774,1.33225806451613,1.32903225806452,1.31935483870968,1.32258064516129,1.31612903225806,1.32258064516129,1.32258064516129,1.33225806451613,1.33870967741935,1.34516129032258,1.35483870967742,1.38709677419355,1.37741935483871,1.3741935483871,1.37741935483871,1.34838709677419,1.34193548387097,1.31935483870968,1.29677419354839,1.3,1.29677419354839,1.31290322580645,1.31290322580645,1.31935483870968,1.32258064516129,1.33870967741935,1.32903225806452,1.30322580645161,1.23870967741935,1.29354838709677,1.51935483870968,1.94193548387097,2.16129032258065,2.00645161290323,1.69677419354839,1.48709677419355,1.40967741935484,1.4,1.37741935483871,1.37096774193548,1.36451612903226,1.37096774193548,1.37096774193548,1.3741935483871,1.37741935483871,1.38709677419355,1.39354838709677,1.38387096774194,1.38387096774194,1.39354838709677,1.40322580645161,1.39677419354839,1.40645161290323,1.41290322580645,1.42258064516129,1.42903225806452,1.44516129032258,1.46451612903226,1.47741935483871,1.49032258064516,1.52258064516129,1.55483870967742,1.58387096774194,1.61935483870968,1.64516129032258,1.67096774193548,1.7,1.7258064516129,1.71612903225806,1.67096774193548,1.62258064516129,1.55806451612903,1.49032258064516,1.43870967741935,1.40322580645161,1.39677419354839,1.39032258064516,1.37741935483871,1.3741935483871,1.3741935483871,1.37096774193548,1.36451612903226,1.36774193548387,1.36451612903226,1.36451612903226,1.35483870967742,1.35806451612903,1.36129032258065,1.36129032258065,1.35161290322581,1.33548387096774,1.33548387096774,1.3258064516129,1.3258064516129,1.32258064516129,1.31612903225806,1.30322580645161,1.30967741935484,1.31290322580645,1.31612903225806,1.32903225806452,1.31935483870968,1.3258064516129,1.32258064516129,1.3258064516129,1.3258064516129,1.3258064516129,1.32903225806452,1.3258064516129,1.33225806451613,1.34193548387097,1.34838709677419,1.33225806451613,1.34516129032258,1.34838709677419,1.34193548387097,1.33870967741935,1.36451612903226,1.36129032258065,1.37096774193548,1.36129032258065,1.37096774193548,1.35483870967742,1.37096774193548,1.36129032258065,1.35806451612903,1.35483870967742,1.37741935483871,1.36774193548387,1.3741935483871,1.38064516129032,1.37741935483871,1.37741935483871,1.38709677419355,1.39354838709677,1.38387096774194,1.38064516129032,1.38387096774194,1.38387096774194,1.39354838709677,1.40322580645161,1.4,1.41290322580645,1.45161290322581,1.44193548387097,1.43548387096774,1.43870967741935,1.4258064516129,1.40967741935484,1.40322580645161,1.38709677419355,1.38709677419355,1.38709677419355,1.38064516129032,1.36774193548387,1.35483870967742,1.34516129032258,1.34838709677419,1.34193548387097,1.31290322580645,1.25161290322581,1.29677419354839,1.49677419354839,1.86451612903226,2.08387096774194,1.95806451612903,1.66129032258065,1.44516129032258,1.36774193548387,1.35161290322581,1.33870967741935,1.32258064516129,1.31290322580645,1.31612903225806,1.31612903225806,1.31612903225806,1.31290322580645,1.30322580645161,1.30322580645161,1.30322580645161,1.30645161290323,1.30645161290323,1.30322580645161,1.30645161290323,1.30967741935484,1.31290322580645,1.32903225806452,1.33870967741935,1.36129032258065,1.38064516129032,1.40645161290323,1.42258064516129,1.44516129032258,1.4741935483871,1.5,1.53225806451613,1.56774193548387,1.59354838709677,1.61935483870968,1.61935483870968,1.61612903225806,1.56774193548387,1.51612903225806,1.46129032258065,1.39677419354839,1.35483870967742,1.31290322580645,1.29354838709677,1.27741935483871,1.26451612903226,1.26451612903226,1.26129032258065,1.26129032258065
1.50322580645161,1.54193548387097,1.58064516129032,1.61612903225806,1.65161290322581,1.68709677419355,1.69354838709677,1.69677419354839,1.66451612903226,1.62258064516129,1.57096774193548,1.51290322580645,1.46451612903226,1.43225806451613,1.41290322580645,1.39354838709677,1.39032258064516,1.38387096774194,1.38064516129032,1.36451612903226,1.36129032258065,1.34838709677419,1.34193548387097,1.33870967741935,1.32903225806452,1.3258064516129,1.3258064516129,1.3258064516129,1.3258064516129,1.32258064516129,1.3258064516129,1.3258064516129,1.32258064516129,1.31935483870968,1.33870967741935,1.32903225806452,1.32903225806452,1.32258064516129,1.32258064516129,1.32903225806452,1.3258064516129,1.3258064516129,1.31935483870968,1.31935483870968,1.32258064516129,1.33225806451613,1.32903225806452,1.3258064516129,1.33870967741935,1.34516129032258,1.35161290322581,1.35483870967742,1.35806451612903,1.35806451612903,1.36129032258065,1.35806451612903,1.36129032258065,1.36129032258065,1.37096774193548,1.36451612903226,1.36129032258065,1.36129032258065,1.35161290322581,1.34838709677419,1.34838709677419,1.34193548387097,1.34193548387097,1.34193548387097,1.3258064516129,1.3258064516129,1.31612903225806,1.3258064516129,1.31612903225806,1.31935483870968,1.31612903225806,1.31612903225806,1.31935483870968,1.31935483870968,1.31935483870968,1.31290322580645,1.30967741935484,1.30645161290323,1.30322580645161,1.30967741935484,1.31935483870968,1.32903225806452,1.33225806451613,1.32903225806452,1.35483870967742,1.35483870967742,1.34838709677419,1.36451612903226,1.36129032258065,1.33225806451613,1.31612903225806,1.31290322580645,1.31290322580645,1.30645161290323,1.30322580645161,1.3,1.3,1.30967741935484,1.31935483870968,1.31935483870968,1.31935483870968,1.26129032258065,1.28709677419355,1.42258064516129,1.8,2.15806451612903,2.15161290322581,1.89354838709677,1.60645161290323,1.49032258064516,1.43870967741935,1.40967741935484,1.38709677419355,1.38064516129032,1.3741935483871,1.37741935483871,1.3741935483871,1.37741935483871,1.38064516129032,1.38064516129032,1.38064516129032,1.38064516129032,1.37741935483871,1.39032258064516,1.40322580645161,1.40322580645161,1.40967741935484,1.41612903225806,1.41935483870968,1.43225806451613,1.45483870967742,1.46774193548387,1.48064516129032,1.5,1.53225806451613,1.55483870967742,1.58709677419355,1.61935483870968,1.64516129032258,1.67096774193548,1.69032258064516,1.70967741935484,1.68064516129032,1.64193548387097,1.59032258064516,1.52903225806452,1.46451612903226,1.41935483870968,1.38709677419355,1.3741935483871,1.3741935483871,1.36451612903226,1.35483870967742,1.35161290322581,1.35161290322581,1.35161290322581,1.35161290322581,1.34838709677419,1.34516129032258,1.35483870967742,1.35161290322581,1.35161290322581,1.34838709677419,1.35483870967742,1.35161290322581,1.35483870967742,1.35161290322581,1.35161290322581,1.34516129032258,1.34516129032258,1.34193548387097,1.34516129032258,1.34516129032258,1.34516129032258,1.34193548387097,1.34838709677419,1.36129032258065,1.34838709677419,1.34838709677419,1.34838709677419,1.34516129032258,1.33870967741935,1.34193548387097,1.3258064516129,1.32903225806452,1.32258064516129,1.32258064516129,1.31612903225806,1.32258064516129,1.32903225806452,1.32903225806452,1.34193548387097,1.33870967741935,1.33548387096774,1.34193548387097,1.34193548387097,1.34193548387097,1.34838709677419,1.34193548387097,1.34838709677419,1.35483870967742,1.35806451612903,1.37096774193548,1.37096774193548,1.38387096774194,1.39032258064516,1.38709677419355,1.38387096774194,1.37741935483871,1.36774193548387,1.37096774193548,1.36774193548387,1.36129032258065,1.37096774193548,1.3741935483871,1.36774193548387,1.3741935483871,1.3741935483871,1.38387096774194,1.38709677419355,1.4,1.42258064516129,1.4,1.41290322580645,1.42258064516129,1.40645161290323,1.38709677419355,1.3741935483871,1.37096774193548,1.37096774193548,1.36774193548387,1.36129032258065,1.35483870967742,1.35483870967742,1.35483870967742,1.35161290322581,1.35161290322581,1.31935483870968,1.27096774193548,1.32903225806452,1.54516129032258,1.96451612903226,2.1258064516129,1.94193548387097,1.64838709677419,1.46129032258065,1.40967741935484,1.38064516129032,1.37096774193548,1.36774193548387,1.36451612903226,1.35161290322581,1.35483870967742,1.36774193548387,1.3741935483871,1.37741935483871,1.37096774193548,1.36451612903226,1.3741935483871,1.36774193548387,1.36129032258065,1.36774193548387,1.36129032258065,1.38709677419355,1.4,1.39677419354839,1.40967741935484,1.41290322580645,1.44193548387097,1.44838709677419,1.4741935483871,1.50645161290323,1.53225806451613,1.5741935483871,1.59354838709677,1.64193548387097,1.66774193548387,1.68387096774194,1.67096774193548,1.64838709677419,1.59354838709677,1.53225806451613,1.48709677419355,1.43225806451613,1.40322580645161,1.39354838709677,1.38064516129032,1.37096774193548,1.3741935483871,1.3741935483871,1.38064516129032,1.3741935483871,1.3741935483871,1.38064516129032,1.37096774193548,1.37096774193548,1.37096774193548,1.36451612903226,1.36129032258065,1.35806451612903,1.35483870967742,1.34516129032258,1.35161290322581,1.35161290322581,1.34193548387097,1.34838709677419,1.34838709677419,1.34193548387097,1.34838709677419,1.35161290322581,1.34193548387097,1.34516129032258,1.33870967741935,1.32903225806452,1.33225806451613,1.33548387096774,1.33225806451613,1.33870967741935,1.34838709677419,1.33548387096774,1.34193548387097,1.35161290322581,1.33225806451613,1.34516129032258,1.34193548387097,1.34516129032258,1.34838709677419,1.34838709677419,1.34516129032258,1.33870967741935,1.33870967741935,1.33548387096774,1.34838709677419,1.34838709677419,1.32903225806452,1.33548387096774,1.33225806451613,1.32258064516129,1.34193548387097,1.32258064516129,1.33225806451613,1.3258064516129,1.32258064516129,1.31290322580645,1.31612903225806,1.31612903225806,1.31612903225806,1.31290322580645,1.32258064516129,1.3258064516129,1.32258064516129,1.33870967741935,1.36774193548387,1.33548387096774,1.34838709677419,1.34838709677419,1.32258064516129,1.31290322580645,1.29354838709677,1.28064516129032,1.27096774193548,1.27096774193548,1.26129032258065,1.27096774193548,1.27096774193548,1.28064516129032,1.28064516129032,1.28709677419355,1.24516129032258,1.22258064516129,1.30967741935484,1.55483870967742,1.95161290322581,2.05806451612903,1.89032258064516,1.61290322580645,1.45483870967742,1.39354838709677,1.38387096774194,1.36451612903226,1.34516129032258,1.34838709677419,1.34838709677419,1.35483870967742,1.35483870967742,1.36129032258065,1.36774193548387,1.38064516129032,1.37741935483871,1.38709677419355,1.39354838709677,1.39354838709677,1.39677419354839,1.4,1.40645161290323,1.42258064516129,1.43548387096774,1.44193548387097,1.45806451612903,1.46451612903226,1.48709677419355,1.51290322580645,1.54193548387097,1.56774193548387,1.60645161290323,1.64193548387097,1.67096774193548,1.70322580645161,1.70645161290323,1.7,1.67096774193548,1.6258064516129,1.56774193548387,1.50645161290323,1.45806451612903,1.42903225806452,1.41290322580645,1.41290322580645,1.41290322580645,1.40322580645161,1.39677419354839,1.38709677419355,1.37741935483871,1.37096774193548,1.36129032258065,1.36451612903226,1.36451612903226,1.36129032258065,1.36129032258065,1.36451612903226,1.37096774193548,1.36774193548387,1.36451612903226,1.36129032258065,1.35483870967742,1.36451612903226,1.37096774193548,1.3741935483871,1.38387096774194,1.38064516129032,1.39354838709677,1.39677419354839,1.4,1.40967741935484,1.40645161290323,1.40645161290323,1.39032258064516,1.39677419354839,1.39677419354839,1.39677419354839,1.39677419354839,1.40322580645161,1.4,1.39677419354839,1.39677419354839,1.4,1.39354838709677,1.39354838709677,1.4,1.40322580645161,1.39354838709677,1.4,1.39354838709677,1.39677419354839,1.39677419354839,1.38709677419355,1.39032258064516,1.38709677419355,1.3741935483871,1.37096774193548,1.35806451612903,1.35806451612903,1.35483870967742,1.35806451612903,1.36129032258065,1.35161290322581,1.34838709677419,1.35806451612903,1.35483870967742,1.34516129032258,1.34838709677419,1.35806451612903,1.36774193548387,1.36774193548387,1.38064516129032,1.38387096774194,1.37096774193548,1.36451612903226,1.37741935483871,1.36129032258065,1.34193548387097,1.31935483870968,1.30645161290323,1.29677419354839,1.30967741935484,1.30967741935484,1.31290322580645,1.30322580645161,1.29677419354839,1.29032258064516,1.29354838709677,1.2741935483871,1.21612903225806,1.26129032258065,1.46451612903226,1.87096774193548,2.08064516129032,2.00322580645161,1.72903225806452,1.49354838709677,1.39354838709677,1.37741935483871,1.34838709677419,1.33870967741935,1.33548387096774,1.33225806451613,1.3258064516129,1.31612903225806,1.3258064516129,1.31935483870968,1.33548387096774,1.33870967741935,1.34838709677419,1.35806451612903,1.35161290322581,1.35483870967742,1.37096774193548,1.37741935483871,1.38709677419355,1.39354838709677,1.40967741935484,1.41290322580645,1.4258064516129,1.43548387096774,1.44193548387097,1.47096774193548,1.49032258064516,1.5258064516129,1.55806451612903,1.58709677419355,1.60967741935484,1.63225806451613,1.6258064516129,1.60322580645161,1.57096774193548,1.52258064516129,1.46451612903226,1.41935483870968,1.37741935483871,1.35161290322581,1.32903225806452,1.30645161290323,1.32258064516129,1.32903225806452,1.33225806451613,1.33548387096774,1.33225806451613,1.3258064516129,1.32258064516129,1.31290322580645,1.31935483870968,1.32258064516129,1.31935483870968,1.31935483870968,1.31290322580645,1.31612903225806,1.30967741935484,1.30967741935484,1.31612903225806,1.31612903225806,1.32903225806452,1.33548387096774,1.32903225806452,1.34516129032258,1.34193548387097,1.34516129032258,1.34838709677419,1.35161290322581,1.34838709677419,1.35161290322581,1.34516129032258,1.35483870967742,1.35806451612903,1.35483870967742,1.34838709677419,1.36129032258065,1.35806451612903,1.36129032258065,1.36451612903226,1.3741935483871,1.38064516129032,1.37741935483871,1.3741935483871,1.38064516129032,1.38064516129032,1.37741935483871,1.37741935483871,1.3741935483871,1.3741935483871,1.38064516129032,1.38387096774194,1.39032258064516,1.39677419354839,1.39677419354839,1.40322580645161,1.40322580645161,1.41612903225806,1.41612903225806,1.41290322580645,1.40967741935484,1.40322580645161,1.41612903225806,1.41290322580645,1.40967741935484,1.41935483870968,1.43225806451613,1.44838709677419,1.44838709677419,1.45483870967742,1.46451612903226,1.49354838709677,1.48387096774194,1.47096774193548,1.46774193548387,1.44516129032258,1.4258064516129,1.4,1.39677419354839,1.38709677419355,1.38064516129032,1.36774193548387,1.35806451612903,1.34838709677419,1.34838709677419,1.34516129032258,1.34193548387097,1.3258064516129,1.26129032258065,1.30967741935484,1.50967741935484,1.9258064516129,2.15806451612903,2.07096774193548,1.78064516129032,1.52258064516129,1.4258064516129,1.40645161290323,1.38064516129032,1.37096774193548,1.35806451612903,1.34838709677419,1.34193548387097,1.35161290322581,1.34838709677419,1.34516129032258,1.33225806451613,1.33870967741935,1.33870967741935,1.33870967741935,1.35161290322581,1.35161290322581,1.36129032258065,1.36774193548387,1.38387096774194,1.39677419354839,1.40322580645161,1.41290322580645,1.42258064516129,1.43870967741935,1.45806451612903,1.48709677419355,1.50322580645161,1.52903225806452,1.56129032258065,1.59677419354839,1.61935483870968,1.64193548387097,1.63548387096774,1.62258064516129,1.57096774193548,1.51290322580645,1.45806451612903,1.41612903225806,1.37096774193548,1.33548387096774,1.30967741935484,1.31612903225806,1.31290322580645,1.30322580645161,1.29677419354839,1.29677419354839,1.30967741935484,1.31290322580645,1.31290322580645,1.31612903225806,1.31935483870968,1.3258064516129,1.32903225806452,1.3258064516129,1.31935483870968,1.31612903225806,1.3,1.3,1.30967741935484,1.3,1.30645161290323,1.30967741935484,1.31612903225806,1.31935483870968,1.31935483870968,1.31935483870968,1.31935483870968,1.31935483870968,1.31935483870968,1.3258064516129,1.32258064516129,1.32258064516129,1.3258064516129,1.33548387096774,1.33870967741935,1.32903225806452,1.33225806451613,1.33548387096774,1.33225806451613,1.33225806451613,1.33225806451613,1.34516129032258,1.33548387096774,1.33548387096774,1.33225806451613,1.3258064516129,1.33870967741935,1.34193548387097,1.33870967741935,1.34193548387097,1.35806451612903,1.35806451612903,1.36129032258065,1.3741935483871,1.37096774193548,1.37741935483871,1.38064516129032,1.37096774193548,1.3741935483871,1.37741935483871,1.3741935483871,1.37741935483871,1.37741935483871,1.36774193548387,1.3741935483871,1.38709677419355,1.39032258064516,1.4,1.40645161290323,1.44193548387097,1.43870967741935,1.43225806451613,1.44193548387097,1.43870967741935,1.42258064516129,1.40967741935484,1.39032258064516,1.38709677419355,1.38387096774194,1.36451612903226,1.35806451612903,1.34838709677419,1.34193548387097,1.35161290322581,1.35483870967742,1.35161290322581,1.27741935483871,1.28709677419355,1.41290322580645,1.75806451612903,2.10322580645161,2.08064516129032,1.81290322580645,1.54838709677419,1.4258064516129,1.40322580645161,1.38709677419355,1.38064516129032,1.37096774193548,1.36774193548387,1.36774193548387,1.3741935483871,1.39032258064516,1.39677419354839,1.39677419354839,1.40322580645161,1.40645161290323,1.41935483870968,1.42903225806452,1.41612903225806,1.41612903225806,1.4258064516129,1.43225806451613,1.42903225806452,1.44838709677419,1.44193548387097,1.45806451612903,1.46774193548387,1.49032258064516,1.5258064516129,1.53870967741935,1.57741935483871,1.6,1.64193548387097,1.66774193548387,1.68064516129032,1.68709677419355,1.67096774193548,1.64193548387097,1.59032258064516,1.5258064516129,1.45806451612903,1.42258064516129,1.39354838709677,1.38064516129032,1.36774193548387,1.36451612903226,1.36774193548387,1.35806451612903,1.36129032258065,1.36774193548387,1.35483870967742,1.34838709677419,1.34516129032258,1.33225806451613,1.33870967741935,1.34193548387097,1.34516129032258,1.34838709677419,1.34516129032258,1.34193548387097,1.33870967741935,1.33870967741935,1.33548387096774,1.34193548387097,1.33548387096774,1.33548387096774,1.3258064516129,1.3258064516129,1.3258064516129,1.32903225806452,1.3258064516129,1.33548387096774,1.33548387096774,1.34516129032258,1.34193548387097,1.33870967741935,1.33870967741935,1.32903225806452,1.3258064516129,1.32258064516129,1.3258064516129,1.31290322580645,1.30967741935484,1.31290322580645,1.30645161290323,1.30322580645161,1.30645161290323,1.30967741935484,1.31612903225806,1.30967741935484,1.3,1.30322580645161,1.3,1.29354838709677,1.29354838709677,1.29354838709677,1.29677419354839,1.30645161290323,1.30645161290323,1.30967741935484,1.31290322580645,1.31935483870968,1.30645161290323,1.31612903225806,1.31612903225806,1.30967741935484,1.34193548387097,1.33548387096774,1.35161290322581,1.3741935483871,1.36129032258065,1.36451612903226,1.36451612903226,1.35161290322581,1.33548387096774,1.33548387096774,1.33870967741935,1.33548387096774,1.34193548387097,1.34838709677419,1.34516129032258,1.36129032258065,1.36129032258065,1.36451612903226,1.36451612903226,1.34516129032258,1.30322580645161,1.35483870967742,1.56129032258065,1.95806451612903,2.11935483870968,1.95806451612903,1.66451612903226,1.48387096774194,1.43225806451613,1.40967741935484,1.4,1.38709677419355,1.38387096774194,1.39677419354839,1.39032258064516,1.39677419354839,1.40645161290323,1.40645161290323,1.4,1.41612903225806,1.42258064516129,1.43870967741935,1.42258064516129,1.42258064516129,1.42903225806452,1.43548387096774,1.44838709677419,1.45161290322581,1.49354838709677,1.5,1.50967741935484,1.53225806451613,1.56774193548387,1.59032258064516,1.60645161290323,1.63548387096774,1.65483870967742,1.69032258064516,1.69677419354839,1.70645161290323,1.69354838709677,1.66129032258065,1.60645161290323,1.54516129032258,1.48709677419355,1.44193548387097,1.39677419354839,1.38709677419355,1.36774193548387,1.37096774193548,1.34838709677419,1.34838709677419,1.34838709677419,1.34838709677419,1.33548387096774,1.34516129032258,1.33548387096774,1.33225806451613,1.35161290322581,1.34838709677419,1.34838709677419,1.33548387096774,1.34193548387097,1.33548387096774,1.33548387096774,1.31935483870968,1.32903225806452,1.33225806451613,1.32258064516129,1.3258064516129,1.32903225806452,1.3258064516129,1.31290322580645,1.30322580645161,1.3,1.30645161290323,1.3,1.3,1.28709677419355,1.28387096774194,1.27741935483871,1.28387096774194,1.27741935483871,1.27741935483871,1.27741935483871,1.26774193548387,1.26774193548387,1.28064516129032,1.28387096774194,1.28064516129032,1.29032258064516,1.28387096774194,1.28387096774194,1.27741935483871,1.27741935483871,1.27096774193548,1.26129032258065,1.27096774193548,1.27096774193548,1.27096774193548,1.26774193548387,1.2741935483871,1.27741935483871,1.28387096774194,1.29677419354839,1.3,1.3,1.31612903225806,1.32903225806452,1.32903225806452,1.33870967741935,1.3741935483871,1.35483870967742,1.36451612903226,1.35161290322581,1.35161290322581,1.34516129032258,1.3258064516129,1.31935483870968,1.3258064516129,1.31290322580645,1.31935483870968,1.32903225806452,1.33548387096774,1.33548387096774,1.34838709677419,1.35161290322581,1.32903225806452,1.28064516129032,1.32903225806452,1.53870967741935,1.92903225806452,2.1258064516129,1.99677419354839,1.73225806451613,1.53225806451613,1.45483870967742,1.43870967741935,1.42903225806452,1.41612903225806,1.41290322580645,1.40967741935484,1.41290322580645,1.41935483870968,1.42258064516129,1.42903225806452,1.42903225806452,1.42258064516129,1.42903225806452,1.43870967741935,1.43548387096774,1.43870967741935,1.43870967741935,1.44838709677419,1.45806451612903,1.46451612903226,1.47096774193548,1.48387096774194,1.49032258064516,1.51612903225806,1.53870967741935,1.54838709677419,1.57096774193548,1.60322580645161,1.64193548387097,1.66451612903226,1.69354838709677,1.71935483870968,1.72903225806452,1.69032258064516,1.65806451612903,1.61290322580645,1.55806451612903,1.51612903225806,1.48709677419355,1.46129032258065,1.44193548387097,1.43548387096774,1.42903225806452,1.4258064516129,1.42903225806452,1.41935483870968,1.41935483870968,1.41290322580645,1.41290322580645,1.40967741935484,1.4,1.40645161290323,1.41935483870968,1.40967741935484,1.40322580645161,1.39032258064516,1.39354838709677,1.38387096774194,1.3741935483871,1.38387096774194,1.38064516129032,1.39354838709677,1.38709677419355,1.39354838709677,1.37741935483871,1.38387096774194,1.37741935483871,1.3741935483871,1.3741935483871,1.36129032258065,1.35483870967742,1.33548387096774,1.33870967741935,1.3258064516129,1.31290322580645,1.31612903225806,1.30967741935484,1.29354838709677,1.29032258064516,1.29677419354839,1.27741935483871,1.28064516129032,1.28387096774194,1.28064516129032,1.27741935483871,1.27741935483871,1.27741935483871,1.27741935483871,1.27741935483871,1.28064516129032,1.29677419354839,1.29354838709677,1.28387096774194,1.29032258064516,1.2741935483871,1.28064516129032,1.2741935483871,1.26774193548387,1.26774193548387,1.26774193548387,1.26129032258065,1.26774193548387,1.27096774193548,1.2741935483871,1.28709677419355,1.30967741935484,1.30645161290323,1.3258064516129,1.36451612903226,1.33870967741935,1.35161290322581,1.36129032258065,1.33870967741935,1.32903225806452,1.31612903225806,1.32258064516129,1.3258064516129,1.31935483870968,1.3258064516129,1.31290322580645,1.31612903225806,1.29677419354839,1.28709677419355,1.29032258064516,1.27096774193548,1.2258064516129,1.2741935483871,1.48064516129032,1.9,2.11935483870968,2.01612903225806,1.75483870967742,1.52903225806452,1.43225806451613,1.41935483870968,1.4,1.39354838709677,1.39032258064516,1.38387096774194,1.38064516129032,1.38709677419355,1.39032258064516,1.38709677419355,1.39032258064516,1.39354838709677,1.38709677419355,1.38709677419355,1.39032258064516,1.39354838709677,1.38709677419355,1.4,1.39032258064516,1.40322580645161,1.40645161290323,1.41935483870968,1.42903225806452,1.45161290322581,1.4741935483871,1.49677419354839,1.52258064516129,1.55806451612903,1.56774193548387,1.59677419354839,1.63548387096774,1.64516129032258,1.64838709677419,1.6258064516129,1.58387096774194,1.53548387096774,1.46774193548387,1.42258064516129,1.37741935483871,1.35806451612903,1.34838709677419,1.33870967741935,1.33548387096774,1.32258064516129,1.33548387096774,1.33225806451613,1.33870967741935,1.32903225806452,1.32903225806452,1.33548387096774,1.33870967741935,1.34193548387097,1.34516129032258,1.34193548387097,1.35161290322581,1.35806451612903,1.38387096774194,1.37741935483871,1.37096774193548,1.3741935483871,1.36451612903226,1.38064516129032,1.38064516129032,1.37741935483871,1.37096774193548,1.38064516129032,1.38387096774194,1.39677419354839,1.4,1.40967741935484,1.40322580645161,1.40322580645161,1.39677419354839,1.38064516129032,1.39677419354839
1.33870967741935,1.32258064516129,1.31935483870968,1.31935483870968,1.32258064516129,1.31612903225806,1.31612903225806,1.3258064516129,1.32903225806452,1.3258064516129,1.33225806451613,1.3258064516129,1.31612903225806,1.30967741935484,1.3,1.29677419354839,1.30322580645161,1.28709677419355,1.29032258064516,1.28709677419355,1.29354838709677,1.30645161290323,1.30967741935484,1.30645161290323,1.30322580645161,1.31935483870968,1.32258064516129,1.33225806451613,1.3258064516129,1.32258064516129,1.33870967741935,1.34193548387097,1.34516129032258,1.35806451612903,1.36451612903226,1.35806451612903,1.35483870967742,1.35483870967742,1.35161290322581,1.36129032258065,1.34838709677419,1.34516129032258,1.34516129032258,1.33870967741935,1.34516129032258,1.35161290322581,1.36129032258065,1.36451612903226,1.39677419354839,1.42258064516129,1.41612903225806,1.40645161290323,1.40967741935484,1.39032258064516,1.4,1.38064516129032,1.37096774193548,1.37096774193548,1.37741935483871,1.36774193548387,1.36774193548387,1.36129032258065,1.36774193548387,1.36774193548387,1.36451612903226,1.35483870967742,1.31612903225806,1.36451612903226,1.58387096774194,1.97096774193548,2.14838709677419,1.99354838709677,1.71935483870968,1.53225806451613,1.47096774193548,1.45161290322581,1.44193548387097,1.45483870967742,1.44516129032258,1.43870967741935,1.43225806451613,1.44838709677419,1.44838709677419,1.44193548387097,1.44838709677419,1.44193548387097,1.44193548387097,1.44516129032258,1.44193548387097,1.44838709677419,1.45161290322581,1.45161290322581,1.45483870967742,1.46129032258065,1.47096774193548,1.48387096774194,1.49677419354839,1.50322580645161,1.51612903225806,1.5258064516129,1.54838709677419,1.58387096774194,1.61290322580645,1.63548387096774,1.65483870967742,1.66451612903226,1.66451612903226,1.64193548387097,1.58387096774194,1.52903225806452,1.47096774193548,1.42258064516129,1.39677419354839,1.38387096774194,1.35483870967742,1.35483870967742,1.34516129032258,1.32903225806452,1.32903225806452,1.31612903225806,1.31612903225806,1.31290322580645,1.31935483870968,1.31935483870968,1.32258064516129,1.31935483870968,1.32258064516129,1.32903225806452,1.33225806451613,1.34516129032258,1.34193548387097,1.34193548387097,1.34838709677419,1.34193548387097,1.34193548387097,1.34516129032258,1.32903225806452,1.34516129032258,1.34516129032258,1.34838709677419,1.34838709677419,1.34838709677419,1.34838709677419,1.34193548387097,1.33870967741935,1.32903225806452,1.33225806451613,1.3258064516129,1.33548387096774,1.33225806451613,1.33548387096774,1.34193548387097,1.33548387096774,1.33548387096774,1.32903225806452,1.33870967741935,1.33548387096774,1.33870967741935,1.34838709677419,1.34838709677419,1.33870967741935,1.34193548387097,1.34516129032258,1.34516129032258,1.34193548387097,1.33225806451613,1.33870967741935,1.34193548387097,1.33225806451613,1.33225806451613,1.32903225806452,1.32903225806452,1.32903225806452,1.33870967741935,1.34516129032258,1.35161290322581,1.38387096774194,1.37741935483871,1.36451612903226,1.35161290322581,1.34838709677419,1.32258064516129,1.3,1.28387096774194,1.28387096774194,1.27741935483871,1.27741935483871,1.2741935483871,1.27096774193548,1.27741935483871,1.28064516129032,1.28387096774194,1.27741935483871,1.21612903225806,1.2258064516129,1.35161290322581,1.68064516129032,1.99677419354839,1.99032258064516,1.76451612903226,1.52258064516129,1.4,1.35483870967742,1.35161290322581,1.32903225806452,1.32258064516129,1.31935483870968,1.32258064516129,1.31612903225806,1.32903225806452,1.33548387096774,1.33870967741935,1.34516129032258,1.35483870967742,1.36129032258065,1.3741935483871,1.38387096774194,1.39677419354839,1.38709677419355,1.39354838709677,1.40645161290323,1.40967741935484,1.42258064516129,1.44193548387097,1.44838709677419,1.46774193548387,1.48709677419355,1.52258064516129,1.54193548387097,1.5741935483871,1.59677419354839,1.6258064516129,1.64193548387097,1.64838709677419,1.63870967741935,1.60645161290323,1.56451612903226,1.49677419354839,1.45806451612903,1.42258064516129,1.4,1.39032258064516,1.38709677419355,1.38387096774194,1.38064516129032,1.38064516129032,1.38387096774194,1.38064516129032,1.39032258064516,1.38064516129032,1.39354838709677,1.40645161290323,1.40322580645161,1.39677419354839,1.4,1.39354838709677,1.40645161290323,1.40645161290323,1.40645161290323,1.41290322580645,1.40322580645161,1.4,1.39032258064516,1.4,1.39677419354839,1.40322580645161,1.39032258064516,1.40967741935484,1.40645161290323,1.4,1.39677419354839,1.39677419354839,1.39354838709677,1.38387096774194,1.38387096774194,1.38064516129032,1.3741935483871,1.37096774193548,1.37741935483871,1.37741935483871,1.38387096774194,1.37741935483871,1.38709677419355,1.38709677419355,1.38064516129032,1.36451612903226,1.36774193548387,1.36451612903226,1.36129032258065,1.35806451612903,1.34838709677419,1.35483870967742,1.36451612903226,1.36451612903226,1.35806451612903,1.35806451612903,1.35806451612903,1.34838709677419,1.34516129032258,1.34516129032258,1.33870967741935,1.34516129032258,1.34193548387097,1.36129032258065,1.37741935483871,1.37741935483871,1.38709677419355,1.38387096774194,1.39677419354839,1.41290322580645,1.39354838709677,1.4,1.40645161290323,1.38064516129032,1.3741935483871,1.35483870967742,1.35161290322581,1.35161290322581,1.35483870967742,1.36451612903226,1.36129032258065,1.34838709677419,1.35483870967742,1.35161290322581,1.34193548387097,1.28709677419355,1.2741935483871,1.3741935483871,1.66129032258065,2.06129032258065,2.10322580645161,1.90322580645161,1.64193548387097,1.47741935483871,1.41290322580645,1.39032258064516,1.36451612903226,1.35806451612903,1.35806451612903,1.36129032258065,1.36774193548387,1.36774193548387,1.35161290322581,1.36129032258065,1.35806451612903,1.35806451612903,1.35161290322581,1.35161290322581,1.34516129032258,1.35483870967742,1.35806451612903,1.36451612903226,1.36451612903226,1.37741935483871,1.39677419354839,1.39677419354839,1.42258064516129,1.44516129032258,1.47741935483871,1.5,1.53225806451613,1.55483870967742,1.59032258064516,1.60967741935484,1.62903225806452,1.63870967741935,1.61935483870968,1.59354838709677,1.54193548387097,1.5,1.43870967741935,1.39354838709677,1.36451612903226,1.34516129032258,1.32903225806452,1.32258064516129,1.31290322580645,1.30645161290323,1.30645161290323,1.30645161290323,1.30645161290323,1.29677419354839,1.29032258064516,1.29354838709677,1.3,1.28387096774194,1.29032258064516,1.29677419354839,1.30645161290323,1.30967741935484,1.32258064516129,1.33548387096774,1.33225806451613,1.33870967741935,1.32903225806452,1.32903225806452,1.33225806451613,1.34193548387097,1.34838709677419,1.34516129032258,1.34193548387097,1.35161290322581,1.35161290322581,1.33870967741935,1.34193548387097,1.35483870967742,1.35806451612903,1.36774193548387,1.35806451612903,1.35483870967742,1.35483870967742,1.36129032258065,1.35806451612903,1.36129032258065,1.36129032258065,1.36129032258065,1.36451612903226,1.37096774193548,1.3741935483871,1.36451612903226,1.35806451612903,1.35806451612903,1.36129032258065,1.3741935483871,1.37741935483871,1.38387096774194,1.38709677419355,1.37741935483871,1.39032258064516,1.3741935483871,1.38387096774194,1.38387096774194,1.3741935483871,1.38064516129032,1.3741935483871,1.38387096774194,1.3741935483871,1.36451612903226,1.3741935483871,1.37741935483871,1.37096774193548,1.3741935483871,1.39354838709677,1.38387096774194,1.4,1.42903225806452,1.41612903225806,1.41612903225806,1.41935483870968,1.39354838709677,1.3741935483871,1.34193548387097,1.33870967741935,1.34838709677419,1.34516129032258,1.34193548387097,1.33870967741935,1.32258064516129,1.31935483870968,1.31612903225806,1.31935483870968,1.29677419354839,1.23870967741935,1.28064516129032,1.5,1.91612903225806,2.13870967741935,2.02903225806452,1.74838709677419,1.52258064516129,1.42903225806452,1.41290322580645,1.39354838709677,1.38387096774194,1.36451612903226,1.36774193548387,1.36451612903226,1.36129032258065,1.36774193548387,1.36451612903226,1.37096774193548,1.36774193548387,1.38064516129032,1.37741935483871,1.38387096774194,1.38709677419355,1.39354838709677,1.39354838709677,1.40322580645161,1.40967741935484,1.42258064516129,1.42903225806452,1.45161290322581,1.45483870967742,1.48709677419355,1.50967741935484,1.53870967741935,1.58387096774194,1.61290322580645,1.64516129032258,1.67096774193548,1.68387096774194,1.69354838709677,1.67741935483871,1.61935483870968,1.56774193548387,1.50967741935484,1.45483870967742,1.42258064516129,1.39354838709677,1.38709677419355,1.38387096774194,1.3741935483871,1.36451612903226,1.35806451612903,1.36774193548387,1.35483870967742,1.35161290322581,1.35161290322581,1.35161290322581,1.34838709677419,1.34193548387097,1.33870967741935,1.33870967741935,1.33870967741935,1.34193548387097,1.34838709677419,1.34516129032258,1.34516129032258,1.34193548387097,1.33225806451613,1.32903225806452,1.33870967741935,1.32903225806452,1.32258064516129,1.3258064516129,1.32258064516129,1.32258064516129,1.31935483870968,1.3258064516129,1.33548387096774,1.33225806451613,1.34193548387097,1.33548387096774,1.33548387096774,1.33548387096774,1.33870967741935,1.33225806451613,1.32258064516129,1.32258064516129,1.31935483870968,1.3258064516129,1.32258064516129,1.3258064516129,1.31935483870968,1.3258064516129,1.32903225806452,1.33870967741935,1.34193548387097,1.34516129032258,1.34193548387097,1.35161290322581,1.35161290322581,1.35161290322581,1.36451612903226,1.36451612903226,1.36129032258065,1.35483870967742,1.35483870967742,1.36129032258065,1.36129032258065,1.36451612903226,1.36129032258065,1.37096774193548,1.3741935483871,1.38709677419355,1.38709677419355,1.39677419354839,1.43225806451613,1.41935483870968,1.41290322580645,1.40967741935484,1.41290322580645,1.39677419354839,1.37741935483871,1.36451612903226,1.35161290322581,1.35483870967742,1.34193548387097,1.33225806451613,1.33548387096774,1.32258064516129,1.33225806451613,1.32903225806452,1.31935483870968,1.26129032258065,1.29354838709677,1.45483870967742,1.85161290322581,2.15806451612903,2.08387096774194,1.78709677419355,1.51290322580645,1.42258064516129,1.38709677419355,1.38064516129032,1.35806451612903,1.34516129032258,1.34193548387097,1.34193548387097,1.34516129032258,1.33548387096774,1.33548387096774,1.34193548387097,1.34516129032258,1.33548387096774,1.35161290322581,1.35161290322581,1.36129032258065,1.36774193548387,1.3741935483871,1.38064516129032,1.38709677419355,1.40322580645161,1.41612903225806,1.42903225806452,1.45483870967742,1.4741935483871,1.5,1.54838709677419,1.5741935483871,1.61290322580645,1.64193548387097,1.66129032258065,1.68064516129032,1.68387096774194,1.67741935483871,1.63225806451613,1.5741935483871,1.51612903225806,1.4741935483871,1.41935483870968,1.4,1.37741935483871,1.3741935483871,1.38064516129032,1.36451612903226,1.36129032258065,1.36451612903226,1.36451612903226,1.36451612903226,1.36129032258065,1.35806451612903,1.35806451612903,1.36451612903226,1.35806451612903,1.35806451612903,1.36451612903226,1.36451612903226,1.35483870967742,1.36129032258065,1.35806451612903,1.35483870967742,1.34516129032258,1.34193548387097,1.34193548387097,1.34193548387097,1.3258064516129,1.33548387096774,1.33225806451613,1.3258064516129,1.3258064516129,1.32903225806452,1.3258064516129,1.33225806451613,1.3258064516129,1.32903225806452,1.32258064516129,1.3258064516129,1.3258064516129,1.32903225806452,1.32903225806452,1.32903225806452,1.33225806451613,1.32903225806452,1.3258064516129,1.31935483870968,1.3258064516129,1.3258064516129,1.31935483870968,1.31612903225806,1.30967741935484,1.30322580645161,1.3,1.30645161290323,1.31290322580645,1.30322580645161,1.30967741935484,1.31290322580645,1.31612903225806,1.30967741935484,1.31935483870968,1.33225806451613,1.35483870967742,1.35806451612903,1.37096774193548,1.40322580645161,1.4,1.39354838709677,1.39354838709677,1.38064516129032,1.38064516129032,1.36129032258065,1.36129032258065,1.36129032258065,1.35161290322581,1.35161290322581,1.34516129032258,1.34193548387097,1.33870967741935,1.33870967741935,1.33870967741935,1.31290322580645,1.26451612903226,1.32258064516129,1.53870967741935,1.93870967741935,2.11612903225806,1.94838709677419,1.66451612903226,1.4741935483871,1.40967741935484,1.4,1.37741935483871,1.36129032258065,1.35483870967742,1.35806451612903,1.35806451612903,1.36129032258065,1.36129032258065,1.35806451612903,1.35483870967742,1.35483870967742,1.36451612903226,1.37096774193548,1.38387096774194,1.39032258064516,1.39677419354839,1.4,1.40645161290323,1.41935483870968,1.43548387096774,1.45161290322581,1.46451612903226,1.47741935483871,1.5,1.52258064516129,1.55161290322581,1.59677419354839,1.63225806451613,1.65806451612903,1.68709677419355,1.69677419354839,1.69677419354839,1.67096774193548,1.61935483870968,1.56451612903226,1.50967741935484,1.45806451612903,1.4258064516129,1.4,1.39032258064516,1.39032258064516,1.37741935483871,1.36451612903226,1.36129032258065,1.36129032258065,1.35806451612903,1.35483870967742,1.36129032258065,1.36774193548387,1.37096774193548,1.3741935483871,1.3741935483871,1.3741935483871,1.36774193548387,1.37741935483871,1.38064516129032,1.3741935483871,1.38064516129032,1.37741935483871,1.3741935483871,1.3741935483871,1.37096774193548,1.35483870967742,1.35806451612903,1.35161290322581,1.33548387096774,1.33548387096774,1.32903225806452,1.32258064516129,1.32258064516129,1.31612903225806,1.31612903225806,1.33225806451613,1.32903225806452,1.32903225806452,1.33548387096774,1.33870967741935,1.32903225806452,1.32903225806452,1.31935483870968,1.3258064516129,1.3258064516129,1.32258064516129,1.32258064516129,1.32903225806452,1.33548387096774,1.34193548387097,1.34838709677419,1.35483870967742,1.35483870967742,1.35483870967742,1.36129032258065,1.36129032258065,1.36451612903226,1.35161290322581,1.34516129032258,1.33548387096774,1.34193548387097,1.33870967741935,1.34193548387097,1.33870967741935,1.35483870967742,1.34838709677419,1.36774193548387,1.38387096774194,1.36129032258065,1.35806451612903,1.36451612903226,1.35161290322581,1.33548387096774,1.31935483870968,1.30967741935484,1.31935483870968,1.31290322580645,1.31290322580645,1.31935483870968,1.31612903225806,1.31290322580645,1.32258064516129,1.31935483870968,1.26451612903226,1.25161290322581,1.34516129032258,1.63225806451613,2.05161290322581,2.10967741935484,1.93548387096774,1.65483870967742,1.48064516129032,1.41612903225806,1.40967741935484,1.38709677419355,1.3741935483871,1.36774193548387,1.37096774193548,1.38387096774194,1.39032258064516,1.39354838709677,1.39677419354839,1.39677419354839,1.39354838709677,1.38387096774194,1.38064516129032,1.38709677419355,1.38709677419355,1.39032258064516,1.4,1.41290322580645,1.41290322580645,1.4258064516129,1.44193548387097,1.46451612903226,1.49354838709677,1.51935483870968,1.53225806451613,1.56451612903226,1.59354838709677,1.62258064516129,1.64193548387097,1.65483870967742,1.65483870967742,1.64838709677419,1.61612903225806,1.55483870967742,1.49354838709677,1.43225806451613,1.39032258064516,1.35161290322581,1.32903225806452,1.3258064516129,1.31935483870968,1.30967741935484,1.31290322580645,1.31290322580645,1.31935483870968,1.33225806451613,1.33548387096774,1.33870967741935,1.33870967741935,1.33870967741935,1.34193548387097,1.33870967741935,1.34193548387097,1.34193548387097,1.34193548387097,1.35161290322581,1.34838709677419,1.34516129032258,1.35161290322581,1.35161290322581,1.36129032258065,1.35161290322581,1.34838709677419,1.34516129032258,1.34193548387097,1.34516129032258,1.34193548387097,1.34838709677419,1.33870967741935,1.34516129032258,1.35161290322581,1.35161290322581,1.36129032258065,1.35806451612903,1.35806451612903,1.36774193548387,1.36451612903226,1.35161290322581,1.35806451612903,1.35483870967742,1.34838709677419,1.36129032258065,1.35806451612903,1.35806451612903,1.35806451612903,1.34193548387097,1.35161290322581,1.35161290322581,1.36774193548387,1.36774193548387,1.36774193548387,1.37096774193548,1.3741935483871,1.37096774193548,1.37096774193548,1.37096774193548,1.36451612903226,1.36774193548387,1.36774193548387,1.36451612903226,1.35806451612903,1.35161290322581,1.35161290322581,1.37096774193548,1.36129032258065,1.37096774193548,1.40322580645161,1.38709677419355,1.39032258064516,1.4,1.39354838709677,1.3741935483871,1.35161290322581,1.35161290322581,1.34516129032258,1.33870967741935,1.33870967741935,1.33870967741935,1.32903225806452,1.33225806451613,1.32903225806452,1.33225806451613,1.30322580645161,1.23548387096774,1.29032258064516,1.50645161290323,1.93225806451613,2.14838709677419,2.03548387096774,1.74193548387097,1.50967741935484,1.40322580645161,1.38387096774194,1.35806451612903,1.34516129032258,1.33225806451613,1.32258064516129,1.3258064516129,1.3258064516129,1.32903225806452,1.32903225806452,1.32258064516129,1.33225806451613,1.33548387096774,1.33870967741935,1.33870967741935,1.34838709677419,1.34516129032258,1.36129032258065,1.36129032258065,1.38387096774194,1.40322580645161,1.41290322580645,1.41612903225806,1.44193548387097,1.45806451612903,1.49032258064516,1.53225806451613,1.5741935483871,1.62258064516129,1.66129032258065,1.69677419354839,1.71612903225806,1.73225806451613,1.71935483870968,1.67741935483871,1.62258064516129,1.55806451612903,1.52258064516129,1.48387096774194,1.45806451612903,1.43548387096774,1.42903225806452,1.42258064516129,1.41612903225806,1.40967741935484,1.40322580645161,1.4,1.39677419354839,1.38709677419355,1.38709677419355,1.39354838709677,1.38709677419355,1.39032258064516,1.37741935483871,1.38064516129032,1.38064516129032,1.36451612903226,1.36774193548387,1.36774193548387,1.3741935483871,1.36774193548387,1.36129032258065,1.35483870967742,1.35483870967742,1.35483870967742,1.34193548387097,1.33870967741935,1.32903225806452,1.33225806451613,1.33548387096774,1.33548387096774,1.34193548387097,1.35161290322581,1.35161290322581,1.34838709677419,1.34516129032258,1.35161290322581,1.35483870967742,1.35483870967742,1.35161290322581,1.33548387096774,1.33548387096774,1.33870967741935,1.3258064516129,1.32903225806452,1.32903225806452,1.34516129032258,1.33225806451613,1.31935483870968,1.31935483870968,1.3258064516129,1.31290322580645,1.30967741935484,1.3,1.30322580645161,1.30967741935484,1.3,1.3,1.30322580645161,1.30967741935484,1.3,1.29354838709677,1.29032258064516,1.3,1.30322580645161,1.31612903225806,1.3258064516129,1.31935483870968,1.35483870967742,1.35483870967742,1.33870967741935,1.34516129032258,1.35161290322581,1.32258064516129,1.30322580645161,1.3,1.3,1.29354838709677,1.30645161290323,1.3,1.30645161290323,1.31612903225806,1.31290322580645,1.30645161290323,1.30967741935484,1.24516129032258,1.26774193548387,1.39677419354839,1.73548387096774,2.08064516129032,2.06129032258065,1.78709677419355,1.52258064516129,1.42903225806452,1.40322580645161,1.39032258064516,1.38709677419355,1.39032258064516,1.38387096774194,1.38709677419355,1.3741935483871,1.38709677419355,1.38387096774194,1.38709677419355,1.37741935483871,1.38709677419355,1.38387096774194,1.37741935483871,1.39032258064516,1.38709677419355,1.38387096774194,1.39677419354839,1.4,1.41612903225806,1.42903225806452,1.43870967741935,1.46774193548387,1.48709677419355,1.50322580645161,1.53870967741935,1.57741935483871,1.60322580645161,1.64193548387097,1.67096774193548,1.69032258064516,1.69354838709677,1.67741935483871,1.63548387096774,1.58709677419355,1.52258064516129,1.46129032258065,1.42258064516129,1.39677419354839,1.3741935483871,1.36774193548387,1.36774193548387,1.36451612903226,1.36774193548387,1.36774193548387,1.37096774193548,1.36451612903226,1.37096774193548,1.36451612903226,1.35806451612903,1.36774193548387,1.37096774193548,1.37741935483871,1.38387096774194,1.38709677419355,1.38709677419355,1.38387096774194,1.38387096774194,1.38064516129032,1.37741935483871,1.3741935483871,1.36451612903226,1.36774193548387,1.36129032258065,1.35483870967742,1.35161290322581,1.34193548387097,1.35161290322581,1.36451612903226,1.34193548387097,1.34193548387097,1.34838709677419,1.34838709677419,1.35161290322581,1.36774193548387,1.35806451612903,1.36129032258065,1.35161290322581,1.33870967741935,1.34516129032258,1.34838709677419,1.35806451612903,1.35161290322581,1.36129032258065,1.36129032258065,1.34838709677419,1.35806451612903,1.34838709677419,1.37096774193548,1.36451612903226,1.3741935483871,1.38387096774194,1.3741935483871,1.38387096774194,1.37096774193548,1.37741935483871,1.3741935483871,1.37741935483871,1.3741935483871,1.37096774193548,1.3741935483871,1.39354838709677,1.39677419354839,1.40645161290323,1.45161290322581,1.43548387096774,1.43870967741935,1.43870967741935,1.43548387096774,1.43225806451613,1.41290322580645,1.41290322580645,1.41612903225806,1.4258064516129,1.42258064516129,1.4258064516129,1.43548387096774,1.44838709677419,1.45161290322581,1.45483870967742,1.43870967741935,1.38387096774194,1.43225806451613
1.22258064516129,1.21935483870968,1.23548387096774,1.26774193548387,1.25483870967742,1.26774193548387,1.28709677419355,1.26774193548387,1.24838709677419,1.23870967741935,1.22903225806452,1.23870967741935,1.23225806451613,1.23225806451613,1.23225806451613,1.2258064516129,1.22903225806452,1.2258064516129,1.21935483870968,1.18387096774194,1.13548387096774,1.19677419354839,1.42903225806452,1.85161290322581,2.0258064516129,1.87741935483871,1.60967741935484,1.40322580645161,1.31935483870968,1.31612903225806,1.29032258064516,1.2741935483871,1.26451612903226,1.2741935483871,1.2741935483871,1.28064516129032,1.27741935483871,1.29354838709677,1.29354838709677,1.3,1.30967741935484,1.31290322580645,1.32258064516129,1.32903225806452,1.34838709677419,1.35483870967742,1.37096774193548,1.37741935483871,1.38709677419355,1.40645161290323,1.4258064516129,1.42903225806452,1.45806451612903,1.48709677419355,1.51935483870968,1.55161290322581,1.59032258064516,1.6258064516129,1.65161290322581,1.66451612903226,1.66451612903226,1.64516129032258,1.59677419354839,1.54516129032258,1.47096774193548,1.42258064516129,1.39032258064516,1.36774193548387,1.35161290322581,1.35483870967742,1.34838709677419,1.34516129032258,1.35483870967742,1.35483870967742,1.35483870967742,1.35161290322581,1.36129032258065,1.35161290322581,1.35806451612903,1.35806451612903,1.36129032258065,1.36774193548387,1.36774193548387,1.36451612903226,1.35806451612903,1.36129032258065,1.36129032258065,1.36129032258065,1.36774193548387,1.36774193548387,1.36774193548387,1.36129032258065,1.36129032258065,1.35806451612903,1.35161290322581,1.34838709677419,1.35483870967742,1.35483870967742,1.35161290322581,1.35483870967742,1.35806451612903,1.36451612903226,1.36774193548387,1.3741935483871,1.36774193548387,1.37096774193548,1.3741935483871,1.36774193548387,1.3741935483871,1.37096774193548,1.3741935483871,1.37096774193548,1.37741935483871,1.37741935483871,1.38064516129032,1.3741935483871,1.37096774193548,1.36774193548387,1.37096774193548,1.37741935483871,1.38387096774194,1.38064516129032,1.3741935483871,1.37741935483871,1.38709677419355,1.37741935483871,1.38064516129032,1.3741935483871,1.3741935483871,1.3741935483871,1.37096774193548,1.3741935483871,1.38064516129032,1.38064516129032,1.39677419354839,1.39354838709677,1.41290322580645,1.43548387096774,1.40322580645161,1.41935483870968,1.41290322580645,1.38064516129032,1.36451612903226,1.34193548387097,1.33548387096774,1.32903225806452,1.3258064516129,1.33548387096774,1.33870967741935,1.32258064516129,1.33225806451613,1.33548387096774,1.33225806451613,1.29354838709677,1.26451612903226,1.37096774193548,1.64838709677419,2.05161290322581,2.13870967741935,1.91612903225806,1.63548387096774,1.4741935483871,1.41935483870968,1.41612903225806,1.39032258064516,1.38387096774194,1.38387096774194,1.36451612903226,1.38387096774194,1.38709677419355,1.39032258064516,1.39677419354839,1.40645161290323,1.40645161290323,1.40645161290323,1.40645161290323,1.40967741935484,1.40645161290323,1.41935483870968,1.4258064516129,1.4258064516129,1.44193548387097,1.45161290322581,1.45806451612903,1.47741935483871,1.5,1.5258064516129,1.54838709677419,1.5741935483871,1.60645161290323,1.6258064516129,1.65161290322581,1.67096774193548,1.66774193548387,1.66451612903226,1.63870967741935,1.5741935483871,1.50967741935484,1.45161290322581,1.41290322580645,1.37741935483871,1.35161290322581,1.33225806451613,1.3258064516129,1.31612903225806,1.30322580645161,1.30967741935484,1.32258064516129,1.31290322580645,1.31290322580645,1.31290322580645,1.31612903225806,1.31935483870968,1.33225806451613,1.3258064516129,1.32258064516129,1.32258064516129,1.33225806451613,1.3258064516129,1.32903225806452,1.3258064516129,1.31290322580645,1.3258064516129,1.3258064516129,1.31935483870968,1.31935483870968,1.31935483870968,1.32258064516129,1.33225806451613,1.34193548387097,1.34193548387097,1.32903225806452,1.34193548387097,1.32258064516129,1.33870967741935,1.33870967741935,1.34193548387097,1.33548387096774,1.33548387096774,1.33548387096774,1.31935483870968,1.31935483870968,1.31290322580645,1.32258064516129,1.3258064516129,1.31935483870968,1.30645161290323,1.31935483870968,1.30645161290323,1.29677419354839,1.30645161290323,1.3,1.30645161290323,1.29032258064516,1.29032258064516,1.28709677419355,1.2741935483871,1.28064516129032,1.27096774193548,1.28064516129032,1.28387096774194,1.29354838709677,1.3,1.3,1.34193548387097,1.34193548387097,1.31290322580645,1.3258064516129,1.33225806451613,1.31612903225806,1.3,1.31290322580645,1.3258064516129,1.31290322580645,1.31935483870968,1.31612903225806,1.3258064516129,1.32903225806452,1.32903225806452,1.33548387096774,1.33225806451613,1.28387096774194,1.3,1.43548387096774,1.76451612903226,2.06129032258065,2.02903225806452,1.77096774193548,1.50322580645161,1.4258064516129,1.40322580645161,1.40645161290323,1.38709677419355,1.3741935483871,1.38709677419355,1.38064516129032,1.39677419354839,1.39354838709677,1.40967741935484,1.40322580645161,1.41290322580645,1.40967741935484,1.42258064516129,1.43225806451613,1.43548387096774,1.44838709677419,1.44193548387097,1.45806451612903,1.46451612903226,1.49032258064516,1.5,1.5,1.5258064516129,1.53548387096774,1.55161290322581,1.59032258064516,1.6258064516129,1.6741935483871,1.69677419354839,1.71935483870968,1.75483870967742,1.74516129032258,1.7258064516129,1.67741935483871,1.60967741935484,1.54838709677419,1.49354838709677,1.46451612903226,1.42903225806452,1.42903225806452,1.41290322580645,1.4,1.4,1.40322580645161,1.41290322580645,1.42903225806452,1.4258064516129,1.42258064516129,1.4258064516129,1.41290322580645,1.40322580645161,1.40967741935484,1.40645161290323,1.4,1.39677419354839,1.38709677419355,1.4,1.39032258064516,1.39354838709677,1.3741935483871,1.36774193548387,1.36129032258065,1.36129032258065,1.34838709677419,1.35161290322581,1.35483870967742,1.36451612903226,1.35806451612903,1.34838709677419,1.34838709677419,1.33870967741935,1.32903225806452,1.33225806451613,1.33225806451613,1.3258064516129,1.31612903225806,1.31935483870968,1.3258064516129,1.33548387096774,1.32903225806452,1.3258064516129,1.32258064516129,1.32258064516129,1.31290322580645,1.31935483870968,1.30645161290323,1.31935483870968,1.30645161290323,1.30645161290323,1.31290322580645,1.31290322580645,1.31612903225806,1.30645161290323,1.31290322580645,1.30645161290323,1.31290322580645,1.31935483870968,1.31612903225806,1.32903225806452,1.3741935483871,1.34193548387097,1.34838709677419,1.34838709677419,1.32258064516129,1.31290322580645,1.29354838709677,1.29677419354839,1.3,1.30645161290323,1.29677419354839,1.28709677419355,1.28387096774194,1.28064516129032,1.27741935483871,1.28064516129032,1.23548387096774,1.20967741935484,1.28709677419355,1.52258064516129,1.90645161290323,2,1.83870967741935,1.58387096774194,1.41935483870968,1.35161290322581,1.35483870967742,1.33548387096774,1.3258064516129,1.31612903225806,1.31612903225806,1.30645161290323,1.30322580645161,1.31290322580645,1.30322580645161,1.30645161290323,1.30322580645161,1.31290322580645,1.3258064516129,1.33225806451613,1.33870967741935,1.34838709677419,1.35806451612903,1.38064516129032,1.39032258064516,1.40645161290323,1.42258064516129,1.43870967741935,1.45806451612903,1.48387096774194,1.51935483870968,1.53870967741935,1.55806451612903,1.58064516129032,1.61290322580645,1.63225806451613,1.64516129032258,1.63548387096774,1.60967741935484,1.56451612903226,1.51935483870968,1.48064516129032,1.44193548387097,1.41290322580645,1.38064516129032,1.36451612903226,1.36451612903226,1.35806451612903,1.36451612903226,1.37096774193548,1.37741935483871,1.37741935483871,1.3741935483871,1.3741935483871,1.37096774193548,1.3741935483871,1.37096774193548,1.37096774193548,1.38387096774194,1.38387096774194,1.39032258064516,1.39354838709677,1.38387096774194,1.38387096774194,1.39354838709677,1.39354838709677,1.39032258064516,1.39032258064516,1.39032258064516,1.38064516129032,1.38387096774194,1.37741935483871,1.38387096774194,1.38709677419355,1.39032258064516,1.38709677419355,1.38709677419355,1.38387096774194,1.38709677419355,1.38709677419355,1.38387096774194,1.38064516129032,1.37741935483871,1.37096774193548,1.36129032258065,1.35806451612903,1.35806451612903,1.35483870967742,1.35483870967742,1.36451612903226,1.36774193548387,1.36129032258065,1.36129032258065,1.35806451612903,1.35806451612903,1.35483870967742,1.36774193548387,1.36129032258065,1.36129032258065,1.37096774193548,1.37096774193548,1.36451612903226,1.37741935483871,1.37741935483871,1.36774193548387,1.36451612903226,1.37096774193548,1.36774193548387,1.37741935483871,1.38709677419355,1.39032258064516,1.39677419354839,1.41935483870968,1.41612903225806,1.40322580645161,1.41935483870968,1.42258064516129,1.39354838709677,1.37741935483871,1.38064516129032,1.3741935483871,1.3741935483871,1.37096774193548,1.37096774193548,1.3741935483871,1.37096774193548,1.36451612903226,1.35806451612903,1.33870967741935,1.27741935483871,1.30645161290323,1.46129032258065,1.82903225806452,2.11290322580645,2.0741935483871,1.83225806451613,1.59032258064516,1.46129032258065,1.42903225806452,1.41290322580645,1.40967741935484,1.39032258064516,1.39354838709677,1.39677419354839,1.39677419354839,1.4,1.4,1.4,1.39677419354839,1.38387096774194,1.38387096774194,1.38709677419355,1.38387096774194,1.39354838709677,1.39354838709677,1.40322580645161,1.4,1.40645161290323,1.4,1.40322580645161,1.4258064516129,1.44516129032258,1.47096774193548,1.50967741935484,1.54193548387097,1.5741935483871,1.61290322580645,1.63870967741935,1.65161290322581,1.66129032258065,1.63548387096774,1.6,1.53870967741935,1.48387096774194,1.42903225806452,1.39677419354839,1.37096774193548,1.34193548387097,1.3258064516129,1.32258064516129,1.33225806451613,1.33225806451613,1.32258064516129,1.3258064516129,1.3258064516129,1.32903225806452,1.31612903225806,1.30967741935484,1.30645161290323,1.31290322580645,1.30322580645161,1.31290322580645,1.31935483870968,1.32258064516129,1.31935483870968,1.31612903225806,1.31290322580645,1.30645161290323,1.30645161290323,1.31290322580645,1.31935483870968,1.31935483870968,1.3258064516129,1.32903225806452,1.32903225806452,1.32258064516129,1.3258064516129,1.31935483870968,1.32258064516129,1.31935483870968,1.30645161290323,1.30645161290323,1.30645161290323,1.30322580645161,1.29677419354839,1.30322580645161,1.30967741935484,1.30322580645161,1.30967741935484,1.31612903225806,1.32258064516129,1.31935483870968,1.30967741935484,1.30322580645161,1.30322580645161,1.30967741935484,1.30967741935484,1.31290322580645,1.32258064516129,1.33548387096774,1.3258064516129,1.31935483870968,1.32258064516129,1.31935483870968,1.31612903225806,1.31290322580645,1.31290322580645,1.31935483870968,1.3258064516129,1.32258064516129,1.32258064516129,1.31612903225806,1.30967741935484,1.3,1.30645161290323,1.31612903225806,1.32903225806452,1.34838709677419,1.35161290322581,1.35161290322581,1.38709677419355,1.39354838709677,1.37741935483871,1.38387096774194,1.38387096774194,1.36774193548387,1.35806451612903,1.35806451612903,1.37096774193548,1.37096774193548,1.37741935483871,1.38064516129032,1.37096774193548,1.3741935483871,1.37096774193548,1.37741935483871,1.37741935483871,1.31935483870968,1.34193548387097,1.48709677419355,1.85806451612903,2.18709677419355,2.16774193548387,1.90645161290323,1.63870967741935,1.51290322580645,1.4741935483871,1.46129032258065,1.44516129032258,1.43225806451613,1.43548387096774,1.43225806451613,1.42903225806452,1.43870967741935,1.43548387096774,1.43548387096774,1.43870967741935,1.44193548387097,1.44838709677419,1.44838709677419,1.44193548387097,1.44838709677419,1.44516129032258,1.45161290322581,1.46451612903226,1.47741935483871,1.49354838709677,1.50322580645161,1.51935483870968,1.53870967741935,1.56129032258065,1.57741935483871,1.60967741935484,1.63870967741935,1.65806451612903,1.6741935483871,1.69354838709677,1.69677419354839,1.67741935483871,1.64516129032258,1.6,1.54516129032258,1.5,1.45483870967742,1.4258064516129,1.40645161290323,1.38387096774194,1.37741935483871,1.36129032258065,1.36451612903226,1.36774193548387,1.36451612903226,1.35483870967742,1.35161290322581,1.35161290322581,1.35161290322581,1.34516129032258,1.33225806451613,1.33225806451613,1.33548387096774,1.34516129032258,1.35483870967742,1.35161290322581,1.34838709677419,1.34193548387097,1.33870967741935,1.33548387096774,1.33870967741935,1.34193548387097,1.33548387096774,1.33548387096774,1.33225806451613,1.32258064516129,1.31612903225806,1.31612903225806,1.30322580645161,1.30322580645161,1.31290322580645,1.31935483870968,1.31290322580645,1.31290322580645,1.31612903225806,1.31612903225806,1.31935483870968,1.30645161290323,1.30645161290323,1.3,1.29354838709677,1.29354838709677,1.29677419354839,1.29677419354839,1.30322580645161,1.3,1.30322580645161,1.30322580645161,1.3,1.29677419354839,1.29354838709677,1.29677419354839,1.28387096774194,1.28064516129032,1.27741935483871,1.2741935483871,1.28709677419355,1.29032258064516,1.28387096774194,1.28709677419355,1.28064516129032,1.28709677419355,1.29354838709677,1.28709677419355,1.28064516129032,1.29032258064516,1.29032258064516,1.30645161290323,1.30967741935484,1.34516129032258,1.34193548387097,1.32903225806452,1.34838709677419,1.34516129032258,1.3258064516129,1.30322580645161,1.29032258064516,1.3,1.30322580645161,1.30322580645161,1.31290322580645,1.30967741935484,1.31290322580645,1.31290322580645,1.31935483870968,1.31290322580645,1.26129032258065,1.28064516129032,1.44838709677419,1.83225806451613,2.12258064516129,2.03225806451613,1.73870967741935,1.49354838709677,1.42258064516129,1.4,1.39677419354839,1.38064516129032,1.3741935483871,1.37741935483871,1.38387096774194,1.38064516129032,1.38709677419355,1.40322580645161,1.40322580645161,1.39354838709677,1.39354838709677,1.41290322580645,1.41290322580645,1.4258064516129,1.42903225806452,1.43548387096774,1.45161290322581,1.45483870967742,1.46129032258065,1.47741935483871,1.49677419354839,1.50967741935484,1.52258064516129,1.57096774193548,1.60967741935484,1.63870967741935,1.67096774193548,1.69354838709677,1.72903225806452,1.74838709677419,1.74838709677419,1.73225806451613,1.69354838709677,1.63548387096774,1.57096774193548,1.51935483870968,1.48387096774194,1.46129032258065,1.43225806451613,1.4258064516129,1.40967741935484,1.40645161290323,1.39677419354839,1.39032258064516,1.38387096774194,1.3741935483871,1.36774193548387,1.37096774193548,1.3741935483871,1.38709677419355,1.38709677419355,1.37096774193548,1.36129032258065,1.35806451612903,1.36774193548387,1.36451612903226,1.3741935483871,1.36451612903226,1.34516129032258,1.35806451612903,1.34838709677419,1.34516129032258,1.34516129032258,1.3258064516129,1.33548387096774,1.33870967741935,1.33870967741935,1.33225806451613,1.3258064516129,1.33548387096774,1.32903225806452,1.32258064516129,1.33548387096774,1.33870967741935,1.34193548387097,1.34838709677419,1.34838709677419,1.3258064516129,1.33548387096774,1.33548387096774,1.34193548387097,1.34838709677419,1.32903225806452,1.32258064516129,1.32903225806452,1.3258064516129,1.3258064516129,1.33225806451613,1.32258064516129,1.30967741935484,1.3258064516129,1.32258064516129,1.31935483870968,1.30645161290323,1.31290322580645,1.32903225806452,1.31935483870968,1.32903225806452,1.31935483870968,1.3258064516129,1.32258064516129,1.3258064516129,1.34838709677419,1.35161290322581,1.38064516129032,1.39354838709677,1.36451612903226,1.38064516129032,1.38709677419355,1.37096774193548,1.35483870967742,1.34193548387097,1.3258064516129,1.33225806451613,1.34193548387097,1.33870967741935,1.33870967741935,1.33870967741935,1.32903225806452,1.33548387096774,1.33225806451613,1.27741935483871,1.26774193548387,1.39032258064516,1.70967741935484,2.0258064516129,2.01290322580645,1.7741935483871,1.5258064516129,1.43225806451613,1.40322580645161,1.39354838709677,1.36451612903226,1.36129032258065,1.37741935483871,1.37741935483871,1.3741935483871,1.38709677419355,1.39032258064516,1.39354838709677,1.38709677419355,1.38387096774194,1.38064516129032,1.38709677419355,1.39677419354839,1.39677419354839,1.40645161290323,1.41290322580645,1.42903225806452,1.45161290322581,1.46129032258065,1.48064516129032,1.48064516129032,1.49354838709677,1.51612903225806,1.53548387096774,1.55483870967742,1.57741935483871,1.60645161290323,1.6258064516129,1.64838709677419,1.65161290322581,1.6258064516129,1.59354838709677,1.54516129032258,1.48387096774194,1.42903225806452,1.38064516129032,1.35483870967742,1.33548387096774,1.34193548387097,1.32903225806452,1.3258064516129,1.31935483870968,1.32258064516129,1.3258064516129,1.3258064516129,1.32903225806452,1.3258064516129,1.3258064516129,1.3258064516129,1.3258064516129,1.3258064516129,1.32258064516129,1.32258064516129,1.3258064516129,1.32258064516129,1.32258064516129,1.3258064516129,1.33225806451613,1.34193548387097,1.34193548387097,1.34516129032258,1.34516129032258,1.35161290322581,1.35483870967742,1.36129032258065,1.36129032258065,1.36451612903226,1.37096774193548,1.37096774193548,1.37096774193548,1.3741935483871,1.3741935483871,1.37741935483871,1.36774193548387,1.37096774193548,1.36774193548387,1.36451612903226,1.3741935483871,1.36774193548387,1.37096774193548,1.35483870967742,1.35806451612903,1.36129032258065,1.36129032258065,1.35806451612903,1.35161290322581,1.34838709677419,1.34838709677419,1.33870967741935,1.34193548387097,1.34516129032258,1.35483870967742,1.36129032258065,1.36451612903226,1.36774193548387,1.3741935483871,1.37741935483871,1.38064516129032,1.38387096774194,1.38064516129032,1.38709677419355,1.39354838709677,1.38709677419355,1.39354838709677,1.4258064516129,1.39677419354839,1.38387096774194,1.39032258064516,1.37741935483871,1.35483870967742,1.33548387096774,1.33225806451613,1.32903225806452,1.32903225806452,1.32258064516129,1.31612903225806,1.30645161290323,1.30967741935484,1.30645161290323,1.31612903225806,1.30322580645161,1.24838709677419,1.29354838709677,1.49677419354839,1.9,2.09677419354839,2.00645161290323,1.74193548387097,1.51612903225806,1.41935483870968,1.40322580645161,1.38064516129032,1.37096774193548,1.36451612903226,1.3741935483871,1.38064516129032,1.3741935483871,1.3741935483871,1.38387096774194,1.38387096774194,1.38387096774194,1.39032258064516,1.39354838709677,1.39354838709677,1.4,1.39354838709677,1.39677419354839,1.4,1.41935483870968,1.42903225806452,1.4258064516129,1.44193548387097,1.45806451612903,1.47096774193548,1.5,1.52258064516129,1.54516129032258,1.5741935483871,1.6,1.63870967741935,1.65483870967742,1.65161290322581,1.65161290322581,1.61612903225806,1.55483870967742,1.49677419354839,1.44516129032258,1.40645161290323,1.37741935483871,1.35806451612903,1.34193548387097,1.34516129032258,1.33225806451613,1.33225806451613,1.32903225806452,1.3258064516129,1.30967741935484,1.31290322580645,1.30967741935484,1.30967741935484,1.31612903225806,1.32258064516129,1.32258064516129,1.31612903225806,1.31290322580645,1.3258064516129,1.32258064516129,1.3258064516129,1.33225806451613,1.32903225806452,1.34516129032258,1.34516129032258,1.34838709677419,1.34516129032258,1.35161290322581,1.35483870967742,1.35806451612903,1.35483870967742,1.36774193548387,1.3741935483871,1.38064516129032,1.38709677419355,1.38709677419355,1.38709677419355,1.39354838709677,1.39677419354839,1.39677419354839,1.39354838709677,1.39032258064516,1.39032258064516,1.39354838709677,1.39354838709677,1.39677419354839,1.38387096774194,1.38064516129032,1.38709677419355,1.38064516129032,1.38064516129032,1.37741935483871,1.36774193548387,1.37741935483871,1.3741935483871,1.36774193548387,1.3741935483871,1.36774193548387,1.36129032258065,1.3741935483871,1.38387096774194,1.38387096774194,1.38709677419355,1.38387096774194,1.38064516129032,1.36774193548387,1.38064516129032,1.38064516129032,1.38387096774194,1.39032258064516,1.38709677419355,1.39354838709677,1.39032258064516,1.37741935483871,1.40967741935484,1.4,1.38064516129032,1.39677419354839,1.40645161290323,1.3741935483871,1.36129032258065,1.34838709677419,1.36129032258065,1.35161290322581,1.35161290322581,1.35483870967742,1.34838709677419,1.35161290322581,1.35483870967742,1.35161290322581,1.34516129032258,1.27741935483871,1.29032258064516,1.42258064516129,1.77096774193548,2.10322580645161,2.09354838709677,1.84516129032258,1.58064516129032,1.44193548387097,1.40645161290323,1.38064516129032,1.37741935483871,1.37741935483871,1.3741935483871,1.3741935483871,1.36451612903226,1.35806451612903,1.35161290322581,1.34838709677419,1.34516129032258,1.33548387096774,1.33548387096774,1.34193548387097,1.33225806451613,1.33548387096774,1.33548387096774,1.33548387096774,1.34193548387097,1.34516129032258,1.34516129032258,1.35483870967742,1.35806451612903,1.37096774193548,1.39354838709677,1.4,1.42258064516129,1.44516129032258,1.46129032258065
