1.3599609375,1.3599609375,1.36640625,1.36640625,1.353515625,1.353515625,1.36962890625,1.379296875,1.379296875,1.38251953125,1.3857421875,1.40830078125,1.4630859375,1.4888671875,1.45341796875,1.41796875,1.40830078125,1.39541015625,1.38896484375,1.39541015625,1.405078125,1.3986328125,1.3986328125,1.42763671875,1.456640625,1.5146484375,1.62099609375,1.68544921875,1.6306640625,1.508203125,1.4115234375,1.353515625,1.340625,1.353515625,1.36318359375,1.36318359375,1.379296875,1.3857421875,1.37607421875,1.3728515625,1.39541015625,1.40185546875,1.38251953125,1.3857421875,1.42763671875,1.4630859375,1.45986328125,1.45341796875,1.482421875,1.533984375,1.57265625,1.58232421875,1.5984375,1.6177734375,1.5984375,1.53720703125,1.47275390625,1.42763671875,1.38896484375,1.340625,1.29873046875,1.2697265625,1.26328125,1.2697265625,1.276171875,1.28583984375,1.30517578125,1.32451171875,1.327734375,1.31806640625,1.3212890625,1.340625,1.33095703125,1.301953125,1.29873046875,1.31806640625,1.33095703125,1.32451171875,1.33740234375,1.36318359375,1.36640625,1.35673828125,1.3599609375,1.3599609375,1.353515625,1.3599609375,1.36640625,1.36318359375,1.3599609375,1.36962890625,1.379296875,1.379296875,1.37607421875,1.37607421875,1.379296875,1.379296875,1.379296875,1.38896484375,1.38896484375,1.38896484375,1.39541015625,1.39541015625,1.38896484375,1.3921875,1.39541015625,1.3986328125,1.38896484375,1.38251953125,1.3986328125,1.4244140625,1.44697265625,1.4630859375,1.46630859375,1.45986328125,1.42763671875,1.3986328125,1.39541015625,1.3986328125,1.3921875,1.38896484375,1.405078125,1.42119140625,1.44052734375,1.533984375,1.67900390625,1.7015625,1.5533203125,1.405078125,1.36962890625,1.3857421875,1.3857421875,1.36640625,1.353515625,1.3599609375,1.379296875,1.379296875,1.36318359375,1.36962890625,1.3857421875,1.379296875,1.379296875,1.40185546875,1.430859375,1.4501953125,1.44697265625,1.44052734375,1.47919921875,1.533984375,1.5662109375,1.58876953125,1.5984375,1.5791015625,1.5533203125,1.51787109375,1.4501953125,1.36318359375,1.327734375,1.327734375,1.301953125,1.2697265625,1.26328125,1.26328125,1.25361328125,1.2568359375,1.2826171875,1.3083984375,1.3083984375,1.29228515625,1.2955078125,1.3083984375,1.327734375,1.33740234375,1.3341796875,1.33095703125,1.3341796875,1.353515625,1.379296875,1.36962890625,1.35029296875,1.3470703125,1.353515625,1.36640625,1.379296875,1.37607421875,1.36318359375,1.353515625,1.3599609375,1.36318359375,1.36962890625,1.38251953125,1.379296875,1.36962890625,1.38251953125,1.40830078125,1.41474609375,1.40830078125,1.405078125,1.40185546875,1.3921875,1.39541015625,1.40185546875,1.40185546875,1.40185546875,1.40830078125,1.42119140625,1.430859375,1.4373046875,1.4501953125,1.4630859375,1.456640625,1.4244140625,1.38896484375,1.38251953125,1.38896484375,1.38896484375,1.39541015625,1.40830078125,1.430859375,1.4888671875,1.58876953125,1.65,1.5984375,1.46953125,1.38896484375,1.3728515625,1.3728515625,1.36318359375,1.36640625,1.36318359375,1.35673828125,1.36640625,1.3857421875,1.3921875,1.40185546875,1.4115234375,1.405078125,1.39541015625,1.41474609375,1.44052734375,1.44697265625,1.4501953125,1.49208984375,1.55009765625,1.58232421875,1.6048828125,1.63388671875,1.6435546875,1.611328125,1.54365234375,1.4888671875,1.4501953125,1.39541015625,1.33740234375,1.30517578125,1.2955078125,1.29873046875,1.30517578125,1.31806640625,1.31162109375,1.2955078125,1.301953125,1.31484375,1.31162109375,1.31162109375,1.32451171875,1.340625,1.34384765625,1.3470703125,1.35029296875,1.3470703125,1.33740234375,1.34384765625,1.35673828125,1.36318359375,1.35029296875,1.340625,1.34384765625,1.36640625,1.36962890625,1.353515625,1.35029296875,1.37607421875,1.38896484375,1.37607421875,1.36640625,1.37607421875,1.3857421875,1.3857421875,1.37607421875,1.36318359375,1.353515625,1.353515625,1.379296875,1.40185546875,1.3857421875,1.3599609375,1.36962890625,1.39541015625,1.3986328125,1.39541015625,1.40185546875,1.405078125,1.40185546875,1.40185546875,1.41474609375,1.43408203125,1.44375,1.4244140625,1.38251953125,1.35029296875,1.34384765625,1.3341796875,1.32451171875,1.33095703125,1.36962890625,1.41474609375,1.482421875,1.58876953125,1.65322265625,1.6048828125,1.4630859375,1.35029296875,1.31806640625,1.32451171875,1.33740234375,1.353515625,1.36318359375,1.379296875,1.37607421875,1.36318359375,1.38251953125,1.40830078125,1.4115234375,1.40185546875,1.4115234375,1.43408203125,1.4501953125,1.45986328125,1.46953125,1.49208984375,1.533984375,1.58876953125,1.62421875,1.637109375,1.65322265625,1.6435546875,1.58876953125,1.53720703125,1.4888671875,1.42763671875,1.36640625,1.33095703125,1.32451171875,1.32451171875,1.3212890625,1.3341796875,1.340625,1.31484375,1.31484375,1.3470703125,1.35673828125,1.340625,1.3470703125,1.3728515625,1.37607421875,1.36318359375,1.36318359375,1.3728515625,1.36640625,1.353515625,1.36962890625,1.3986328125,1.38896484375,1.3728515625,1.379296875,1.3921875,1.3857421875,1.3728515625,1.36318359375,1.36640625,1.379296875,1.3857421875,1.379296875,1.3857421875,1.3986328125,1.3921875,1.379296875,1.379296875,1.38896484375,1.3986328125,1.3986328125,1.3986328125,1.40830078125,1.41474609375,1.40830078125,1.405078125,1.405078125,1.4115234375,1.40830078125,1.4115234375,1.43408203125,1.44697265625,1.43408203125,1.41796875,1.40830078125,1.38896484375,1.3599609375,1.353515625,1.36962890625,1.3728515625,1.36640625,1.40830078125,1.508203125,1.60166015625,1.60166015625,1.51787109375,1.41796875,1.35029296875,1.33095703125,1.31484375,1.29873046875,1.29873046875,1.31484375,1.33095703125,1.35029296875,1.3599609375,1.3470703125,1.3341796875,1.3470703125,1.379296875,1.38896484375,1.379296875,1.3986328125,1.4373046875,1.45341796875,1.456640625,1.50498046875,1.56298828125,1.585546875,1.58876953125,1.60166015625,1.585546875,1.5146484375,1.430859375,1.379296875,1.33095703125,1.2826171875,1.276171875,1.27294921875,1.2375,1.2181640625,1.2439453125,1.26328125,1.2568359375,1.26328125,1.27294921875,1.26328125,1.26650390625,1.2890625,1.301953125,1.301953125,1.32451171875,1.353515625,1.340625,1.31484375,1.33095703125,1.3470703125,1.3341796875,1.3341796875,1.3599609375,1.3728515625,1.36640625,1.353515625,1.36318359375,1.3857421875,1.3921875,1.3921875,1.38251953125,1.38251953125,1.3921875,1.3986328125,1.39541015625,1.405078125,1.41474609375,1.405078125,1.40185546875,1.42119140625,1.42119140625,1.42763671875,1.44052734375,1.4373046875,1.4244140625,1.41474609375,1.42763671875,1.4630859375,1.49208984375,1.5017578125,1.482421875,1.45986328125,1.44697265625,1.430859375,1.41796875,1.41474609375,1.42119140625,1.42119140625,1.4373046875,1.49208984375,1.5919921875,1.68544921875,1.67255859375,1.546875,1.4115234375,1.36640625,1.38251953125,1.3857421875,1.3599609375,1.35673828125,1.3857421875,1.41474609375,1.42119140625,1.42119140625,1.42119140625,1.4244140625,1.42763671875,1.430859375,1.4373046875,1.45341796875,1.45986328125,1.46630859375,1.49853515625,1.54365234375,1.58876953125,1.611328125,1.637109375,1.662890625,1.662890625,1.6306640625,1.56943359375,1.4888671875,1.4115234375,1.36318359375,1.32451171875,1.2955078125,1.2826171875,1.27939453125,1.27939453125,1.2826171875,1.27939453125,1.301953125,1.340625,1.33740234375,1.31162109375,1.31484375,1.327734375,1.327734375,1.33095703125,1.3470703125,1.3470703125,1.33095703125,1.3341796875,1.35673828125,1.3728515625,1.36318359375,1.34384765625,1.33740234375,1.35673828125,1.36640625,1.3599609375,1.35029296875,1.3470703125,1.36318359375,1.3857421875,1.379296875,1.35673828125,1.3599609375,1.3728515625,1.3728515625,1.36962890625,1.36318359375,1.35029296875,1.35029296875,1.379296875,1.3986328125,1.38251953125,1.3728515625,1.3857421875,1.3986328125,1.40830078125,1.4115234375,1.405078125,1.405078125,1.42119140625,1.42763671875,1.40830078125,1.39541015625,1.38896484375,1.3599609375,1.3470703125,1.3599609375,1.36962890625,1.38251953125,1.430859375,1.52431640625,1.6177734375,1.61455078125,1.50498046875,1.38896484375,1.33740234375,1.3470703125,1.37607421875,1.38251953125,1.36962890625,1.379296875,1.3986328125,1.40185546875,1.3857421875,1.36962890625,1.3728515625,1.3921875,1.405078125,1.405078125,1.41474609375,1.43408203125,1.45341796875,1.47275390625,1.49208984375,1.52431640625,1.57265625,1.5984375,1.5919921875,1.5984375,1.5984375,1.54365234375,1.45341796875,1.3921875,1.353515625,1.31162109375,1.276171875,1.2697265625,1.27294921875,1.26005859375,1.250390625,1.26650390625,1.2826171875,1.28583984375,1.29228515625,1.30517578125,1.31484375,1.31484375,1.3212890625,1.3341796875,1.340625,1.33095703125,1.327734375,1.353515625,1.3599609375,1.33740234375,1.327734375,1.33095703125,1.3341796875,1.34384765625,1.3599609375,1.36640625,1.36318359375,1.36640625,1.38251953125,1.3857421875,1.3728515625,1.35673828125,1.35673828125,1.36640625,1.379296875,1.37607421875,1.36962890625,1.3857421875,1.405078125,1.405078125,1.38896484375,1.3857421875,1.3921875,1.39541015625,1.39541015625,1.3986328125,1.3986328125,1.40830078125,1.42119140625,1.41474609375,1.40830078125,1.43408203125,1.45986328125,1.44697265625,1.405078125,1.379296875,1.38896484375,1.3921875,1.37607421875,1.38251953125,1.405078125,1.42763671875,1.4630859375,1.546875,1.637109375,1.63388671875,1.5146484375,1.38896484375,1.340625,1.35673828125,1.38251953125,1.39541015625,1.3857421875,1.36962890625,1.3728515625,1.38251953125,1.3986328125,1.40830078125,1.39541015625,1.39541015625,1.42119140625,1.42763671875,1.4244140625,1.456640625,1.49853515625,1.5146484375,1.5275390625,1.5533203125,1.58232421875,1.60166015625,1.62421875,1.6435546875,1.62744140625,1.57587890625,1.51787109375,1.456640625,1.405078125,1.36318359375,1.34384765625,1.34384765625,1.33095703125,1.31162109375,1.301953125,1.3083984375,1.32451171875,1.3470703125,1.35673828125,1.34384765625,1.33095703125,1.33740234375,1.353515625,1.35029296875,1.3341796875,1.3341796875,1.353515625,1.36962890625,1.37607421875,1.36962890625,1.3599609375,1.36962890625,1.379296875,1.3728515625,1.3599609375,1.353515625,1.36318359375,1.38251953125,1.38251953125,1.36640625,1.37607421875,1.39541015625,1.3921875,1.3921875,1.3921875,1.3728515625,1.36640625,1.3857421875,1.3857421875,1.36318359375,1.3599609375,1.379296875,1.3857421875,1.3728515625,1.36962890625,1.3857421875,1.38896484375,1.39541015625,1.41474609375,1.4244140625,1.43408203125,1.430859375,1.40830078125,1.38896484375,1.3728515625,1.3728515625,1.3857421875,1.379296875,1.353515625,1.36318359375,1.3986328125,1.43408203125,1.51142578125,1.60166015625,1.611328125,1.51787109375,1.40185546875,1.34384765625,1.340625,1.3599609375,1.36640625,1.35673828125,1.3599609375,1.36962890625,1.3857421875,1.3921875,1.37607421875,1.36962890625,1.39541015625,1.41474609375,1.40830078125,1.4115234375,1.4373046875,1.4501953125,1.45986328125,1.49208984375,1.5404296875,1.5791015625,1.60810546875,1.63388671875,1.63388671875,1.5984375,1.5533203125,1.50498046875,1.44375,1.3728515625,1.32451171875,1.301953125,1.29228515625,1.27939453125,1.27939453125,1.27939453125,1.2697265625,1.27939453125,1.301953125,1.31484375,1.30517578125,1.2955078125,1.3083984375,1.327734375,1.327734375,1.33095703125,1.340625,1.3470703125,1.34384765625,1.3470703125,1.3599609375,1.353515625,1.34384765625,1.3599609375,1.3728515625,1.36640625,1.353515625,1.35673828125,1.36962890625,1.3728515625,1.36318359375,1.35673828125,1.3728515625,1.379296875,1.36640625,1.3599609375,1.38896484375,1.4115234375,1.3921875,1.36640625,1.37607421875,1.3921875,1.38896484375,1.3728515625,1.3728515625,1.3857421875,1.3921875,1.40185546875,1.405078125,1.3857421875,1.38251953125,1.39541015625,1.3986328125,1.3986328125,1.4115234375,1.430859375,1.4501953125,1.44697265625,1.41474609375,1.38896484375,1.38251953125,1.38251953125,1.379296875,1.3728515625,1.3857421875,1.42119140625,1.4630859375,1.546875,1.65322265625,1.67255859375,1.559765625,1.42119140625,1.36640625,1.36640625,1.36640625,1.3599609375,1.35029296875,1.353515625,1.379296875,1.3921875,1.36962890625,1.36640625,1.3986328125,1.41796875,1.3986328125,1.40185546875,1.42119140625,1.43408203125,1.4501953125,1.47275390625,1.4953125,1.53076171875,1.56943359375,1.60166015625,1.62421875,1.64033203125,1.64033203125,1.59521484375,1.51787109375,1.44052734375,1.3921875,1.353515625,1.3083984375,1.276171875,1.27294921875,1.29228515625,1.301953125,1.28583984375,1.2826171875,1.30517578125,1.32451171875,1.31484375,1.29873046875,1.31484375,1.327734375,1.32451171875,1.33740234375,1.353515625,1.34384765625,1.3470703125,1.36962890625,1.3728515625,1.35673828125,1.35673828125,1.36318359375,1.36640625,1.379296875,1.3857421875,1.379296875,1.37607421875,1.38251953125,1.38251953125,1.379296875,1.379296875,1.38251953125,1.3857421875,1.36962890625,1.36318359375,1.379296875,1.3921875,1.38896484375,1.38896484375,1.39541015625,1.3986328125,1.39541015625,1.3921875,1.38896484375,1.38251953125,1.37607421875,1.379296875,1.38896484375,1.3921875,1.39541015625,1.405078125,1.41796875,1.41474609375,1.40830078125,1.405078125,1.40830078125,1.42119140625,1.44052734375,1.456640625,1.456640625,1.43408203125,1.4115234375,1.40185546875,1.3986328125,1.3986328125,1.3986328125,1.39541015625,1.3986328125,1.430859375,1.51787109375,1.6306640625,1.67578125,1.585546875,1.45341796875,1.379296875,1.35673828125,1.35029296875,1.36318359375,1.36640625,1.3599609375,1.36318359375,1.36640625,1.3599609375,1.36640625,1.39541015625,1.40185546875,1.3921875,1.39541015625,1.4115234375,1.42119140625,1.42763671875,1.44375,1.47919921875,1.5275390625,1.5662109375,1.59521484375,1.6306640625,1.65322265625,1.6306640625,1.58876953125,1.52109375,1.44375,1.38896484375,1.3470703125,1.31162109375,1.2955078125,1.2955078125,1.2826171875,1.2826171875,1.30517578125,1.301953125,1.27294921875,1.26650390625,1.2955078125,1.31806640625,1.31484375,1.3083984375,1.31162109375,1.31806640625,1.3341796875,1.35029296875,1.36640625,1.36640625,1.3470703125,1.33740234375,1.33740234375,1.34384765625,1.353515625,1.36318359375,1.35029296875,1.3341796875,1.3470703125,1.36640625,1.3599609375,1.35673828125,1.36962890625,1.36640625,1.36318359375,1.37607421875,1.379296875,1.36962890625,1.3728515625,1.36962890625,1.36318359375,1.379296875,1.38896484375,1.37607421875,1.3599609375,1.36640625,1.40185546875,1.42119140625,1.40830078125,1.39541015625,1.3986328125,1.3986328125,1.3986328125,1.3986328125,1.40185546875,1.3986328125,1.39541015625,1.40830078125,1.43408203125,1.4501953125,1.456640625,1.45341796875,1.4373046875,1.41796875,1.3857421875,1.36640625,1.37607421875,1.38896484375,1.3986328125,1.405078125,1.405078125,1.4244140625,1.508203125,1.5984375,1.58876953125,1.4759765625,1.36962890625,1.3470703125,1.36318359375,1.3728515625,1.379296875,1.38896484375,1.3857421875,1.379296875,1.37607421875,1.379296875,1.38896484375,1.40830078125,1.42763671875,1.42119140625,1.41796875,1.43408203125,1.44697265625,1.44697265625,1.4630859375,1.49853515625,1.5275390625,1.5662109375,1.60810546875,1.63388671875,1.64033203125,1.62099609375,1.57265625,1.52109375,1.46630859375,1.405078125,1.35029296875,1.327734375,1.3212890625,1.30517578125,1.29228515625,1.29228515625,1.2890625,1.2955078125,1.301953125,1.30517578125,1.31484375,1.33740234375,1.3470703125,1.34384765625,1.34384765625,1.36318359375,1.379296875,1.37607421875,1.36318359375,1.3599609375,1.36318359375,1.36318359375,1.36962890625,1.3921875,1.40185546875,1.40830078125,1.40830078125,1.3857421875,1.3599609375,1.36640625,1.38251953125,1.39541015625,1.3921875,1.38251953125,1.38251953125,1.3921875,1.3986328125,1.38251953125,1.3728515625,1.3857421875,1.3857421875,1.379296875,1.38251953125,1.3857421875,1.3857421875,1.3857421875,1.38896484375,1.38251953125,1.38251953125,1.3986328125,1.40830078125,1.39541015625,1.3921875,1.405078125,1.42763671875,1.44697265625,1.4501953125,1.430859375,1.405078125,1.3857421875,1.3728515625,1.37607421875,1.39541015625,1.38251953125,1.35029296875,1.353515625,1.3857421875,1.43408203125,1.5275390625,1.61455078125,1.58876953125,1.456640625,1.35029296875,1.3212890625,1.3212890625,1.3212890625,1.33095703125,1.33740234375,1.31806640625,1.2955078125,1.31806640625,1.353515625,1.36962890625,1.36962890625,1.3599609375,1.353515625,1.36962890625,1.39541015625,1.405078125,1.4115234375,1.44052734375,1.482421875,1.5275390625,1.5662109375,1.5791015625,1.5791015625,1.585546875,1.58232421875,1.53720703125,1.45986328125,1.38896484375,1.35673828125,1.32451171875,1.2697265625,1.23427734375,1.23427734375,1.24072265625
1.27939453125,1.276171875,1.28583984375,1.28583984375,1.2826171875,1.29873046875,1.31162109375,1.31484375,1.31162109375,1.31484375,1.31484375,1.31484375,1.3341796875,1.353515625,1.35029296875,1.35029296875,1.35029296875,1.3470703125,1.35673828125,1.36962890625,1.36962890625,1.36962890625,1.36962890625,1.36318359375,1.35673828125,1.3599609375,1.3599609375,1.36318359375,1.3921875,1.405078125,1.3921875,1.38251953125,1.38896484375,1.3986328125,1.3986328125,1.39541015625,1.40185546875,1.3986328125,1.379296875,1.3728515625,1.3857421875,1.3857421875,1.38896484375,1.39541015625,1.3857421875,1.3921875,1.4115234375,1.4244140625,1.44697265625,1.46630859375,1.4630859375,1.4501953125,1.44375,1.4244140625,1.40185546875,1.39541015625,1.38251953125,1.38251953125,1.405078125,1.42119140625,1.4373046875,1.48564453125,1.58876953125,1.68544921875,1.662890625,1.5146484375,1.39541015625,1.36962890625,1.36318359375,1.36318359375,1.379296875,1.36962890625,1.35673828125,1.3728515625,1.379296875,1.3728515625,1.38251953125,1.3986328125,1.40830078125,1.430859375,1.44375,1.430859375,1.4373046875,1.482421875,1.5146484375,1.52431640625,1.56298828125,1.6177734375,1.65966796875,1.66611328125,1.6435546875,1.6306640625,1.6177734375,1.57265625,1.508203125,1.430859375,1.3728515625,1.353515625,1.33095703125,1.29873046875,1.2955078125,1.2890625,1.28583984375,1.31162109375,1.33740234375,1.340625,1.3341796875,1.33095703125,1.327734375,1.3341796875,1.34384765625,1.3470703125,1.35029296875,1.35673828125,1.36318359375,1.37607421875,1.379296875,1.36318359375,1.340625,1.353515625,1.379296875,1.38896484375,1.38251953125,1.38251953125,1.37607421875,1.36962890625,1.3728515625,1.36962890625,1.36640625,1.36640625,1.3728515625,1.379296875,1.3921875,1.3921875,1.36318359375,1.35029296875,1.36640625,1.3921875,1.3986328125,1.3857421875,1.36962890625,1.36318359375,1.36318359375,1.3728515625,1.379296875,1.38251953125,1.405078125,1.42763671875,1.430859375,1.41474609375,1.3921875,1.379296875,1.36318359375,1.35029296875,1.36318359375,1.36318359375,1.340625,1.340625,1.35673828125,1.36962890625,1.43408203125,1.55654296875,1.62744140625,1.56298828125,1.42119140625,1.33095703125,1.32451171875,1.327734375,1.30517578125,1.301953125,1.3083984375,1.31806640625,1.33740234375,1.3470703125,1.35029296875,1.36640625,1.38251953125,1.39541015625,1.39541015625,1.3986328125,1.40830078125,1.4244140625,1.456640625,1.49853515625,1.53076171875,1.55654296875,1.5791015625,1.6048828125,1.6306640625,1.64033203125,1.62421875,1.585546875,1.51142578125,1.42763671875,1.36640625,1.33095703125,1.31484375,1.3083984375,1.30517578125,1.30517578125,1.31162109375,1.31806640625,1.32451171875,1.32451171875,1.31484375,1.31162109375,1.327734375,1.340625,1.33740234375,1.340625,1.353515625,1.35029296875,1.340625,1.340625,1.3212890625,1.2955078125,1.30517578125,1.33095703125,1.353515625,1.35673828125,1.340625,1.34384765625,1.36318359375,1.35673828125,1.340625,1.35673828125,1.38251953125,1.3857421875,1.3728515625,1.36318359375,1.3728515625,1.3857421875,1.3857421875,1.37607421875,1.379296875,1.38251953125,1.36962890625,1.37607421875,1.39541015625,1.39541015625,1.39541015625,1.41796875,1.456640625,1.47919921875,1.47919921875,1.47275390625,1.4501953125,1.41796875,1.3986328125,1.405078125,1.42119140625,1.41796875,1.405078125,1.4115234375,1.42119140625,1.44697265625,1.51787109375,1.60810546875,1.6177734375,1.51787109375,1.40830078125,1.36962890625,1.38896484375,1.40830078125,1.379296875,1.353515625,1.38251953125,1.4244140625,1.42119140625,1.3986328125,1.3986328125,1.40185546875,1.40185546875,1.39541015625,1.40185546875,1.42119140625,1.4373046875,1.47275390625,1.508203125,1.52431640625,1.53076171875,1.5662109375,1.62421875,1.64677734375,1.64033203125,1.62421875,1.60166015625,1.55654296875,1.47919921875,1.3986328125,1.353515625,1.33095703125,1.3083984375,1.27939453125,1.27294921875,1.2955078125,1.3212890625,1.31162109375,1.276171875,1.2697265625,1.301953125,1.33095703125,1.33095703125,1.3212890625,1.31806640625,1.3341796875,1.340625,1.3341796875,1.33740234375,1.3470703125,1.33740234375,1.327734375,1.35029296875,1.3728515625,1.36640625,1.35029296875,1.35673828125,1.3728515625,1.36318359375,1.340625,1.35029296875,1.3599609375,1.35673828125,1.35673828125,1.36318359375,1.35673828125,1.3470703125,1.353515625,1.36640625,1.36318359375,1.3599609375,1.36962890625,1.379296875,1.37607421875,1.3728515625,1.379296875,1.39541015625,1.41474609375,1.42119140625,1.40185546875,1.37607421875,1.3599609375,1.36318359375,1.3599609375,1.33740234375,1.340625,1.36962890625,1.379296875,1.379296875,1.44697265625,1.58232421875,1.66611328125,1.60810546875,1.4501953125,1.3341796875,1.31806640625,1.33095703125,1.33095703125,1.32451171875,1.33095703125,1.35029296875,1.36962890625,1.37607421875,1.3728515625,1.36962890625,1.36640625,1.379296875,1.3921875,1.38896484375,1.3857421875,1.4244140625,1.46953125,1.4888671875,1.52109375,1.57265625,1.611328125,1.64033203125,1.6564453125,1.637109375,1.6048828125,1.57265625,1.51787109375,1.44697265625,1.38251953125,1.33095703125,1.3083984375,1.30517578125,1.3083984375,1.3212890625,1.33095703125,1.34384765625,1.3470703125,1.33095703125,1.32451171875,1.35029296875,1.379296875,1.37607421875,1.35673828125,1.36640625,1.379296875,1.36640625,1.36962890625,1.40830078125,1.4244140625,1.38896484375,1.36962890625,1.40185546875,1.43408203125,1.41796875,1.379296875,1.3728515625,1.40185546875,1.41796875,1.40830078125,1.40185546875,1.3986328125,1.39541015625,1.4115234375,1.42763671875,1.41796875,1.41796875,1.43408203125,1.4373046875,1.430859375,1.430859375,1.42763671875,1.43408203125,1.44697265625,1.4630859375,1.46953125,1.46953125,1.482421875,1.46630859375,1.3986328125,1.353515625,1.3728515625,1.40185546875,1.3986328125,1.379296875,1.3857421875,1.4373046875,1.53720703125,1.637109375,1.67255859375,1.59521484375,1.45341796875,1.36962890625,1.36962890625,1.3599609375,1.33095703125,1.34384765625,1.3728515625,1.3728515625,1.35673828125,1.35029296875,1.35673828125,1.3599609375,1.3470703125,1.3470703125,1.38251953125,1.40830078125,1.3986328125,1.40830078125,1.42763671875,1.44697265625,1.48564453125,1.5275390625,1.5662109375,1.58876953125,1.5919921875,1.59521484375,1.56943359375,1.50498046875,1.4244140625,1.36640625,1.33095703125,1.2826171875,1.2310546875,1.2181640625,1.2310546875,1.24716796875,1.2439453125,1.224609375,1.224609375,1.2439453125,1.250390625,1.2439453125,1.250390625,1.26328125,1.26328125,1.26650390625,1.27939453125,1.2955078125,1.2955078125,1.27294921875,1.28583984375,1.31806640625,1.31162109375,1.2826171875,1.2890625,1.31484375,1.31806640625,1.31162109375,1.31162109375,1.31806640625,1.327734375,1.3212890625,1.3083984375,1.30517578125,1.33095703125,1.340625,1.3341796875,1.34384765625,1.3728515625,1.3857421875,1.3728515625,1.3728515625,1.4115234375,1.4501953125,1.44052734375,1.3857421875,1.3470703125,1.353515625,1.379296875,1.3728515625,1.35029296875,1.36318359375,1.39541015625,1.430859375,1.51787109375,1.62421875,1.62099609375,1.51142578125,1.4244140625,1.3986328125,1.36962890625,1.3599609375,1.3857421875,1.40185546875,1.40185546875,1.3986328125,1.3986328125,1.3986328125,1.40830078125,1.430859375,1.430859375,1.4244140625,1.43408203125,1.44697265625,1.47275390625,1.51142578125,1.53720703125,1.55009765625,1.59521484375,1.6435546875,1.65966796875,1.662890625,1.67900390625,1.6822265625,1.64033203125,1.56943359375,1.508203125,1.45986328125,1.4115234375,1.36962890625,1.3599609375,1.36962890625,1.353515625,1.33740234375,1.353515625,1.36640625,1.36318359375,1.3599609375,1.36640625,1.35673828125,1.35673828125,1.3857421875,1.40830078125,1.405078125,1.3986328125,1.40185546875,1.405078125,1.40830078125,1.4115234375,1.4115234375,1.405078125,1.39541015625,1.39541015625,1.405078125,1.39541015625,1.3921875,1.40830078125,1.41796875,1.41796875,1.40830078125,1.405078125,1.4244140625,1.44697265625,1.46953125,1.482421875,1.47275390625,1.4501953125,1.41796875,1.39541015625,1.3986328125,1.3921875,1.3728515625,1.3857421875,1.40830078125,1.405078125,1.41474609375,1.47275390625,1.58232421875,1.64677734375,1.57587890625,1.430859375,1.34384765625,1.327734375,1.327734375,1.33740234375,1.34384765625,1.340625,1.353515625,1.36962890625,1.3599609375,1.34384765625,1.36318359375,1.3857421875,1.36640625,1.3470703125,1.36318359375,1.39541015625,1.42119140625,1.42763671875,1.44052734375,1.46630859375,1.50498046875,1.5533203125,1.5984375,1.62421875,1.60810546875,1.559765625,1.5017578125,1.44375,1.36962890625,1.3083984375,1.27939453125,1.27294921875,1.276171875,1.26328125,1.2375,1.2375,1.25361328125,1.25361328125,1.25361328125,1.27294921875,1.28583984375,1.28583984375,1.29228515625,1.29228515625,1.2890625,1.301953125,1.31484375,1.31806640625,1.31162109375,1.29873046875,1.2955078125,1.31484375,1.3212890625,1.31806640625,1.31806640625,1.3341796875,1.340625,1.327734375,1.31806640625,1.32451171875,1.327734375,1.33740234375,1.340625,1.33095703125,1.3341796875,1.353515625,1.3728515625,1.3921875,1.40185546875,1.3857421875,1.35029296875,1.3341796875,1.340625,1.3341796875,1.31484375,1.33740234375,1.37607421875,1.38896484375,1.43408203125,1.5662109375,1.67578125,1.62744140625,1.4759765625,1.37607421875,1.3728515625,1.3857421875,1.38896484375,1.38896484375,1.38896484375,1.39541015625,1.38896484375,1.3857421875,1.405078125,1.4244140625,1.42763671875,1.42119140625,1.4115234375,1.40830078125,1.42119140625,1.45341796875,1.482421875,1.5017578125,1.5275390625,1.5791015625,1.62421875,1.6435546875,1.65,1.6435546875,1.61455078125,1.5662109375,1.508203125,1.44697265625,1.3857421875,1.353515625,1.35673828125,1.34384765625,1.31162109375,1.301953125,1.31484375,1.33740234375,1.3470703125,1.3341796875,1.3341796875,1.3341796875,1.32451171875,1.327734375,1.353515625,1.36640625,1.36318359375,1.36640625,1.36318359375,1.35673828125,1.36318359375,1.3728515625,1.3728515625,1.37607421875,1.36962890625,1.36962890625,1.38251953125,1.38896484375,1.38251953125,1.38251953125,1.40830078125,1.41796875,1.3921875,1.3728515625,1.3857421875,1.405078125,1.3986328125,1.379296875,1.38896484375,1.41474609375,1.4115234375,1.40185546875,1.41796875,1.45986328125,1.48564453125,1.45341796875,1.3986328125,1.379296875,1.379296875,1.3728515625,1.36962890625,1.379296875,1.40830078125,1.4373046875,1.47275390625,1.55654296875,1.6693359375,1.6822265625,1.56943359375,1.43408203125,1.3728515625,1.35673828125,1.34384765625,1.327734375,1.340625,1.36318359375,1.36318359375,1.379296875,1.405078125,1.3921875,1.379296875,1.3921875,1.4115234375,1.4244140625,1.43408203125,1.44052734375,1.44375,1.45341796875,1.47919921875,1.52431640625,1.55654296875,1.5791015625,1.61455078125,1.637109375,1.62744140625,1.5919921875,1.5404296875,1.4759765625,1.40185546875,1.340625,1.301953125,1.2890625,1.27939453125,1.276171875,1.2890625,1.29873046875,1.28583984375,1.27294921875,1.27939453125,1.2955078125,1.301953125,1.30517578125,1.29873046875,1.29228515625,1.3083984375,1.327734375,1.32451171875,1.31162109375,1.3212890625,1.340625,1.34384765625,1.327734375,1.3341796875,1.353515625,1.35029296875,1.3470703125,1.36640625,1.37607421875,1.3728515625,1.3728515625,1.36318359375,1.3599609375,1.3728515625,1.379296875,1.36640625,1.35029296875,1.35673828125,1.379296875,1.38251953125,1.36962890625,1.37607421875,1.3857421875,1.38251953125,1.3857421875,1.3921875,1.38896484375,1.40830078125,1.44052734375,1.43408203125,1.41474609375,1.40830078125,1.3921875,1.379296875,1.3728515625,1.36318359375,1.3599609375,1.35673828125,1.37607421875,1.4115234375,1.48564453125,1.5984375,1.662890625,1.5984375,1.45341796875,1.35673828125,1.340625,1.35029296875,1.33740234375,1.31806640625,1.33095703125,1.3599609375,1.36318359375,1.35673828125,1.35029296875,1.3470703125,1.35673828125,1.37607421875,1.38896484375,1.40185546875,1.42763671875,1.45341796875,1.4630859375,1.47919921875,1.508203125,1.5533203125,1.59521484375,1.6306640625,1.65322265625,1.65322265625,1.6435546875,1.611328125,1.546875,1.46953125,1.42119140625,1.3986328125,1.3728515625,1.35029296875,1.3341796875,1.33740234375,1.340625,1.33095703125,1.32451171875,1.33095703125,1.3470703125,1.35673828125,1.3599609375,1.36318359375,1.353515625,1.3470703125,1.36318359375,1.38251953125,1.36962890625,1.36318359375,1.37607421875,1.38251953125,1.36962890625,1.35029296875,1.3470703125,1.35673828125,1.3470703125,1.340625,1.36318359375,1.3857421875,1.3599609375,1.3341796875,1.35673828125,1.3728515625,1.35029296875,1.33740234375,1.35029296875,1.3599609375,1.3599609375,1.36962890625,1.38251953125,1.38251953125,1.37607421875,1.3728515625,1.38251953125,1.3986328125,1.40185546875,1.38896484375,1.37607421875,1.3599609375,1.353515625,1.36318359375,1.36318359375,1.3470703125,1.35673828125,1.3921875,1.42763671875,1.48564453125,1.55654296875,1.57587890625,1.50498046875,1.40185546875,1.34384765625,1.33740234375,1.3341796875,1.32451171875,1.340625,1.35029296875,1.3341796875,1.33740234375,1.3599609375,1.37607421875,1.39541015625,1.40830078125,1.3986328125,1.3921875,1.41474609375,1.44375,1.45986328125,1.456640625,1.46953125,1.52109375,1.57587890625,1.611328125,1.63388671875,1.65,1.65,1.62099609375,1.5662109375,1.4953125,1.4244140625,1.379296875,1.36318359375,1.3599609375,1.353515625,1.33740234375,1.32451171875,1.32451171875,1.327734375,1.32451171875,1.3212890625,1.32451171875,1.3341796875,1.36318359375,1.3857421875,1.36640625,1.3470703125,1.36318359375,1.38896484375,1.3921875,1.37607421875,1.36640625,1.37607421875,1.3921875,1.38896484375,1.38251953125,1.37607421875,1.3728515625,1.38251953125,1.39541015625,1.39541015625,1.3857421875,1.38251953125,1.3857421875,1.38896484375,1.39541015625,1.3986328125,1.38251953125,1.37607421875,1.3857421875,1.3857421875,1.37607421875,1.38251953125,1.38896484375,1.38896484375,1.38896484375,1.39541015625,1.39541015625,1.38251953125,1.353515625,1.31484375,1.301953125,1.301953125,1.3083984375,1.32451171875,1.340625,1.34384765625,1.35673828125,1.430859375,1.559765625,1.637109375,1.58232421875,1.456640625,1.36962890625,1.34384765625,1.340625,1.35029296875,1.36640625,1.37607421875,1.37607421875,1.36962890625,1.3728515625,1.379296875,1.38251953125,1.39541015625,1.40830078125,1.4115234375,1.41796875,1.430859375,1.45341796875,1.47275390625,1.5017578125,1.51787109375,1.5533203125,1.60810546875,1.637109375,1.637109375,1.6306640625,1.62421875,1.5919921875,1.533984375,1.46630859375,1.3921875,1.340625,1.327734375,1.33740234375,1.3212890625,1.3083984375,1.327734375,1.327734375,1.31162109375,1.31162109375,1.31806640625,1.31806640625,1.32451171875,1.33740234375,1.33095703125,1.33740234375,1.35029296875,1.33740234375,1.327734375,1.35029296875,1.35673828125,1.3470703125,1.35029296875,1.36318359375,1.35673828125,1.353515625,1.35673828125,1.3470703125,1.340625,1.35673828125,1.36640625,1.35673828125,1.35029296875,1.35673828125,1.36318359375,1.38251953125,1.37607421875,1.3599609375,1.36640625,1.37607421875,1.36962890625,1.3728515625,1.38251953125,1.3857421875,1.3728515625,1.36962890625,1.379296875,1.39541015625,1.3986328125,1.3921875,1.40185546875,1.4115234375,1.405078125,1.42763671875,1.44697265625,1.4115234375,1.35029296875,1.340625,1.3599609375,1.36640625,1.35673828125,1.36640625,1.3857421875,1.41474609375,1.47919921875,1.5919921875,1.662890625,1.60810546875,1.48564453125,1.3986328125,1.3599609375,1.340625,1.3341796875,1.3470703125,1.3599609375,1.36640625,1.35673828125,1.35673828125,1.37607421875,1.40185546875,1.4115234375,1.3921875,1.3986328125,1.4244140625,1.430859375,1.43408203125,1.4501953125,1.4759765625,1.51142578125,1.56943359375,1.60166015625,1.611328125,1.63388671875,1.65,1.64033203125,1.611328125,1.559765625,1.4759765625,1.3921875,1.3599609375,1.3470703125,1.32451171875,1.31806640625,1.31162109375,1.2955078125,1.29873046875,1.31806640625,1.31162109375,1.29873046875,1.327734375,1.35673828125,1.3341796875,1.3083984375,1.31806640625,1.34384765625,1.3470703125,1.327734375,1.3212890625,1.33095703125,1.34384765625,1.36640625,1.37607421875,1.36318359375,1.35673828125,1.37607421875,1.3921875,1.3857421875,1.379296875,1.379296875,1.36962890625,1.36318359375,1.38896484375,1.40185546875,1.3857421875,1.38251953125,1.39541015625,1.38896484375,1.38251953125,1.39541015625,1.40185546875,1.3986328125,1.41474609375,1.430859375,1.430859375,1.42119140625,1.41474609375,1.405078125,1.405078125,1.42119140625,1.430859375,1.44375,1.46953125,1.46630859375,1.430859375,1.3921875,1.38251953125,1.39541015625
1.37607421875,1.40185546875,1.42763671875,1.4244140625,1.3921875,1.36640625,1.35029296875,1.34384765625,1.353515625,1.3599609375,1.3599609375,1.36962890625,1.379296875,1.3986328125,1.46953125,1.56943359375,1.60166015625,1.51787109375,1.405078125,1.33740234375,1.32451171875,1.33095703125,1.3470703125,1.36318359375,1.3728515625,1.38251953125,1.38251953125,1.36318359375,1.36318359375,1.3986328125,1.42119140625,1.405078125,1.39541015625,1.405078125,1.41796875,1.430859375,1.4501953125,1.4630859375,1.4888671875,1.546875,1.59521484375,1.6177734375,1.6306640625,1.62421875,1.60166015625,1.559765625,1.4888671875,1.41474609375,1.3599609375,1.32451171875,1.3083984375,1.29228515625,1.29228515625,1.301953125,1.301953125,1.31162109375,1.31806640625,1.31484375,1.31806640625,1.327734375,1.3212890625,1.33095703125,1.353515625,1.3599609375,1.36640625,1.37607421875,1.38896484375,1.3986328125,1.3857421875,1.3599609375,1.34384765625,1.3470703125,1.3470703125,1.35029296875,1.36962890625,1.36318359375,1.340625,1.35029296875,1.37607421875,1.37607421875,1.3728515625,1.3857421875,1.40185546875,1.40830078125,1.41796875,1.43408203125,1.44697265625,1.456640625,1.46953125,1.4630859375,1.44052734375,1.40185546875,1.37607421875,1.36318359375,1.37607421875,1.38251953125,1.3728515625,1.37607421875,1.3921875,1.43408203125,1.53720703125,1.64033203125,1.6177734375,1.4888671875,1.38896484375,1.36318359375,1.36640625,1.36640625,1.353515625,1.35673828125,1.36318359375,1.36640625,1.36962890625,1.38896484375,1.405078125,1.38896484375,1.37607421875,1.39541015625,1.4115234375,1.41474609375,1.4244140625,1.4373046875,1.4630859375,1.508203125,1.53076171875,1.54365234375,1.5791015625,1.62099609375,1.64033203125,1.637109375,1.611328125,1.56298828125,1.49208984375,1.41474609375,1.36318359375,1.3341796875,1.3083984375,1.30517578125,1.31484375,1.3083984375,1.301953125,1.301953125,1.3083984375,1.31484375,1.3083984375,1.31162109375,1.3341796875,1.33740234375,1.340625,1.353515625,1.3599609375,1.36318359375,1.36640625,1.36962890625,1.37607421875,1.36962890625,1.35029296875,1.35029296875,1.3728515625,1.38251953125,1.38251953125,1.379296875,1.37607421875,1.3728515625,1.36962890625,1.36318359375,1.37607421875,1.38896484375,1.3728515625,1.36318359375,1.37607421875,1.38896484375,1.3986328125,1.42119140625,1.45341796875,1.456640625,1.4373046875,1.4115234375,1.3921875,1.3728515625,1.36962890625,1.379296875,1.38896484375,1.39541015625,1.40830078125,1.40185546875,1.40830078125,1.4888671875,1.6177734375,1.65966796875,1.54365234375,1.3986328125,1.3470703125,1.34384765625,1.32451171875,1.31806640625,1.3341796875,1.35673828125,1.3599609375,1.3470703125,1.34384765625,1.35673828125,1.36318359375,1.35029296875,1.35673828125,1.3728515625,1.3728515625,1.37607421875,1.3921875,1.41474609375,1.4501953125,1.49208984375,1.51142578125,1.52109375,1.5404296875,1.56298828125,1.56298828125,1.54365234375,1.50498046875,1.45986328125,1.405078125,1.340625,1.27939453125,1.25361328125,1.25361328125,1.25361328125,1.24716796875,1.25361328125,1.27939453125,1.2826171875,1.26328125,1.27294921875,1.301953125,1.3083984375,1.29873046875,1.2890625,1.3083984375,1.3341796875,1.327734375,1.30517578125,1.3212890625,1.36640625,1.37607421875,1.34384765625,1.33095703125,1.33740234375,1.33740234375,1.3341796875,1.35029296875,1.36640625,1.3470703125,1.3341796875,1.3599609375,1.38251953125,1.3728515625,1.36318359375,1.36640625,1.38251953125,1.38896484375,1.3857421875,1.3921875,1.4115234375,1.430859375,1.430859375,1.42119140625,1.4244140625,1.45341796875,1.482421875,1.482421875,1.4759765625,1.44697265625,1.405078125,1.3921875,1.40830078125,1.40830078125,1.379296875,1.38251953125,1.430859375,1.45341796875,1.46953125,1.559765625,1.68544921875,1.69189453125,1.56298828125,1.4373046875,1.38896484375,1.3728515625,1.36318359375,1.3599609375,1.3728515625,1.37607421875,1.3857421875,1.41474609375,1.43408203125,1.43408203125,1.43408203125,1.45341796875,1.47275390625,1.456640625,1.45341796875,1.4888671875,1.50498046875,1.482421875,1.49208984375,1.5533203125,1.611328125,1.6435546875,1.65322265625,1.65322265625,1.65966796875,1.6564453125,1.60166015625,1.533984375,1.4888671875,1.44375,1.38896484375,1.353515625,1.327734375,1.31806640625,1.31806640625,1.31806640625,1.32451171875,1.33095703125,1.33740234375,1.35673828125,1.36962890625,1.35673828125,1.327734375,1.32451171875,1.35673828125,1.36318359375,1.340625,1.33740234375,1.35029296875,1.3728515625,1.38896484375,1.38251953125,1.36640625,1.3599609375,1.3728515625,1.379296875,1.3857421875,1.38251953125,1.37607421875,1.37607421875,1.3728515625,1.36962890625,1.37607421875,1.38251953125,1.3728515625,1.36962890625,1.3857421875,1.38896484375,1.37607421875,1.3728515625,1.36640625,1.3599609375,1.36640625,1.36640625,1.35673828125,1.353515625,1.3728515625,1.3986328125,1.41796875,1.4115234375,1.37607421875,1.340625,1.3341796875,1.3341796875,1.3212890625,1.33095703125,1.353515625,1.35029296875,1.36318359375,1.44052734375,1.55654296875,1.5984375,1.51142578125,1.38896484375,1.327734375,1.32451171875,1.3470703125,1.35673828125,1.340625,1.327734375,1.34384765625,1.37607421875,1.36640625,1.3341796875,1.3341796875,1.35673828125,1.36962890625,1.3857421875,1.405078125,1.41474609375,1.41796875,1.42763671875,1.44697265625,1.482421875,1.52109375,1.533984375,1.53720703125,1.57265625,1.60166015625,1.5919921875,1.56298828125,1.51787109375,1.44052734375,1.3599609375,1.31484375,1.30517578125,1.2955078125,1.26328125,1.2568359375,1.2955078125,1.3212890625,1.29873046875,1.276171875,1.2890625,1.3083984375,1.2955078125,1.2955078125,1.33095703125,1.35029296875,1.34384765625,1.3341796875,1.33740234375,1.35029296875,1.353515625,1.35673828125,1.36318359375,1.3728515625,1.379296875,1.3728515625,1.3599609375,1.36318359375,1.379296875,1.37607421875,1.36318359375,1.36318359375,1.36962890625,1.3728515625,1.36318359375,1.3599609375,1.37607421875,1.3857421875,1.38896484375,1.40185546875,1.40185546875,1.3857421875,1.3986328125,1.41796875,1.41474609375,1.40830078125,1.41796875,1.430859375,1.44697265625,1.45341796875,1.42763671875,1.39541015625,1.379296875,1.38896484375,1.405078125,1.39541015625,1.3921875,1.405078125,1.430859375,1.482421875,1.57587890625,1.64033203125,1.5791015625,1.4373046875,1.36962890625,1.3857421875,1.3921875,1.36962890625,1.35673828125,1.36318359375,1.379296875,1.3921875,1.3921875,1.38251953125,1.37607421875,1.3857421875,1.41474609375,1.430859375,1.42763671875,1.42119140625,1.4244140625,1.44375,1.45986328125,1.46953125,1.50498046875,1.559765625,1.60810546875,1.637109375,1.64677734375,1.62744140625,1.58876953125,1.53076171875,1.45341796875,1.38251953125,1.35029296875,1.33740234375,1.32451171875,1.31484375,1.3212890625,1.3212890625,1.31162109375,1.301953125,1.30517578125,1.30517578125,1.31162109375,1.3212890625,1.31806640625,1.31806640625,1.34384765625,1.36640625,1.379296875,1.379296875,1.36640625,1.3599609375,1.36640625,1.3728515625,1.36962890625,1.379296875,1.39541015625,1.38251953125,1.36962890625,1.379296875,1.38896484375,1.38251953125,1.36962890625,1.3599609375,1.36640625,1.36962890625,1.3728515625,1.3921875,1.3921875,1.3728515625,1.36962890625,1.38896484375,1.3986328125,1.3921875,1.3857421875,1.37607421875,1.38251953125,1.39541015625,1.38896484375,1.38896484375,1.3986328125,1.40830078125,1.4244140625,1.44375,1.456640625,1.4501953125,1.43408203125,1.4244140625,1.40185546875,1.379296875,1.3857421875,1.40185546875,1.3921875,1.38251953125,1.405078125,1.456640625,1.53720703125,1.637109375,1.65966796875,1.559765625,1.4115234375,1.327734375,1.32451171875,1.340625,1.34384765625,1.340625,1.3341796875,1.3341796875,1.340625,1.34384765625,1.35029296875,1.36962890625,1.3857421875,1.3857421875,1.3921875,1.40830078125,1.4244140625,1.4373046875,1.44697265625,1.46630859375,1.49853515625,1.53076171875,1.57265625,1.62099609375,1.65966796875,1.662890625,1.6435546875,1.60810546875,1.546875,1.4759765625,1.4244140625,1.379296875,1.34384765625,1.33740234375,1.34384765625,1.33740234375,1.33095703125,1.33740234375,1.340625,1.340625,1.3341796875,1.3341796875,1.35673828125,1.3728515625,1.36318359375,1.36640625,1.3728515625,1.36318359375,1.35029296875,1.3728515625,1.40185546875,1.39541015625,1.379296875,1.3857421875,1.39541015625,1.379296875,1.3599609375,1.36318359375,1.3857421875,1.3986328125,1.38896484375,1.38896484375,1.39541015625,1.3921875,1.37607421875,1.36640625,1.353515625,1.32451171875,1.30517578125,1.327734375,1.379296875,1.3857421875,1.353515625,1.33740234375,1.33095703125,1.3341796875,1.353515625,1.3470703125,1.31484375,1.31162109375,1.3470703125,1.37607421875,1.3728515625,1.3599609375,1.36640625,1.3857421875,1.40185546875,1.40185546875,1.39541015625,1.38251953125,1.36962890625,1.37607421875,1.38251953125,1.36318359375,1.34384765625,1.34384765625,1.353515625,1.37607421875,1.42763671875,1.53076171875,1.62099609375,1.6048828125,1.4888671875,1.379296875,1.33095703125,1.32451171875,1.3212890625,1.32451171875,1.353515625,1.37607421875,1.35029296875,1.340625,1.3599609375,1.36962890625,1.3728515625,1.379296875,1.379296875,1.39541015625,1.41474609375,1.41796875,1.40830078125,1.4244140625,1.45986328125,1.482421875,1.50498046875,1.5275390625,1.55654296875,1.57587890625,1.58232421875,1.57587890625,1.53720703125,1.482421875,1.4373046875,1.38896484375,1.3341796875,1.30517578125,1.2890625,1.27294921875,1.2697265625,1.27294921875,1.276171875,1.28583984375,1.29228515625,1.3083984375,1.32451171875,1.3212890625,1.327734375,1.3470703125,1.340625,1.327734375,1.353515625,1.38251953125,1.379296875,1.37607421875,1.36640625,1.35673828125,1.36640625,1.38251953125,1.39541015625,1.3986328125,1.38251953125,1.37607421875,1.38896484375,1.3986328125,1.40185546875,1.3921875,1.38251953125,1.38896484375,1.40830078125,1.42763671875,1.42119140625,1.38896484375,1.37607421875,1.3921875,1.40185546875,1.3921875,1.3857421875,1.39541015625,1.41474609375,1.42119140625,1.41474609375,1.42119140625,1.4244140625,1.42763671875,1.42763671875,1.42763671875,1.44375,1.4630859375,1.45986328125,1.4373046875,1.42119140625,1.40830078125,1.3921875,1.38251953125,1.3921875,1.40185546875,1.40830078125,1.4115234375,1.4630859375,1.56943359375,1.65,1.60810546875,1.49208984375,1.40830078125,1.3986328125,1.4115234375,1.40185546875,1.3857421875,1.40185546875,1.42763671875,1.430859375,1.40830078125,1.3921875,1.42119140625,1.45986328125,1.44697265625,1.4115234375,1.4244140625,1.4501953125,1.4630859375,1.47275390625,1.4888671875,1.508203125,1.53720703125,1.5662109375,1.5984375,1.637109375,1.64677734375,1.63388671875,1.62099609375,1.5919921875,1.52109375,1.44375,1.3986328125,1.353515625,1.327734375,1.32451171875,1.31162109375,1.2890625,1.29873046875,1.327734375,1.33095703125,1.31806640625,1.327734375,1.340625,1.3341796875,1.32451171875,1.33740234375,1.353515625,1.35029296875,1.34384765625,1.33740234375,1.33740234375,1.35673828125,1.36962890625,1.340625,1.31484375,1.327734375,1.35029296875,1.35029296875,1.34384765625,1.35029296875,1.353515625,1.34384765625,1.340625,1.353515625,1.3599609375,1.3599609375,1.36640625,1.35673828125,1.3341796875,1.35029296875,1.3857421875,1.379296875,1.3470703125,1.34384765625,1.35673828125,1.3599609375,1.35673828125,1.3470703125,1.35029296875,1.36640625,1.36640625,1.36318359375,1.39541015625,1.44052734375,1.43408203125,1.39541015625,1.36318359375,1.34384765625,1.327734375,1.3341796875,1.340625,1.33095703125,1.33095703125,1.36640625,1.4501953125,1.56298828125,1.62744140625,1.57587890625,1.44375,1.35673828125,1.33740234375,1.340625,1.33740234375,1.3212890625,1.30517578125,1.32451171875,1.36640625,1.3728515625,1.35673828125,1.36962890625,1.379296875,1.3728515625,1.36962890625,1.36640625,1.37607421875,1.3921875,1.405078125,1.4244140625,1.4759765625,1.51787109375,1.5404296875,1.57265625,1.6177734375,1.62744140625,1.61455078125,1.60810546875,1.56943359375,1.48564453125,1.405078125,1.36962890625,1.353515625,1.33095703125,1.31162109375,1.301953125,1.2955078125,1.30517578125,1.3212890625,1.32451171875,1.31484375,1.31162109375,1.31162109375,1.3212890625,1.34384765625,1.3599609375,1.36318359375,1.36318359375,1.36640625,1.3728515625,1.36962890625,1.3728515625,1.3857421875,1.38896484375,1.379296875,1.37607421875,1.3921875,1.3921875,1.379296875,1.379296875,1.38896484375,1.39541015625,1.38896484375,1.3921875,1.3986328125,1.3921875,1.38251953125,1.38896484375,1.405078125,1.405078125,1.38251953125,1.36640625,1.3728515625,1.38251953125,1.379296875,1.3857421875,1.3921875,1.38896484375,1.40185546875,1.42119140625,1.41474609375,1.39541015625,1.38896484375,1.39541015625,1.4244140625,1.456640625,1.4630859375,1.45341796875,1.43408203125,1.40830078125,1.37607421875,1.379296875,1.4115234375,1.4244140625,1.405078125,1.38896484375,1.4115234375,1.4759765625,1.56943359375,1.65322265625,1.64033203125,1.5146484375,1.40185546875,1.379296875,1.3857421875,1.36640625,1.34384765625,1.3470703125,1.3599609375,1.36318359375,1.353515625,1.35673828125,1.36962890625,1.3728515625,1.3857421875,1.405078125,1.41796875,1.40830078125,1.4115234375,1.430859375,1.4501953125,1.45986328125,1.4759765625,1.5146484375,1.5533203125,1.585546875,1.62421875,1.6435546875,1.63388671875,1.60166015625,1.53076171875,1.44375,1.3857421875,1.35029296875,1.31484375,1.2955078125,1.29873046875,1.30517578125,1.2955078125,1.28583984375,1.2955078125,1.327734375,1.340625,1.31484375,1.31484375,1.3599609375,1.38251953125,1.36640625,1.34384765625,1.33740234375,1.3470703125,1.3599609375,1.3599609375,1.36318359375,1.3728515625,1.38251953125,1.37607421875,1.3599609375,1.353515625,1.36318359375,1.36318359375,1.3470703125,1.340625,1.3470703125,1.3599609375,1.36962890625,1.3857421875,1.3857421875,1.379296875,1.379296875,1.3728515625,1.36962890625,1.36318359375,1.36962890625,1.38251953125,1.37607421875,1.379296875,1.3857421875,1.3857421875,1.3921875,1.38251953125,1.36640625,1.37607421875,1.38896484375,1.38896484375,1.39541015625,1.40830078125,1.40185546875,1.40185546875,1.41474609375,1.42119140625,1.4373046875,1.456640625,1.44697265625,1.40830078125,1.36318359375,1.3470703125,1.36318359375,1.36962890625,1.36318359375,1.37607421875,1.42763671875,1.482421875,1.5662109375,1.6564453125,1.637109375,1.49853515625,1.3857421875,1.35673828125,1.33740234375,1.327734375,1.353515625,1.3728515625,1.379296875,1.379296875,1.37607421875,1.3921875,1.3986328125,1.38896484375,1.38896484375,1.405078125,1.41474609375,1.4244140625,1.43408203125,1.4373046875,1.44697265625,1.482421875,1.5275390625,1.5533203125,1.57587890625,1.5984375,1.61455078125,1.62099609375,1.6177734375,1.5791015625,1.51142578125,1.456640625,1.42119140625,1.36962890625,1.327734375,1.31806640625,1.31806640625,1.301953125,1.276171875,1.26650390625,1.2826171875,1.31162109375,1.31806640625,1.30517578125,1.30517578125,1.31484375,1.327734375,1.3341796875,1.32451171875,1.31806640625,1.32451171875,1.340625,1.36640625,1.379296875,1.36640625,1.35029296875,1.3599609375,1.3728515625,1.3728515625,1.3599609375,1.34384765625,1.34384765625,1.36640625,1.37607421875,1.37607421875,1.3728515625,1.36318359375,1.34384765625,1.353515625,1.379296875,1.3921875,1.379296875,1.3728515625,1.39541015625,1.41796875,1.42119140625,1.40185546875,1.38251953125,1.38251953125,1.38896484375,1.39541015625,1.3986328125,1.39541015625,1.40185546875,1.4115234375,1.40830078125,1.4115234375,1.42119140625,1.43408203125,1.430859375,1.41796875,1.405078125,1.38896484375,1.36962890625,1.36318359375,1.36962890625,1.36962890625,1.3728515625,1.3986328125,1.44697265625,1.5017578125,1.57265625,1.611328125,1.5404296875,1.41474609375,1.35029296875,1.35029296875,1.3599609375,1.353515625,1.3341796875,1.33740234375,1.36962890625,1.3921875,1.38896484375,1.3728515625,1.36962890625,1.36640625,1.36962890625,1.37607421875,1.38251953125,1.3857421875,1.3986328125,1.41796875,1.44375,1.4759765625,1.4888671875,1.508203125,1.56298828125,1.60166015625,1.60810546875,1.60810546875,1.59521484375,1.55009765625,1.49853515625,1.4501953125,1.3921875,1.33740234375,1.32451171875,1.32451171875,1.3083984375,1.301953125,1.30517578125,1.301953125,1.301953125,1.33095703125,1.34384765625,1.32451171875,1.3341796875,1.3728515625,1.379296875,1.36318359375,1.35673828125,1.35673828125,1.36640625,1.3728515625,1.36318359375,1.36640625,1.3921875,1.405078125,1.39541015625,1.3986328125,1.40185546875,1.3921875,1.38896484375,1.39541015625,1.3857421875,1.38896484375,1.41474609375,1.4244140625,1.41796875,1.42119140625,1.4244140625,1.430859375,1.430859375,1.42763671875
1.32451171875,1.31484375,1.340625,1.36318359375,1.353515625,1.340625,1.3470703125,1.36318359375,1.36962890625,1.36640625,1.3728515625,1.3921875,1.4115234375,1.4115234375,1.40185546875,1.405078125,1.4373046875,1.4630859375,1.46630859375,1.456640625,1.42763671875,1.38896484375,1.3728515625,1.3921875,1.3921875,1.36318359375,1.36640625,1.41474609375,1.4373046875,1.45341796875,1.54365234375,1.6693359375,1.67900390625,1.55009765625,1.4244140625,1.3728515625,1.3599609375,1.35029296875,1.3470703125,1.3599609375,1.36640625,1.3728515625,1.40185546875,1.4244140625,1.42119140625,1.42119140625,1.44375,1.45986328125,1.44697265625,1.44375,1.4759765625,1.4953125,1.47275390625,1.48564453125,1.54365234375,1.60166015625,1.63388671875,1.6435546875,1.64677734375,1.65322265625,1.64677734375,1.59521484375,1.52431640625,1.482421875,1.4373046875,1.38251953125,1.3470703125,1.3212890625,1.31162109375,1.31162109375,1.31484375,1.31806640625,1.32451171875,1.3341796875,1.353515625,1.36640625,1.353515625,1.32451171875,1.3212890625,1.353515625,1.3599609375,1.340625,1.3341796875,1.35029296875,1.36962890625,1.3857421875,1.379296875,1.36318359375,1.3599609375,1.36962890625,1.379296875,1.3857421875,1.38251953125,1.37607421875,1.37607421875,1.3728515625,1.36962890625,1.37607421875,1.38251953125,1.37607421875,1.36962890625,1.3857421875,1.3921875,1.379296875,1.3728515625,1.36640625,1.36318359375,1.36640625,1.36640625,1.3599609375,1.35673828125,1.37607421875,1.40185546875,1.42119140625,1.41474609375,1.379296875,1.34384765625,1.33740234375,1.33740234375,1.32451171875,1.3341796875,1.35673828125,1.353515625,1.36318359375,1.44052734375,1.559765625,1.60166015625,1.5146484375,1.3921875,1.33095703125,1.327734375,1.35029296875,1.3599609375,1.34384765625,1.33095703125,1.3470703125,1.379296875,1.36962890625,1.33740234375,1.340625,1.3599609375,1.3728515625,1.38896484375,1.40830078125,1.41796875,1.42119140625,1.430859375,1.4501953125,1.48564453125,1.52431640625,1.53720703125,1.54365234375,1.57587890625,1.6048828125,1.59521484375,1.5662109375,1.52109375,1.44375,1.36318359375,1.31806640625,1.3083984375,1.29873046875,1.26650390625,1.26005859375,1.29873046875,1.32451171875,1.301953125,1.27939453125,1.29228515625,1.3083984375,1.2955078125,1.29873046875,1.3341796875,1.353515625,1.3470703125,1.33740234375,1.340625,1.353515625,1.35673828125,1.3599609375,1.36640625,1.37607421875,1.38251953125,1.37607421875,1.3599609375,1.36640625,1.379296875,1.379296875,1.36640625,1.36318359375,1.3728515625,1.3728515625,1.36318359375,1.36318359375,1.37607421875,1.38896484375,1.3921875,1.405078125,1.40185546875,1.3857421875,1.3986328125,1.41796875,1.41474609375,1.4115234375,1.41796875,1.430859375,1.4501953125,1.45341796875,1.430859375,1.39541015625,1.379296875,1.38896484375,1.405078125,1.39541015625,1.3921875,1.405078125,1.430859375,1.482421875,1.57587890625,1.64033203125,1.5791015625,1.4373046875,1.36962890625,1.3857421875,1.3921875,1.36962890625,1.35673828125,1.36318359375,1.379296875,1.3921875,1.38896484375,1.38251953125,1.37607421875,1.3857421875,1.41474609375,1.430859375,1.42763671875,1.42119140625,1.4244140625,1.44375,1.456640625,1.46630859375,1.5017578125,1.559765625,1.6048828125,1.637109375,1.64677734375,1.62744140625,1.585546875,1.53076171875,1.45341796875,1.38251953125,1.3470703125,1.33740234375,1.32451171875,1.31484375,1.3212890625,1.3212890625,1.3083984375,1.301953125,1.30517578125,1.301953125,1.3083984375,1.3212890625,1.31806640625,1.31806640625,1.340625,1.36318359375,1.37607421875,1.379296875,1.36640625,1.3599609375,1.36640625,1.36962890625,1.36640625,1.37607421875,1.3921875,1.38251953125,1.36962890625,1.379296875,1.38896484375,1.379296875,1.36962890625,1.3599609375,1.36318359375,1.36640625,1.3728515625,1.3921875,1.3921875,1.3728515625,1.36962890625,1.38896484375,1.3986328125,1.3921875,1.38251953125,1.37607421875,1.379296875,1.3921875,1.38896484375,1.3857421875,1.3986328125,1.40830078125,1.42119140625,1.44052734375,1.45341796875,1.44697265625,1.43408203125,1.4244140625,1.3986328125,1.37607421875,1.3857421875,1.3986328125,1.38896484375,1.379296875,1.405078125,1.456640625,1.53720703125,1.637109375,1.65966796875,1.559765625,1.4115234375,1.327734375,1.32451171875,1.33740234375,1.34384765625,1.340625,1.33095703125,1.3341796875,1.340625,1.340625,1.3470703125,1.36962890625,1.3857421875,1.3857421875,1.38896484375,1.405078125,1.42119140625,1.4373046875,1.44697265625,1.46630859375,1.49853515625,1.53076171875,1.57265625,1.62099609375,1.6564453125,1.65966796875,1.6435546875,1.60810546875,1.546875,1.4759765625,1.4244140625,1.379296875,1.34384765625,1.33740234375,1.34384765625,1.3341796875,1.33095703125,1.33740234375,1.340625,1.340625,1.3341796875,1.3341796875,1.35673828125,1.3728515625,1.36318359375,1.36640625,1.3728515625,1.36318359375,1.353515625,1.3728515625,1.40185546875,1.39541015625,1.379296875,1.3857421875,1.39541015625,1.379296875,1.3599609375,1.36318359375,1.3857421875,1.3986328125,1.38896484375,1.38896484375,1.39541015625,1.39541015625,1.37607421875,1.36640625,1.353515625,1.32451171875,1.30517578125,1.327734375,1.379296875,1.3857421875,1.353515625,1.33740234375,1.33095703125,1.3341796875,1.353515625,1.35029296875,1.31484375,1.31162109375,1.35029296875,1.379296875,1.3728515625,1.3599609375,1.36962890625,1.3857421875,1.40185546875,1.40185546875,1.39541015625,1.3857421875,1.36962890625,1.37607421875,1.38251953125,1.36318359375,1.34384765625,1.34384765625,1.353515625,1.37607421875,1.430859375,1.53076171875,1.62421875,1.6048828125,1.4888671875,1.38251953125,1.3341796875,1.32451171875,1.3212890625,1.32451171875,1.35673828125,1.37607421875,1.35029296875,1.340625,1.3599609375,1.3728515625,1.37607421875,1.379296875,1.38251953125,1.39541015625,1.41474609375,1.41796875,1.40830078125,1.4244140625,1.45986328125,1.482421875,1.50498046875,1.5275390625,1.55654296875,1.57587890625,1.585546875,1.57587890625,1.5404296875,1.482421875,1.44052734375,1.38896484375,1.3341796875,1.30517578125,1.29228515625,1.27294921875,1.2697265625,1.27294921875,1.27939453125,1.28583984375,1.2955078125,1.3083984375,1.32451171875,1.3212890625,1.327734375,1.3470703125,1.340625,1.327734375,1.353515625,1.38251953125,1.379296875,1.37607421875,1.36962890625,1.35673828125,1.36640625,1.38251953125,1.39541015625,1.3986328125,1.38251953125,1.379296875,1.38896484375,1.3986328125,1.40185546875,1.39541015625,1.38251953125,1.3921875,1.40830078125,1.430859375,1.42119140625,1.3921875,1.379296875,1.3921875,1.40185546875,1.3921875,1.3857421875,1.39541015625,1.41796875,1.42119140625,1.41796875,1.42119140625,1.42763671875,1.42763671875,1.42763671875,1.42763671875,1.44375,1.4630859375,1.45986328125,1.44052734375,1.42119140625,1.40830078125,1.3921875,1.38251953125,1.3921875,1.40185546875,1.40830078125,1.41474609375,1.4630859375,1.57265625,1.65,1.60810546875,1.49208984375,1.4115234375,1.3986328125,1.4115234375,1.40185546875,1.3857421875,1.40185546875,1.42763671875,1.430859375,1.40830078125,1.3921875,1.42119140625,1.45986328125,1.44697265625,1.4115234375,1.4244140625,1.4501953125,1.4630859375,1.47275390625,1.48564453125,1.508203125,1.53720703125,1.5662109375,1.5984375,1.637109375,1.64677734375,1.63388671875,1.62099609375,1.5919921875,1.52109375,1.44375,1.3986328125,1.353515625,1.327734375,1.32451171875,1.3083984375,1.2890625,1.2955078125,1.32451171875,1.327734375,1.31806640625,1.32451171875,1.340625,1.3341796875,1.32451171875,1.3341796875,1.35029296875,1.35029296875,1.34384765625,1.33740234375,1.33740234375,1.35673828125,1.36640625,1.340625,1.31484375,1.327734375,1.35029296875,1.35029296875,1.34384765625,1.3470703125,1.35029296875,1.340625,1.340625,1.353515625,1.3599609375,1.3599609375,1.36640625,1.353515625,1.33095703125,1.3470703125,1.38251953125,1.37607421875,1.3470703125,1.340625,1.35673828125,1.3599609375,1.35673828125,1.34384765625,1.35029296875,1.36640625,1.36640625,1.36318359375,1.39541015625,1.4373046875,1.43408203125,1.3921875,1.36318359375,1.340625,1.327734375,1.3341796875,1.33740234375,1.33095703125,1.33095703125,1.36318359375,1.44697265625,1.559765625,1.62744140625,1.57265625,1.44375,1.35673828125,1.3341796875,1.340625,1.33740234375,1.3212890625,1.30517578125,1.32451171875,1.36640625,1.3728515625,1.35673828125,1.36640625,1.379296875,1.3728515625,1.36640625,1.36640625,1.37607421875,1.3921875,1.40185546875,1.4244140625,1.47275390625,1.51787109375,1.53720703125,1.57265625,1.61455078125,1.62744140625,1.61455078125,1.6048828125,1.56943359375,1.48564453125,1.405078125,1.36962890625,1.353515625,1.33095703125,1.31162109375,1.301953125,1.2955078125,1.30517578125,1.3212890625,1.32451171875,1.31484375,1.31162109375,1.31162109375,1.3212890625,1.340625,1.3599609375,1.36318359375,1.36318359375,1.36640625,1.3728515625,1.36962890625,1.3728515625,1.3857421875,1.38896484375,1.379296875,1.37607421875,1.3921875,1.39541015625,1.379296875,1.379296875,1.3921875,1.39541015625,1.3921875,1.3921875,1.40185546875,1.3921875,1.38251953125,1.38896484375,1.40830078125,1.40830078125,1.38251953125,1.36640625,1.37607421875,1.38251953125,1.379296875,1.3857421875,1.39541015625,1.3921875,1.405078125,1.42119140625,1.41474609375,1.3986328125,1.38896484375,1.3986328125,1.42763671875,1.456640625,1.46630859375,1.45341796875,1.4373046875,1.4115234375,1.379296875,1.38251953125,1.4115234375,1.4244140625,1.405078125,1.3921875,1.41474609375,1.47919921875,1.57265625,1.6564453125,1.6435546875,1.51787109375,1.405078125,1.38251953125,1.38896484375,1.36962890625,1.3470703125,1.35029296875,1.36318359375,1.36640625,1.35673828125,1.3599609375,1.3728515625,1.37607421875,1.38896484375,1.4115234375,1.42119140625,1.4115234375,1.41474609375,1.43408203125,1.45341796875,1.4630859375,1.47919921875,1.51787109375,1.559765625,1.58876953125,1.62744140625,1.64677734375,1.637109375,1.6048828125,1.533984375,1.44697265625,1.38896484375,1.353515625,1.31806640625,1.29873046875,1.301953125,1.3083984375,1.29873046875,1.2890625,1.29873046875,1.327734375,1.34384765625,1.31806640625,1.31806640625,1.36318359375,1.38251953125,1.36962890625,1.3470703125,1.33740234375,1.35029296875,1.36318359375,1.36318359375,1.36640625,1.37607421875,1.38251953125,1.37607421875,1.36318359375,1.35673828125,1.36318359375,1.36318359375,1.35029296875,1.340625,1.3470703125,1.3599609375,1.36962890625,1.3857421875,1.3857421875,1.379296875,1.379296875,1.3728515625,1.36962890625,1.36318359375,1.36962890625,1.38251953125,1.37607421875,1.37607421875,1.3857421875,1.3857421875,1.3921875,1.38251953125,1.36640625,1.37607421875,1.38896484375,1.38896484375,1.3921875,1.405078125,1.40185546875,1.3986328125,1.4115234375,1.42119140625,1.43408203125,1.45341796875,1.44375,1.405078125,1.3599609375,1.34384765625,1.3599609375,1.36640625,1.35673828125,1.3728515625,1.4244140625,1.47919921875,1.56298828125,1.65,1.6306640625,1.49208984375,1.379296875,1.35029296875,1.3341796875,1.32451171875,1.3470703125,1.36962890625,1.3728515625,1.3728515625,1.3728515625,1.3857421875,1.39541015625,1.3857421875,1.38251953125,1.3986328125,1.40830078125,1.41796875,1.42763671875,1.430859375,1.44052734375,1.4759765625,1.52109375,1.546875,1.56943359375,1.5919921875,1.60810546875,1.61455078125,1.611328125,1.57265625,1.50498046875,1.4501953125,1.4115234375,1.36318359375,1.3212890625,1.31162109375,1.31162109375,1.2955078125,1.2697265625,1.26005859375,1.276171875,1.30517578125,1.31162109375,1.29873046875,1.29873046875,1.3083984375,1.3212890625,1.327734375,1.3212890625,1.31162109375,1.31806640625,1.3341796875,1.3599609375,1.3728515625,1.3599609375,1.34384765625,1.353515625,1.36640625,1.36640625,1.35673828125,1.340625,1.340625,1.36318359375,1.3728515625,1.36962890625,1.36962890625,1.3599609375,1.340625,1.35029296875,1.37607421875,1.38896484375,1.379296875,1.3728515625,1.39541015625,1.41474609375,1.41796875,1.40185546875,1.38251953125,1.38251953125,1.38896484375,1.3986328125,1.3986328125,1.3986328125,1.405078125,1.4115234375,1.4115234375,1.4115234375,1.4244140625,1.4373046875,1.43408203125,1.42119140625,1.4115234375,1.3921875,1.3728515625,1.36640625,1.3728515625,1.37607421875,1.37607421875,1.405078125,1.45341796875,1.508203125,1.5791015625,1.62099609375,1.55009765625,1.42119140625,1.3599609375,1.35673828125,1.36962890625,1.36318359375,1.34384765625,1.3470703125,1.38251953125,1.40185546875,1.3986328125,1.3857421875,1.379296875,1.37607421875,1.379296875,1.38896484375,1.39541015625,1.3986328125,1.4115234375,1.430859375,1.456640625,1.4888671875,1.49853515625,1.52109375,1.57265625,1.611328125,1.6177734375,1.62099609375,1.6048828125,1.559765625,1.508203125,1.45986328125,1.40185546875,1.35029296875,1.33740234375,1.3341796875,1.31806640625,1.31162109375,1.31484375,1.31162109375,1.31162109375,1.33740234375,1.35029296875,1.33095703125,1.340625,1.37607421875,1.38251953125,1.36318359375,1.35673828125,1.35673828125,1.36640625,1.36962890625,1.3599609375,1.3599609375,1.3857421875,1.3986328125,1.3857421875,1.3857421875,1.38896484375,1.37607421875,1.37607421875,1.379296875,1.36640625,1.36640625,1.3921875,1.3986328125,1.3921875,1.38896484375,1.3921875,1.39541015625,1.3921875,1.3857421875,1.38251953125,1.3857421875,1.379296875,1.37607421875,1.38896484375,1.3986328125,1.40185546875,1.40830078125,1.41796875,1.42119140625,1.44697265625,1.47275390625,1.44697265625,1.3921875,1.35673828125,1.35029296875,1.36640625,1.36962890625,1.35673828125,1.3728515625,1.405078125,1.45341796875,1.533984375,1.61455078125,1.60166015625,1.4888671875,1.37607421875,1.340625,1.340625,1.340625,1.340625,1.3470703125,1.353515625,1.36318359375,1.36640625,1.36318359375,1.36962890625,1.38896484375,1.3921875,1.379296875,1.3728515625,1.379296875,1.39541015625,1.430859375,1.45341796875,1.4630859375,1.47919921875,1.51787109375,1.57265625,1.60810546875,1.6048828125,1.59521484375,1.6048828125,1.585546875,1.52109375,1.4501953125,1.3921875,1.353515625,1.33740234375,1.3212890625,1.29228515625,1.26328125,1.26328125,1.27294921875,1.276171875,1.29228515625,1.32451171875,1.33740234375,1.33095703125,1.32451171875,1.3341796875,1.353515625,1.36318359375,1.35029296875,1.340625,1.34384765625,1.353515625,1.37607421875,1.379296875,1.36640625,1.3599609375,1.36640625,1.36962890625,1.3728515625,1.36640625,1.35673828125,1.35673828125,1.35673828125,1.3599609375,1.37607421875,1.38896484375,1.379296875,1.36640625,1.36962890625,1.379296875,1.37607421875,1.36640625,1.3599609375,1.3599609375,1.36962890625,1.38896484375,1.3921875,1.38251953125,1.38251953125,1.38896484375,1.39541015625,1.405078125,1.4244140625,1.44375,1.44052734375,1.40830078125,1.379296875,1.37607421875,1.3728515625,1.36318359375,1.37607421875,1.39541015625,1.39541015625,1.40830078125,1.5017578125,1.6177734375,1.62744140625,1.53076171875,1.430859375,1.37607421875,1.340625,1.31484375,1.31806640625,1.340625,1.353515625,1.35029296875,1.35029296875,1.35673828125,1.36640625,1.3728515625,1.38896484375,1.3986328125,1.38896484375,1.39541015625,1.41796875,1.4373046875,1.44052734375,1.44697265625,1.47919921875,1.5146484375,1.546875,1.5791015625,1.6177734375,1.64677734375,1.64677734375,1.61455078125,1.5662109375,1.49853515625,1.41796875,1.36640625,1.33740234375,1.31806640625,1.3083984375,1.29873046875,1.301953125,1.31484375,1.30517578125,1.30517578125,1.34384765625,1.36640625,1.33740234375,1.31806640625,1.33095703125,1.35673828125,1.3599609375,1.3341796875,1.31484375,1.35029296875,1.3986328125,1.39541015625,1.38251953125,1.41796875,1.4501953125,1.4373046875,1.41796875,1.41474609375,1.41796875,1.4115234375,1.4115234375,1.4244140625,1.41796875,1.3986328125,1.3857421875,1.38896484375,1.41474609375,1.4244140625,1.41474609375,1.405078125,1.40185546875,1.41474609375,1.42763671875,1.41474609375,1.39541015625,1.3986328125,1.41796875,1.430859375,1.42119140625,1.40185546875,1.40185546875,1.42119140625,1.4373046875,1.430859375,1.4115234375,1.38896484375,1.36318359375,1.35673828125,1.3728515625,1.38251953125,1.37607421875,1.36640625,1.36962890625,1.40830078125,1.52431640625,1.637109375,1.62099609375,1.4953125,1.3921875,1.3470703125,1.31806640625,1.301953125,1.301953125,1.30517578125,1.31162109375,1.3212890625,1.3212890625,1.3083984375,1.31484375,1.34384765625,1.34384765625,1.32451171875,1.31484375,1.3212890625,1.327734375,1.3341796875,1.36318359375,1.3986328125,1.4115234375,1.43408203125,1.46953125,1.4953125,1.5017578125,1.52109375,1.52431640625,1.47275390625,1.405078125
1.55009765625,1.45986328125,1.405078125,1.36962890625,1.3341796875,1.31484375,1.31806640625,1.32451171875,1.31484375,1.30517578125,1.31484375,1.34384765625,1.3599609375,1.3341796875,1.3341796875,1.379296875,1.40185546875,1.3857421875,1.36318359375,1.35673828125,1.36640625,1.379296875,1.379296875,1.38251953125,1.3921875,1.3986328125,1.3921875,1.379296875,1.3728515625,1.379296875,1.379296875,1.36640625,1.35673828125,1.36318359375,1.37607421875,1.3857421875,1.40185546875,1.40185546875,1.39541015625,1.39541015625,1.38896484375,1.3857421875,1.379296875,1.3857421875,1.39541015625,1.38896484375,1.3921875,1.3986328125,1.40185546875,1.405078125,1.39541015625,1.38251953125,1.38896484375,1.40185546875,1.40185546875,1.405078125,1.41796875,1.41474609375,1.41474609375,1.4244140625,1.43408203125,1.44697265625,1.46630859375,1.45341796875,1.41796875,1.3728515625,1.353515625,1.36962890625,1.379296875,1.36962890625,1.38251953125,1.43408203125,1.4888671875,1.57265625,1.662890625,1.64033203125,1.5017578125,1.38896484375,1.3599609375,1.340625,1.33095703125,1.35673828125,1.37607421875,1.38251953125,1.379296875,1.379296875,1.3921875,1.40185546875,1.3921875,1.38896484375,1.405078125,1.41474609375,1.4244140625,1.43408203125,1.4373046875,1.44697265625,1.482421875,1.5275390625,1.55009765625,1.57265625,1.59521484375,1.611328125,1.6177734375,1.61455078125,1.57587890625,1.508203125,1.45341796875,1.41474609375,1.36318359375,1.32451171875,1.31162109375,1.31162109375,1.2955078125,1.27294921875,1.26328125,1.27939453125,1.30517578125,1.31162109375,1.29873046875,1.29873046875,1.3083984375,1.3212890625,1.327734375,1.31806640625,1.31162109375,1.31806640625,1.3341796875,1.3599609375,1.3728515625,1.3599609375,1.34384765625,1.353515625,1.36640625,1.36640625,1.353515625,1.33740234375,1.33740234375,1.3599609375,1.36962890625,1.36962890625,1.36962890625,1.35673828125,1.33740234375,1.3470703125,1.3728515625,1.3857421875,1.3728515625,1.36962890625,1.3921875,1.4115234375,1.41474609375,1.39541015625,1.379296875,1.37607421875,1.38251953125,1.3921875,1.39541015625,1.3921875,1.3986328125,1.40830078125,1.405078125,1.40830078125,1.42119140625,1.43408203125,1.430859375,1.41474609375,1.405078125,1.38896484375,1.36962890625,1.36318359375,1.36962890625,1.36962890625,1.3728515625,1.40185546875,1.4501953125,1.50498046875,1.57587890625,1.61455078125,1.54365234375,1.41796875,1.353515625,1.353515625,1.36318359375,1.35673828125,1.340625,1.34384765625,1.37607421875,1.3986328125,1.3921875,1.379296875,1.37607421875,1.3728515625,1.37607421875,1.3857421875,1.38896484375,1.3921875,1.40830078125,1.4244140625,1.45341796875,1.48564453125,1.4953125,1.51787109375,1.56943359375,1.60810546875,1.61455078125,1.6177734375,1.60166015625,1.55654296875,1.50498046875,1.456640625,1.3986328125,1.3470703125,1.3341796875,1.33095703125,1.31484375,1.3083984375,1.31162109375,1.3083984375,1.3083984375,1.3341796875,1.3470703125,1.327734375,1.33740234375,1.37607421875,1.379296875,1.36318359375,1.35673828125,1.35673828125,1.36318359375,1.36962890625,1.3599609375,1.3599609375,1.3857421875,1.3986328125,1.3857421875,1.3857421875,1.38896484375,1.37607421875,1.37607421875,1.379296875,1.36962890625,1.36640625,1.3921875,1.40185546875,1.3921875,1.3921875,1.39541015625,1.3986328125,1.39541015625,1.38896484375,1.3857421875,1.38896484375,1.38251953125,1.37607421875,1.3921875,1.40185546875,1.40185546875,1.4115234375,1.42119140625,1.4244140625,1.44697265625,1.4759765625,1.4501953125,1.39541015625,1.3599609375,1.353515625,1.36962890625,1.3728515625,1.3599609375,1.37607421875,1.40830078125,1.456640625,1.53720703125,1.6177734375,1.6048828125,1.49208984375,1.38251953125,1.3470703125,1.3470703125,1.34384765625,1.3470703125,1.353515625,1.3599609375,1.36962890625,1.3728515625,1.36640625,1.37607421875,1.39541015625,1.3986328125,1.38251953125,1.379296875,1.38251953125,1.3986328125,1.43408203125,1.45986328125,1.46630859375,1.482421875,1.52109375,1.5791015625,1.611328125,1.60810546875,1.60166015625,1.60810546875,1.5919921875,1.52431640625,1.45341796875,1.39541015625,1.35673828125,1.340625,1.327734375,1.2955078125,1.26650390625,1.26650390625,1.276171875,1.27939453125,1.2955078125,1.327734375,1.340625,1.3341796875,1.327734375,1.33740234375,1.35673828125,1.36640625,1.353515625,1.34384765625,1.3470703125,1.35673828125,1.37607421875,1.38251953125,1.36962890625,1.3599609375,1.36640625,1.36962890625,1.3728515625,1.36640625,1.35673828125,1.35673828125,1.35673828125,1.3599609375,1.37607421875,1.38896484375,1.37607421875,1.36640625,1.36962890625,1.379296875,1.3728515625,1.36640625,1.3599609375,1.35673828125,1.36640625,1.3857421875,1.38896484375,1.379296875,1.379296875,1.3857421875,1.3921875,1.40185546875,1.41796875,1.44052734375,1.4373046875,1.40185546875,1.3728515625,1.3728515625,1.36640625,1.3599609375,1.36962890625,1.38896484375,1.38896484375,1.40185546875,1.4953125,1.611328125,1.62099609375,1.52431640625,1.42119140625,1.36962890625,1.33095703125,1.30517578125,1.31162109375,1.3341796875,1.34384765625,1.340625,1.340625,1.3470703125,1.35673828125,1.36318359375,1.379296875,1.3857421875,1.379296875,1.38251953125,1.405078125,1.4244140625,1.42763671875,1.43408203125,1.46630859375,1.50498046875,1.533984375,1.5662109375,1.6048828125,1.63388671875,1.63388671875,1.60166015625,1.5533203125,1.48564453125,1.40830078125,1.353515625,1.32451171875,1.3083984375,1.2955078125,1.28583984375,1.2890625,1.301953125,1.29228515625,1.29228515625,1.33095703125,1.353515625,1.327734375,1.30517578125,1.31806640625,1.3470703125,1.3470703125,1.3212890625,1.30517578125,1.340625,1.3857421875,1.3857421875,1.3728515625,1.40830078125,1.44052734375,1.42763671875,1.40830078125,1.40830078125,1.40830078125,1.405078125,1.405078125,1.41796875,1.41474609375,1.3921875,1.38251953125,1.3857421875,1.4115234375,1.42119140625,1.4115234375,1.405078125,1.40185546875,1.41474609375,1.42763671875,1.41796875,1.3986328125,1.40185546875,1.4244140625,1.43408203125,1.42763671875,1.4115234375,1.40830078125,1.430859375,1.44697265625,1.44375,1.42763671875,1.405078125,1.379296875,1.37607421875,1.3921875,1.405078125,1.40185546875,1.3921875,1.39541015625,1.4373046875,1.55654296875,1.6693359375,1.6564453125,1.53076171875,1.430859375,1.38896484375,1.36318359375,1.35029296875,1.35029296875,1.35673828125,1.36640625,1.37607421875,1.379296875,1.36962890625,1.379296875,1.4115234375,1.41796875,1.3986328125,1.3921875,1.405078125,1.4115234375,1.42119140625,1.45341796875,1.49208984375,1.51142578125,1.53720703125,1.57587890625,1.6048828125,1.6177734375,1.64033203125,1.64677734375,1.60166015625,1.53720703125,1.482421875,1.4244140625,1.3728515625,1.340625,1.3212890625,1.31162109375,1.31162109375,1.301953125,1.28583984375,1.301953125,1.31806640625,1.30517578125,1.29228515625,1.32451171875,1.36318359375,1.35029296875,1.32451171875,1.33095703125,1.34384765625,1.34384765625,1.340625,1.3341796875,1.32451171875,1.3212890625,1.340625,1.35673828125,1.35029296875,1.340625,1.35029296875,1.3599609375,1.3470703125,1.327734375,1.32451171875,1.33740234375,1.3470703125,1.35673828125,1.36640625,1.3728515625,1.3728515625,1.36318359375,1.3599609375,1.35673828125,1.35673828125,1.3728515625,1.379296875,1.3599609375,1.35673828125,1.36962890625,1.3728515625,1.3728515625,1.3921875,1.4115234375,1.42763671875,1.430859375,1.405078125,1.3728515625,1.36318359375,1.353515625,1.340625,1.3341796875,1.340625,1.35673828125,1.379296875,1.430859375,1.52109375,1.585546875,1.533984375,1.3986328125,1.31484375,1.31806640625,1.327734375,1.31484375,1.31806640625,1.3341796875,1.3470703125,1.3470703125,1.34384765625,1.353515625,1.3599609375,1.36640625,1.3857421875,1.39541015625,1.38896484375,1.38896484375,1.3921875,1.4115234375,1.44052734375,1.47275390625,1.5017578125,1.5275390625,1.5533203125,1.5984375,1.62421875,1.6048828125,1.58232421875,1.55009765625,1.4953125,1.4373046875,1.3921875,1.35673828125,1.33740234375,1.33095703125,1.3212890625,1.30517578125,1.29873046875,1.31162109375,1.31806640625,1.31162109375,1.31162109375,1.33095703125,1.353515625,1.36318359375,1.353515625,1.34384765625,1.35673828125,1.36962890625,1.35673828125,1.36318359375,1.3921875,1.40830078125,1.38896484375,1.37607421875,1.38251953125,1.3921875,1.40185546875,1.38896484375,1.379296875,1.3986328125,1.405078125,1.3921875,1.379296875,1.38251953125,1.40185546875,1.405078125,1.3986328125,1.3986328125,1.405078125,1.42119140625,1.4373046875,1.42763671875,1.405078125,1.3986328125,1.4115234375,1.4373046875,1.45341796875,1.4630859375,1.4759765625,1.48564453125,1.4888671875,1.47275390625,1.4501953125,1.4244140625,1.4115234375,1.4115234375,1.41474609375,1.41796875,1.43408203125,1.44697265625,1.46953125,1.54365234375,1.64677734375,1.6693359375,1.5662109375,1.43408203125,1.38251953125,1.379296875,1.35673828125,1.35029296875,1.35673828125,1.35673828125,1.35673828125,1.3599609375,1.36640625,1.38251953125,1.3921875,1.3857421875,1.3728515625,1.3857421875,1.405078125,1.41474609375,1.41796875,1.41796875,1.430859375,1.4501953125,1.46630859375,1.49208984375,1.52109375,1.5533203125,1.58232421875,1.5984375,1.57265625,1.51142578125,1.4501953125,1.405078125,1.36962890625,1.32451171875,1.2826171875,1.27294921875,1.27939453125,1.2826171875,1.2826171875,1.28583984375,1.28583984375,1.28583984375,1.28583984375,1.2955078125,1.31162109375,1.3212890625,1.3341796875,1.3599609375,1.3728515625,1.38251953125,1.405078125,1.41796875,1.41474609375,1.42763671875,1.43408203125,1.42763671875,1.41796875,1.4115234375,1.41474609375,1.42763671875,1.43408203125,1.41474609375,1.39541015625,1.38251953125,1.379296875,1.38251953125,1.3921875,1.3857421875,1.36962890625,1.37607421875,1.3921875,1.379296875,1.36318359375,1.36962890625,1.379296875,1.36962890625,1.353515625,1.36318359375,1.37607421875,1.3857421875,1.40830078125,1.42763671875,1.41796875,1.39541015625,1.3728515625,1.34384765625,1.33095703125,1.34384765625,1.35673828125,1.353515625,1.36318359375,1.3986328125,1.48564453125,1.5919921875,1.62744140625,1.53720703125,1.39541015625,1.31484375,1.3083984375,1.32451171875,1.32451171875,1.31162109375,1.29873046875,1.31484375,1.35029296875,1.36962890625,1.3599609375,1.340625,1.33740234375,1.35029296875,1.3599609375,1.3728515625,1.3921875,1.405078125,1.40185546875,1.41796875,1.46630859375,1.50498046875,1.53076171875,1.5662109375,1.5984375,1.61455078125,1.6177734375,1.59521484375,1.53720703125,1.45986328125,1.40185546875,1.36318359375,1.32451171875,1.301953125,1.2890625,1.2826171875,1.27294921875,1.27939453125,1.3083984375,1.32451171875,1.31162109375,1.3083984375,1.327734375,1.35029296875,1.35029296875,1.33740234375,1.33095703125,1.33740234375,1.353515625,1.36640625,1.38251953125,1.38251953125,1.35673828125,1.34384765625,1.36318359375,1.38251953125,1.38251953125,1.38251953125,1.38896484375,1.38896484375,1.379296875,1.38251953125,1.40185546875,1.405078125,1.3986328125,1.3857421875,1.3921875,1.40185546875,1.40830078125,1.405078125,1.40185546875,1.40185546875,1.3986328125,1.3857421875,1.38896484375,1.3986328125,1.40185546875,1.40830078125,1.41474609375,1.40830078125,1.41474609375,1.44697265625,1.4759765625,1.4630859375,1.42119140625,1.3857421875,1.37607421875,1.36962890625,1.3728515625,1.38251953125,1.3857421875,1.38896484375,1.4115234375,1.4888671875,1.6177734375,1.68544921875,1.611328125,1.45986328125,1.36640625,1.35029296875,1.36318359375,1.36962890625,1.3728515625,1.379296875,1.3857421875,1.3921875,1.3986328125,1.40185546875,1.405078125,1.40830078125,1.405078125,1.40830078125,1.4373046875,1.45341796875,1.44375,1.44697265625,1.4759765625,1.51142578125,1.5404296875,1.55009765625,1.5662109375,1.611328125,1.6564453125,1.662890625,1.64677734375,1.60810546875,1.53076171875,1.44697265625,1.39541015625,1.37607421875,1.35029296875,1.31162109375,1.301953125,1.31806640625,1.327734375,1.3083984375,1.2955078125,1.31162109375,1.32451171875,1.31484375,1.31484375,1.31162109375,1.3083984375,1.31806640625,1.327734375,1.33095703125,1.33740234375,1.33740234375,1.3212890625,1.3212890625,1.340625,1.3470703125,1.33095703125,1.33095703125,1.34384765625,1.35029296875,1.340625,1.3341796875,1.340625,1.34384765625,1.33740234375,1.33740234375,1.35029296875,1.35673828125,1.35673828125,1.36318359375,1.37607421875,1.379296875,1.3599609375,1.35029296875,1.36640625,1.38251953125,1.379296875,1.36962890625,1.38896484375,1.40830078125,1.4115234375,1.42119140625,1.430859375,1.42119140625,1.40830078125,1.3986328125,1.39541015625,1.3921875,1.3857421875,1.38251953125,1.3857421875,1.38896484375,1.405078125,1.46953125,1.57265625,1.62421875,1.546875,1.4244140625,1.36318359375,1.3599609375,1.36962890625,1.36640625,1.3599609375,1.3599609375,1.37607421875,1.38251953125,1.3728515625,1.38251953125,1.405078125,1.40830078125,1.39541015625,1.3986328125,1.40830078125,1.41474609375,1.4244140625,1.44375,1.46953125,1.482421875,1.50498046875,1.546875,1.58232421875,1.60810546875,1.63388671875,1.637109375,1.6048828125,1.55654296875,1.4953125,1.430859375,1.37607421875,1.34384765625,1.33740234375,1.33095703125,1.3083984375,1.2955078125,1.3083984375,1.32451171875,1.3083984375,1.28583984375,1.29228515625,1.31806640625,1.3341796875,1.33095703125,1.33095703125,1.340625,1.3599609375,1.36318359375,1.34384765625,1.35029296875,1.3728515625,1.36318359375,1.3341796875,1.31484375,1.31806640625,1.33740234375,1.35029296875,1.35029296875,1.35029296875,1.353515625,1.36318359375,1.36318359375,1.3599609375,1.3599609375,1.36962890625,1.37607421875,1.36640625,1.3599609375,1.3728515625,1.38896484375,1.3921875,1.3857421875,1.39541015625,1.42119140625,1.44375,1.4501953125,1.4373046875,1.405078125,1.38251953125,1.36962890625,1.37607421875,1.39541015625,1.39541015625,1.379296875,1.38251953125,1.42763671875,1.51142578125,1.59521484375,1.60810546875,1.51787109375,1.41474609375,1.36640625,1.36318359375,1.36318359375,1.36640625,1.36318359375,1.35673828125,1.36640625,1.38251953125,1.3921875,1.3986328125,1.405078125,1.3921875,1.38896484375,1.40185546875,1.41474609375,1.4244140625,1.44375,1.45986328125,1.45986328125,1.47275390625,1.50498046875,1.55009765625,1.59521484375,1.6306640625,1.6435546875,1.62744140625,1.58876953125,1.53076171875,1.4630859375,1.40185546875,1.3470703125,1.3083984375,1.29228515625,1.28583984375,1.28583984375,1.29873046875,1.31162109375,1.31806640625,1.31484375,1.30517578125,1.29873046875,1.31162109375,1.3212890625,1.32451171875,1.34384765625,1.35029296875,1.33740234375,1.35029296875,1.36962890625,1.3728515625,1.36318359375,1.3599609375,1.353515625,1.3599609375,1.36640625,1.3728515625,1.37607421875,1.379296875,1.38251953125,1.38896484375,1.39541015625,1.3921875,1.38896484375,1.38896484375,1.38896484375,1.38896484375,1.38251953125,1.3857421875,1.40185546875,1.40830078125,1.405078125,1.4115234375,1.4244140625,1.41474609375,1.405078125,1.41796875,1.4373046875,1.44375,1.44697265625,1.4373046875,1.41474609375,1.3921875,1.3921875,1.3986328125,1.3921875,1.379296875,1.379296875,1.39541015625,1.4373046875,1.5275390625,1.637109375,1.662890625,1.56943359375,1.430859375,1.3599609375,1.340625,1.327734375,1.327734375,1.35029296875,1.3599609375,1.35029296875,1.35673828125,1.36318359375,1.35673828125,1.3599609375,1.37607421875,1.3921875,1.3986328125,1.3921875,1.38896484375,1.3986328125,1.41474609375,1.44375,1.46953125,1.49208984375,1.52431640625,1.55654296875,1.57587890625,1.59521484375,1.6177734375,1.59521484375,1.5275390625,1.4630859375,1.40185546875,1.340625,1.2955078125,1.28583984375,1.27294921875,1.25361328125,1.26328125,1.2826171875,1.29228515625,1.29873046875,1.3083984375,1.3083984375,1.3083984375,1.31806640625,1.327734375,1.3341796875,1.33740234375,1.340625,1.340625,1.3470703125,1.353515625,1.35029296875,1.353515625,1.379296875,1.3986328125,1.38251953125,1.36640625,1.379296875,1.3986328125,1.3986328125,1.3857421875,1.3921875,1.4115234375,1.4115234375,1.40830078125,1.41796875,1.42119140625,1.41796875,1.41796875,1.41796875,1.40830078125,1.4115234375,1.430859375,1.430859375,1.40830078125,1.3986328125,1.40830078125,1.41474609375,1.40830078125,1.40830078125,1.42763671875,1.44052734375,1.42763671875,1.41474609375,1.42763671875,1.4373046875,1.43408203125,1.4373046875,1.4373046875,1.40830078125,1.3728515625,1.36318359375,1.379296875,1.3921875,1.379296875,1.36640625,1.38896484375,1.456640625,1.56298828125,1.65966796875,1.64677734375,1.508203125,1.379296875,1.33740234375,1.33740234375,1.327734375,1.33095703125,1.3470703125,1.353515625,1.34384765625,1.340625,1.3470703125,1.35029296875,1.35673828125
1.4953125,1.52431640625,1.57265625,1.5984375,1.5919921875,1.5984375,1.5984375,1.54365234375,1.45341796875,1.38896484375,1.353515625,1.3083984375,1.27294921875,1.2697265625,1.27294921875,1.26005859375,1.250390625,1.26328125,1.27939453125,1.28583984375,1.29228515625,1.30517578125,1.31484375,1.31484375,1.31806640625,1.33095703125,1.340625,1.327734375,1.32451171875,1.35029296875,1.35673828125,1.3341796875,1.32451171875,1.33095703125,1.3341796875,1.340625,1.35673828125,1.36318359375,1.3599609375,1.36640625,1.379296875,1.3857421875,1.36962890625,1.353515625,1.353515625,1.36318359375,1.37607421875,1.3728515625,1.36962890625,1.38251953125,1.40185546875,1.40185546875,1.3857421875,1.3857421875,1.38896484375,1.3921875,1.3921875,1.39541015625,1.39541015625,1.405078125,1.42119140625,1.4115234375,1.405078125,1.430859375,1.456640625,1.44375,1.40185546875,1.37607421875,1.38896484375,1.38896484375,1.3728515625,1.379296875,1.40185546875,1.4244140625,1.45986328125,1.54365234375,1.63388671875,1.6306640625,1.51142578125,1.3857421875,1.33740234375,1.353515625,1.379296875,1.3921875,1.38251953125,1.36962890625,1.36962890625,1.379296875,1.39541015625,1.405078125,1.3921875,1.3921875,1.42119140625,1.4244140625,1.4244140625,1.456640625,1.4953125,1.5146484375,1.52431640625,1.5533203125,1.58232421875,1.60166015625,1.62421875,1.64033203125,1.62744140625,1.57587890625,1.5146484375,1.456640625,1.40185546875,1.36318359375,1.34384765625,1.34384765625,1.33095703125,1.31162109375,1.301953125,1.3083984375,1.32451171875,1.34384765625,1.35673828125,1.34384765625,1.327734375,1.33740234375,1.353515625,1.35029296875,1.3341796875,1.3341796875,1.353515625,1.36962890625,1.37607421875,1.36962890625,1.3599609375,1.36962890625,1.379296875,1.3728515625,1.3599609375,1.353515625,1.36318359375,1.38251953125,1.38251953125,1.36640625,1.37607421875,1.39541015625,1.3921875,1.3921875,1.3921875,1.3728515625,1.36640625,1.3857421875,1.3857421875,1.36318359375,1.3599609375,1.379296875,1.3857421875,1.37607421875,1.36962890625,1.3857421875,1.3921875,1.39541015625,1.41474609375,1.4244140625,1.43408203125,1.430859375,1.4115234375,1.38896484375,1.37607421875,1.37607421875,1.38896484375,1.379296875,1.35673828125,1.36640625,1.3986328125,1.4373046875,1.5146484375,1.60166015625,1.611328125,1.51787109375,1.40185546875,1.34384765625,1.34384765625,1.36318359375,1.36640625,1.35673828125,1.3599609375,1.36962890625,1.3857421875,1.3921875,1.37607421875,1.3728515625,1.3986328125,1.41474609375,1.40830078125,1.4115234375,1.4373046875,1.45341796875,1.4630859375,1.4953125,1.5404296875,1.5791015625,1.60810546875,1.63388671875,1.637109375,1.5984375,1.55654296875,1.50498046875,1.44375,1.37607421875,1.32451171875,1.301953125,1.29228515625,1.2826171875,1.27939453125,1.27939453125,1.2697265625,1.27939453125,1.30517578125,1.31806640625,1.30517578125,1.29873046875,1.31162109375,1.327734375,1.33095703125,1.33095703125,1.340625,1.3470703125,1.34384765625,1.35029296875,1.3599609375,1.353515625,1.34384765625,1.3599609375,1.3728515625,1.36640625,1.35673828125,1.3599609375,1.36962890625,1.3728515625,1.36318359375,1.3599609375,1.3728515625,1.379296875,1.36640625,1.3599609375,1.38896484375,1.4115234375,1.3921875,1.36640625,1.37607421875,1.3921875,1.38896484375,1.3728515625,1.3728515625,1.3857421875,1.3921875,1.40185546875,1.405078125,1.3857421875,1.38251953125,1.39541015625,1.3986328125,1.40185546875,1.4115234375,1.430859375,1.4501953125,1.44697265625,1.41474609375,1.38896484375,1.38251953125,1.38251953125,1.379296875,1.3728515625,1.3857421875,1.42119140625,1.4630859375,1.54365234375,1.65322265625,1.67255859375,1.559765625,1.42119140625,1.36640625,1.36640625,1.36640625,1.3599609375,1.35029296875,1.35029296875,1.379296875,1.3921875,1.36962890625,1.36640625,1.3986328125,1.41796875,1.3986328125,1.40185546875,1.42119140625,1.43408203125,1.4501953125,1.47275390625,1.4953125,1.53076171875,1.56943359375,1.60166015625,1.62421875,1.64033203125,1.64033203125,1.59521484375,1.51787109375,1.44052734375,1.3921875,1.353515625,1.3083984375,1.276171875,1.27294921875,1.29228515625,1.301953125,1.28583984375,1.2826171875,1.30517578125,1.32451171875,1.31484375,1.29873046875,1.31484375,1.327734375,1.32451171875,1.33740234375,1.353515625,1.34384765625,1.3470703125,1.36962890625,1.3728515625,1.35673828125,1.35673828125,1.36318359375,1.36640625,1.379296875,1.3857421875,1.379296875,1.37607421875,1.38251953125,1.38251953125,1.379296875,1.379296875,1.38251953125,1.3857421875,1.36962890625,1.36318359375,1.379296875,1.3921875,1.38896484375,1.38896484375,1.39541015625,1.3986328125,1.3986328125,1.3921875,1.38896484375,1.38251953125,1.37607421875,1.379296875,1.38896484375,1.3921875,1.39541015625,1.405078125,1.41796875,1.41796875,1.40830078125,1.405078125,1.40830078125,1.42119140625,1.44052734375,1.45986328125,1.456640625,1.43408203125,1.4115234375,1.40185546875,1.3986328125,1.3986328125,1.3986328125,1.39541015625,1.3986328125,1.430859375,1.51787109375,1.6306640625,1.67578125,1.585546875,1.45341796875,1.379296875,1.35673828125,1.35029296875,1.36318359375,1.36640625,1.3599609375,1.36318359375,1.36640625,1.3599609375,1.36640625,1.39541015625,1.40185546875,1.3921875,1.39541015625,1.4115234375,1.42119140625,1.42763671875,1.44375,1.47919921875,1.5275390625,1.5662109375,1.59521484375,1.6306640625,1.65322265625,1.6306640625,1.58876953125,1.52109375,1.44375,1.38896484375,1.3470703125,1.31162109375,1.2955078125,1.29228515625,1.2826171875,1.2826171875,1.30517578125,1.301953125,1.27294921875,1.26650390625,1.2955078125,1.31806640625,1.31162109375,1.3083984375,1.31162109375,1.31806640625,1.33095703125,1.35029296875,1.36640625,1.36640625,1.34384765625,1.33740234375,1.33740234375,1.34384765625,1.353515625,1.36318359375,1.35029296875,1.3341796875,1.3470703125,1.36640625,1.3599609375,1.35673828125,1.36640625,1.36640625,1.36318359375,1.37607421875,1.379296875,1.36962890625,1.36962890625,1.36640625,1.36318359375,1.379296875,1.38896484375,1.37607421875,1.35673828125,1.36640625,1.3986328125,1.42119140625,1.405078125,1.3921875,1.3986328125,1.3986328125,1.39541015625,1.3986328125,1.3986328125,1.3986328125,1.39541015625,1.40830078125,1.430859375,1.4501953125,1.45341796875,1.4501953125,1.4373046875,1.41474609375,1.3857421875,1.36640625,1.3728515625,1.38896484375,1.39541015625,1.405078125,1.405078125,1.4244140625,1.508203125,1.5984375,1.585546875,1.4759765625,1.36962890625,1.34384765625,1.36318359375,1.36962890625,1.37607421875,1.3857421875,1.3857421875,1.37607421875,1.3728515625,1.379296875,1.38896484375,1.40830078125,1.4244140625,1.42119140625,1.41796875,1.43408203125,1.44375,1.44697265625,1.4630859375,1.4953125,1.52431640625,1.5662109375,1.60810546875,1.63388671875,1.64033203125,1.62099609375,1.57265625,1.51787109375,1.46630859375,1.405078125,1.35029296875,1.327734375,1.3212890625,1.30517578125,1.29228515625,1.29228515625,1.2890625,1.2955078125,1.30517578125,1.30517578125,1.31806640625,1.33740234375,1.3470703125,1.34384765625,1.34384765625,1.36318359375,1.38251953125,1.379296875,1.36318359375,1.36318359375,1.36640625,1.36318359375,1.3728515625,1.3921875,1.405078125,1.40830078125,1.4115234375,1.3857421875,1.36318359375,1.36962890625,1.3857421875,1.3986328125,1.39541015625,1.3857421875,1.3857421875,1.39541015625,1.40185546875,1.3857421875,1.379296875,1.38896484375,1.3921875,1.3857421875,1.3857421875,1.3921875,1.3921875,1.3921875,1.39541015625,1.38896484375,1.38896484375,1.405078125,1.41474609375,1.405078125,1.3986328125,1.41474609375,1.43408203125,1.456640625,1.45986328125,1.44052734375,1.41474609375,1.3986328125,1.38251953125,1.38896484375,1.40830078125,1.39541015625,1.36318359375,1.36640625,1.3986328125,1.44697265625,1.5404296875,1.62744140625,1.6048828125,1.47275390625,1.36640625,1.33740234375,1.33740234375,1.33740234375,1.3470703125,1.353515625,1.33740234375,1.31484375,1.33740234375,1.3728515625,1.38896484375,1.38896484375,1.379296875,1.3728515625,1.38896484375,1.41796875,1.42763671875,1.43408203125,1.46630859375,1.508203125,1.5533203125,1.5919921875,1.6048828125,1.60810546875,1.611328125,1.60810546875,1.5662109375,1.48564453125,1.41796875,1.3857421875,1.353515625,1.301953125,1.26328125,1.26650390625,1.276171875,1.2697265625,1.2697265625,1.276171875,1.276171875,1.276171875,1.2890625,1.30517578125,1.30517578125,1.301953125,1.30517578125,1.3083984375,1.3083984375,1.327734375,1.34384765625,1.34384765625,1.34384765625,1.34384765625,1.340625,1.35029296875,1.36318359375,1.36318359375,1.36318359375,1.36318359375,1.35673828125,1.35029296875,1.353515625,1.353515625,1.35673828125,1.38251953125,1.3986328125,1.3857421875,1.37607421875,1.38251953125,1.3921875,1.3921875,1.38896484375,1.39541015625,1.3921875,1.3728515625,1.36640625,1.379296875,1.379296875,1.38251953125,1.38896484375,1.38251953125,1.3857421875,1.405078125,1.42119140625,1.44052734375,1.45986328125,1.456640625,1.44375,1.4373046875,1.41796875,1.39541015625,1.38896484375,1.37607421875,1.379296875,1.40185546875,1.41796875,1.43408203125,1.47919921875,1.58232421875,1.6822265625,1.65966796875,1.51142578125,1.38896484375,1.36318359375,1.3599609375,1.3599609375,1.3728515625,1.36640625,1.353515625,1.36962890625,1.37607421875,1.36962890625,1.379296875,1.39541015625,1.405078125,1.42763671875,1.44052734375,1.42763671875,1.43408203125,1.47919921875,1.51142578125,1.52109375,1.559765625,1.61455078125,1.6564453125,1.662890625,1.6435546875,1.62744140625,1.61455078125,1.56943359375,1.50498046875,1.42763671875,1.36962890625,1.353515625,1.327734375,1.29873046875,1.29228515625,1.28583984375,1.28583984375,1.3083984375,1.3341796875,1.33740234375,1.33095703125,1.327734375,1.327734375,1.3341796875,1.34384765625,1.3470703125,1.3470703125,1.35673828125,1.36318359375,1.3728515625,1.379296875,1.36318359375,1.340625,1.35029296875,1.379296875,1.38896484375,1.38251953125,1.379296875,1.37607421875,1.36962890625,1.36962890625,1.36962890625,1.36318359375,1.36640625,1.36962890625,1.379296875,1.3921875,1.3921875,1.36318359375,1.35029296875,1.36640625,1.3921875,1.3986328125,1.3857421875,1.36962890625,1.36318359375,1.36640625,1.3728515625,1.379296875,1.38251953125,1.405078125,1.42763671875,1.430859375,1.41474609375,1.3921875,1.379296875,1.36318359375,1.35029296875,1.36318359375,1.36318359375,1.34384765625,1.34384765625,1.35673828125,1.3728515625,1.43408203125,1.55654296875,1.62744140625,1.5662109375,1.4244140625,1.3341796875,1.327734375,1.327734375,1.3083984375,1.301953125,1.3083984375,1.31806640625,1.33740234375,1.35029296875,1.353515625,1.36640625,1.3857421875,1.39541015625,1.3986328125,1.40185546875,1.4115234375,1.4244140625,1.45986328125,1.5017578125,1.533984375,1.559765625,1.58232421875,1.60810546875,1.63388671875,1.6435546875,1.62744140625,1.58876953125,1.5146484375,1.430859375,1.36962890625,1.3341796875,1.31806640625,1.31162109375,1.3083984375,1.31162109375,1.31484375,1.3212890625,1.327734375,1.327734375,1.31806640625,1.31484375,1.33095703125,1.3470703125,1.34384765625,1.34384765625,1.35673828125,1.353515625,1.34384765625,1.34384765625,1.32451171875,1.29873046875,1.3083984375,1.3341796875,1.3599609375,1.3599609375,1.34384765625,1.35029296875,1.36962890625,1.3599609375,1.34384765625,1.3599609375,1.38896484375,1.3921875,1.37607421875,1.36640625,1.379296875,1.38896484375,1.38896484375,1.38251953125,1.3857421875,1.3857421875,1.3728515625,1.379296875,1.3986328125,1.3986328125,1.40185546875,1.42119140625,1.45986328125,1.48564453125,1.482421875,1.4759765625,1.45341796875,1.4244140625,1.405078125,1.40830078125,1.4244140625,1.42119140625,1.4115234375,1.41474609375,1.4244140625,1.4501953125,1.52109375,1.611328125,1.62099609375,1.52109375,1.4115234375,1.3728515625,1.38896484375,1.4115234375,1.38251953125,1.35673828125,1.3857421875,1.42763671875,1.4244140625,1.40185546875,1.3986328125,1.405078125,1.40185546875,1.3986328125,1.405078125,1.42119140625,1.44052734375,1.47275390625,1.51142578125,1.52431640625,1.53076171875,1.56943359375,1.62421875,1.64677734375,1.64033203125,1.62421875,1.60166015625,1.55654296875,1.47919921875,1.3986328125,1.35029296875,1.33095703125,1.3083984375,1.27939453125,1.2697265625,1.29228515625,1.31806640625,1.3083984375,1.27294921875,1.26650390625,1.301953125,1.33095703125,1.33095703125,1.31806640625,1.31484375,1.33095703125,1.33740234375,1.33095703125,1.3341796875,1.34384765625,1.3341796875,1.32451171875,1.34384765625,1.36962890625,1.36318359375,1.34384765625,1.353515625,1.36640625,1.35673828125,1.33740234375,1.34384765625,1.353515625,1.35029296875,1.353515625,1.35673828125,1.35029296875,1.340625,1.3470703125,1.3599609375,1.35673828125,1.353515625,1.36318359375,1.3728515625,1.36962890625,1.36640625,1.3728515625,1.38896484375,1.40830078125,1.4115234375,1.39541015625,1.36962890625,1.35029296875,1.353515625,1.35029296875,1.327734375,1.33095703125,1.3599609375,1.36962890625,1.3728515625,1.4373046875,1.57265625,1.6564453125,1.5984375,1.44052734375,1.327734375,1.3083984375,1.3212890625,1.3212890625,1.31484375,1.3212890625,1.340625,1.3599609375,1.36640625,1.36318359375,1.3599609375,1.35673828125,1.36962890625,1.38251953125,1.379296875,1.37607421875,1.41474609375,1.45986328125,1.47919921875,1.51142578125,1.5662109375,1.60166015625,1.63388671875,1.64677734375,1.62744140625,1.59521484375,1.56298828125,1.508203125,1.44052734375,1.3728515625,1.32451171875,1.29873046875,1.2955078125,1.301953125,1.31162109375,1.32451171875,1.33740234375,1.340625,1.32451171875,1.31806640625,1.34384765625,1.3728515625,1.36962890625,1.353515625,1.3599609375,1.3728515625,1.36318359375,1.36640625,1.405078125,1.41796875,1.3857421875,1.36640625,1.3986328125,1.430859375,1.41796875,1.37607421875,1.36962890625,1.40185546875,1.41474609375,1.40830078125,1.40185546875,1.3986328125,1.39541015625,1.41474609375,1.42763671875,1.41796875,1.42119140625,1.4373046875,1.4373046875,1.43408203125,1.43408203125,1.43408203125,1.4373046875,1.45341796875,1.46953125,1.4759765625,1.4759765625,1.4888671875,1.47275390625,1.405078125,1.36318359375,1.38251953125,1.4115234375,1.405078125,1.38896484375,1.39541015625,1.44697265625,1.546875,1.65,1.68544921875,1.6048828125,1.46630859375,1.38251953125,1.379296875,1.36962890625,1.34384765625,1.35673828125,1.3857421875,1.3857421875,1.36962890625,1.36318359375,1.36962890625,1.3728515625,1.36318359375,1.36318359375,1.3986328125,1.4244140625,1.41796875,1.4244140625,1.44375,1.46630859375,1.50498046875,1.54365234375,1.58232421875,1.60810546875,1.611328125,1.61455078125,1.58876953125,1.52431640625,1.44375,1.3857421875,1.35029296875,1.301953125,1.250390625,1.2375,1.250390625,1.26650390625,1.26328125,1.2439453125,1.2439453125,1.26328125,1.2697265625,1.26328125,1.27294921875,1.2826171875,1.2826171875,1.2890625,1.29873046875,1.31484375,1.31484375,1.29228515625,1.30517578125,1.33740234375,1.33095703125,1.301953125,1.3083984375,1.3341796875,1.33740234375,1.327734375,1.327734375,1.3341796875,1.34384765625,1.33740234375,1.3212890625,1.3212890625,1.34384765625,1.35673828125,1.3470703125,1.35673828125,1.3857421875,1.39541015625,1.38251953125,1.3857421875,1.42119140625,1.45986328125,1.44697265625,1.39541015625,1.35673828125,1.3599609375,1.3857421875,1.379296875,1.353515625,1.36962890625,1.3986328125,1.43408203125,1.52109375,1.62421875,1.62099609375,1.508203125,1.42119140625,1.39541015625,1.36640625,1.35673828125,1.379296875,1.39541015625,1.3921875,1.38896484375,1.38896484375,1.38896484375,1.39541015625,1.41796875,1.41796875,1.4115234375,1.41796875,1.430859375,1.456640625,1.49208984375,1.51787109375,1.53076171875,1.57265625,1.62099609375,1.63388671875,1.637109375,1.65322265625,1.6564453125,1.61455078125,1.5404296875,1.47919921875,1.430859375,1.379296875,1.33740234375,1.32451171875,1.33740234375,1.31806640625,1.301953125,1.31484375,1.33095703125,1.32451171875,1.32451171875,1.327734375,1.31806640625,1.31806640625,1.3470703125,1.36640625,1.36318359375,1.35673828125,1.3599609375,1.36318359375,1.36640625,1.36962890625,1.36640625,1.36318359375,1.353515625,1.353515625,1.36318359375,1.353515625,1.35029296875,1.36640625,1.37607421875,1.37607421875,1.36640625,1.36318359375,1.3857421875,1.4115234375,1.43408203125,1.44697265625,1.4373046875,1.41796875,1.3857421875,1.36640625,1.36962890625,1.36640625,1.3470703125,1.36318359375,1.38896484375,1.3857421875,1.3986328125,1.45986328125,1.57265625,1.64033203125,1.56943359375,1.42763671875,1.3470703125,1.3341796875,1.33740234375,1.35029296875,1.3599609375,1.36318359375,1.379296875,1.40185546875,1.39541015625
1.36640625,1.3857421875,1.405078125,1.38896484375,1.36962890625,1.38251953125,1.41796875,1.44052734375,1.44697265625,1.45986328125,1.48564453125,1.52431640625,1.57265625,1.6177734375,1.6435546875,1.62744140625,1.57587890625,1.51787109375,1.45986328125,1.38896484375,1.327734375,1.2955078125,1.2890625,1.29228515625,1.27939453125,1.25361328125,1.25361328125,1.2697265625,1.2697265625,1.26650390625,1.28583984375,1.29873046875,1.29873046875,1.3083984375,1.3083984375,1.301953125,1.31484375,1.327734375,1.33095703125,1.32451171875,1.3083984375,1.3083984375,1.327734375,1.3341796875,1.327734375,1.327734375,1.34384765625,1.35029296875,1.33740234375,1.327734375,1.3341796875,1.33740234375,1.3470703125,1.35029296875,1.33740234375,1.340625,1.3599609375,1.379296875,1.3986328125,1.40830078125,1.38896484375,1.35673828125,1.340625,1.3470703125,1.33740234375,1.3212890625,1.340625,1.379296875,1.39541015625,1.4373046875,1.56943359375,1.67578125,1.62744140625,1.47919921875,1.379296875,1.3728515625,1.38896484375,1.3921875,1.3921875,1.38896484375,1.39541015625,1.38896484375,1.3857421875,1.405078125,1.4244140625,1.42763671875,1.42119140625,1.4115234375,1.40830078125,1.42119140625,1.4501953125,1.47919921875,1.49853515625,1.52431640625,1.57587890625,1.62099609375,1.64033203125,1.64677734375,1.6435546875,1.611328125,1.56298828125,1.50498046875,1.44375,1.38251953125,1.3470703125,1.35029296875,1.340625,1.3083984375,1.29873046875,1.3083984375,1.3341796875,1.340625,1.33095703125,1.33095703125,1.327734375,1.31806640625,1.32451171875,1.3470703125,1.3599609375,1.3599609375,1.3599609375,1.3599609375,1.35029296875,1.3599609375,1.36640625,1.36640625,1.36962890625,1.36318359375,1.36318359375,1.37607421875,1.3857421875,1.37607421875,1.37607421875,1.40185546875,1.41474609375,1.3857421875,1.36962890625,1.379296875,1.3986328125,1.39541015625,1.3728515625,1.38251953125,1.40830078125,1.405078125,1.39541015625,1.4115234375,1.45341796875,1.47919921875,1.44697265625,1.39541015625,1.37607421875,1.37607421875,1.36962890625,1.36640625,1.37607421875,1.40185546875,1.43408203125,1.46630859375,1.5533203125,1.662890625,1.67900390625,1.5662109375,1.430859375,1.36962890625,1.353515625,1.340625,1.32451171875,1.33740234375,1.3599609375,1.3599609375,1.3728515625,1.40185546875,1.38896484375,1.37607421875,1.38896484375,1.40830078125,1.42119140625,1.430859375,1.4373046875,1.44052734375,1.4501953125,1.4759765625,1.52109375,1.55654296875,1.5791015625,1.61455078125,1.637109375,1.62744140625,1.5919921875,1.5404296875,1.47275390625,1.40185546875,1.33740234375,1.301953125,1.28583984375,1.27939453125,1.27294921875,1.2890625,1.29873046875,1.28583984375,1.27294921875,1.27939453125,1.2955078125,1.301953125,1.30517578125,1.29873046875,1.29228515625,1.3083984375,1.327734375,1.32451171875,1.31484375,1.3212890625,1.34384765625,1.34384765625,1.327734375,1.33740234375,1.353515625,1.353515625,1.35029296875,1.36640625,1.379296875,1.37607421875,1.37607421875,1.36640625,1.36318359375,1.37607421875,1.379296875,1.36640625,1.353515625,1.35673828125,1.38251953125,1.38251953125,1.36962890625,1.379296875,1.38896484375,1.3857421875,1.38896484375,1.3921875,1.3921875,1.4115234375,1.44375,1.4373046875,1.41796875,1.4115234375,1.39541015625,1.38251953125,1.37607421875,1.36640625,1.36318359375,1.3599609375,1.379296875,1.41474609375,1.4888671875,1.60166015625,1.66611328125,1.60166015625,1.456640625,1.3599609375,1.340625,1.353515625,1.340625,1.3212890625,1.3341796875,1.36318359375,1.36318359375,1.3599609375,1.353515625,1.35029296875,1.3599609375,1.379296875,1.3921875,1.405078125,1.430859375,1.456640625,1.46630859375,1.482421875,1.51142578125,1.55654296875,1.5984375,1.63388671875,1.6564453125,1.6564453125,1.6435546875,1.61455078125,1.546875,1.47275390625,1.4244140625,1.3986328125,1.37607421875,1.35029296875,1.33740234375,1.340625,1.34384765625,1.3341796875,1.32451171875,1.33095703125,1.3470703125,1.35673828125,1.3599609375,1.36318359375,1.35673828125,1.3470703125,1.36318359375,1.38251953125,1.36962890625,1.36318359375,1.37607421875,1.38251953125,1.36962890625,1.35029296875,1.3470703125,1.35673828125,1.3470703125,1.340625,1.36318359375,1.3857421875,1.3599609375,1.3341796875,1.35673828125,1.3728515625,1.35029296875,1.33740234375,1.35029296875,1.35673828125,1.3599609375,1.36962890625,1.38251953125,1.379296875,1.3728515625,1.36962890625,1.379296875,1.3986328125,1.3986328125,1.3857421875,1.3728515625,1.3599609375,1.35029296875,1.3599609375,1.3599609375,1.34384765625,1.353515625,1.38896484375,1.4244140625,1.482421875,1.5533203125,1.57265625,1.5017578125,1.3986328125,1.340625,1.3341796875,1.33095703125,1.3212890625,1.33740234375,1.3470703125,1.33095703125,1.3341796875,1.35673828125,1.3728515625,1.3921875,1.40185546875,1.39541015625,1.38896484375,1.4115234375,1.44052734375,1.456640625,1.45341796875,1.46630859375,1.51787109375,1.57265625,1.60810546875,1.6306640625,1.64677734375,1.64677734375,1.6177734375,1.56298828125,1.49208984375,1.42119140625,1.37607421875,1.3599609375,1.35673828125,1.35029296875,1.3341796875,1.3212890625,1.3212890625,1.32451171875,1.3212890625,1.31806640625,1.3212890625,1.3341796875,1.36318359375,1.38251953125,1.36318359375,1.34384765625,1.3599609375,1.38896484375,1.38896484375,1.3728515625,1.36318359375,1.3728515625,1.38896484375,1.3857421875,1.379296875,1.37607421875,1.3728515625,1.379296875,1.3921875,1.39541015625,1.3857421875,1.379296875,1.38251953125,1.38896484375,1.3921875,1.39541015625,1.38251953125,1.37607421875,1.3857421875,1.3857421875,1.37607421875,1.38251953125,1.38896484375,1.38896484375,1.3921875,1.3986328125,1.39541015625,1.3857421875,1.35673828125,1.31806640625,1.301953125,1.30517578125,1.3083984375,1.32451171875,1.34384765625,1.3470703125,1.3599609375,1.43408203125,1.56298828125,1.64033203125,1.58232421875,1.45986328125,1.3728515625,1.3470703125,1.3470703125,1.353515625,1.36962890625,1.379296875,1.379296875,1.37607421875,1.379296875,1.38251953125,1.38896484375,1.40185546875,1.41474609375,1.41796875,1.42119140625,1.4373046875,1.456640625,1.47919921875,1.50498046875,1.52431640625,1.559765625,1.61455078125,1.6435546875,1.6435546875,1.637109375,1.6306640625,1.5984375,1.5404296875,1.47275390625,1.3986328125,1.3470703125,1.3341796875,1.34384765625,1.327734375,1.31806640625,1.3341796875,1.3341796875,1.31806640625,1.31806640625,1.32451171875,1.32451171875,1.3341796875,1.34384765625,1.33740234375,1.34384765625,1.35673828125,1.34384765625,1.3341796875,1.35673828125,1.36318359375,1.353515625,1.35673828125,1.36962890625,1.36318359375,1.3599609375,1.36318359375,1.353515625,1.3470703125,1.36318359375,1.3728515625,1.36318359375,1.35673828125,1.36318359375,1.36962890625,1.3857421875,1.38251953125,1.36318359375,1.36962890625,1.379296875,1.3728515625,1.379296875,1.38896484375,1.38896484375,1.37607421875,1.3728515625,1.38251953125,1.3986328125,1.40185546875,1.3921875,1.405078125,1.4115234375,1.40830078125,1.42763671875,1.4501953125,1.4115234375,1.35029296875,1.340625,1.3599609375,1.36640625,1.35673828125,1.36318359375,1.3857421875,1.4115234375,1.4759765625,1.58876953125,1.65966796875,1.6048828125,1.482421875,1.39541015625,1.353515625,1.3341796875,1.33095703125,1.340625,1.353515625,1.3599609375,1.35029296875,1.3470703125,1.36640625,1.3921875,1.40185546875,1.3857421875,1.38896484375,1.41474609375,1.42119140625,1.42119140625,1.44052734375,1.4630859375,1.5017578125,1.55654296875,1.58876953125,1.5984375,1.6177734375,1.637109375,1.62744140625,1.59521484375,1.54365234375,1.45986328125,1.37607421875,1.34384765625,1.33095703125,1.3083984375,1.301953125,1.2955078125,1.276171875,1.2826171875,1.301953125,1.29228515625,1.27939453125,1.3083984375,1.33740234375,1.31484375,1.2890625,1.29873046875,1.32451171875,1.32451171875,1.3083984375,1.301953125,1.3083984375,1.3212890625,1.3470703125,1.353515625,1.34384765625,1.33740234375,1.353515625,1.36962890625,1.36640625,1.35673828125,1.35673828125,1.3470703125,1.34384765625,1.36640625,1.38251953125,1.36640625,1.36318359375,1.37607421875,1.36962890625,1.36318359375,1.379296875,1.3857421875,1.379296875,1.3986328125,1.41474609375,1.41474609375,1.405078125,1.40185546875,1.3921875,1.3921875,1.40830078125,1.42119140625,1.43408203125,1.45986328125,1.45986328125,1.42119140625,1.3857421875,1.379296875,1.3921875,1.39541015625,1.3728515625,1.36318359375,1.40185546875,1.4759765625,1.5533203125,1.63388671875,1.67578125,1.60810546875,1.47275390625,1.38251953125,1.3470703125,1.3470703125,1.36962890625,1.36962890625,1.36318359375,1.3857421875,1.3986328125,1.38896484375,1.38251953125,1.40185546875,1.4115234375,1.40830078125,1.40830078125,1.41796875,1.44697265625,1.47275390625,1.46630859375,1.47919921875,1.5404296875,1.57587890625,1.58876953125,1.6048828125,1.63388671875,1.6435546875,1.62421875,1.5791015625,1.51142578125,1.45341796875,1.41796875,1.3986328125,1.3728515625,1.3212890625,1.29873046875,1.31162109375,1.31484375,1.3212890625,1.33095703125,1.327734375,1.327734375,1.34384765625,1.353515625,1.35029296875,1.34384765625,1.34384765625,1.35029296875,1.34384765625,1.3341796875,1.33740234375,1.340625,1.3470703125,1.35673828125,1.3599609375,1.36318359375,1.36962890625,1.3728515625,1.37607421875,1.37607421875,1.3728515625,1.36962890625,1.3599609375,1.3599609375,1.36962890625,1.36318359375,1.35029296875,1.35029296875,1.36640625,1.38251953125,1.3857421875,1.3857421875,1.37607421875,1.3599609375,1.36318359375,1.38896484375,1.39541015625,1.379296875,1.3728515625,1.3728515625,1.3728515625,1.3857421875,1.39541015625,1.40830078125,1.4244140625,1.42119140625,1.42119140625,1.44375,1.456640625,1.4244140625,1.37607421875,1.3599609375,1.379296875,1.3921875,1.38896484375,1.39541015625,1.40185546875,1.4115234375,1.46630859375,1.56298828125,1.62099609375,1.585546875,1.4759765625,1.37607421875,1.3341796875,1.3341796875,1.35673828125,1.379296875,1.37607421875,1.3599609375,1.3599609375,1.3728515625,1.37607421875,1.379296875,1.3986328125,1.4115234375,1.39541015625,1.3921875,1.4115234375,1.44375,1.46953125,1.4759765625,1.482421875,1.508203125,1.546875,1.57265625,1.57587890625,1.58876953125,1.60166015625,1.55654296875,1.4888671875,1.44375,1.39541015625,1.3341796875,1.276171875,1.2568359375,1.27939453125,1.29228515625,1.276171875,1.26005859375,1.2697265625,1.28583984375,1.2890625,1.2826171875,1.27294921875,1.2568359375,1.250390625,1.276171875,1.3083984375,1.31484375,1.3212890625,1.33095703125,1.327734375,1.31162109375,1.30517578125,1.3341796875,1.3470703125,1.3341796875,1.3341796875,1.340625,1.3470703125,1.35029296875,1.35029296875,1.36640625,1.3857421875,1.3728515625,1.35673828125,1.36962890625,1.3921875,1.3857421875,1.36962890625,1.37607421875,1.3857421875,1.3921875,1.40185546875,1.41474609375,1.44052734375,1.46630859375,1.4501953125,1.42119140625,1.41474609375,1.4115234375,1.405078125,1.38896484375,1.3728515625,1.3728515625,1.3921875,1.43408203125,1.4630859375,1.50498046875,1.5662109375,1.55654296875,1.47919921875,1.4115234375,1.3921875,1.3986328125,1.3986328125,1.40830078125,1.4244140625,1.40830078125,1.3986328125,1.41474609375,1.44052734375,1.44052734375,1.41474609375,1.4115234375,1.405078125,1.379296875,1.3921875,1.42119140625,1.40830078125,1.41796875,1.4953125,1.546875,1.56298828125,1.5662109375,1.56298828125,1.5791015625,1.5791015625,1.533984375,1.49853515625,1.456640625,1.3921875,1.36318359375,1.36640625,1.3470703125,1.3341796875,1.35029296875,1.36962890625,1.39541015625,1.42119140625,1.42763671875,1.4244140625,1.42119140625,1.41474609375,1.4115234375,1.3921875,1.36640625,1.3599609375,1.35029296875,1.3212890625,1.3212890625,1.353515625,1.3599609375,1.34384765625,1.3470703125,1.36640625,1.36318359375,1.36318359375,1.36640625,1.36640625,1.40185546875,1.45341796875,1.44375,1.41474609375,1.42763671875,1.4630859375,1.4759765625,1.4501953125,1.39541015625,1.3599609375,1.36640625,1.38896484375,1.40185546875,1.3857421875,1.35029296875,1.35029296875,1.405078125,1.46953125,1.5146484375,1.4888671875,1.36640625,1.2955078125,1.327734375,1.36962890625,1.36640625,1.353515625,1.3470703125,1.35673828125,1.39541015625,1.4115234375,1.40830078125,1.4244140625,1.44375,1.4501953125,1.45986328125,1.46953125,1.47919921875,1.49853515625,1.52109375,1.55009765625,1.56943359375,1.57587890625,1.60810546875,1.65,1.662890625,1.63388671875,1.585546875,1.53720703125,1.4888671875,1.42763671875,1.353515625,1.2955078125,1.2826171875,1.29873046875,1.29873046875,1.3083984375,1.3341796875,1.340625,1.3341796875,1.34384765625,1.36640625,1.3728515625,1.3728515625,1.3728515625,1.3599609375,1.3341796875,1.327734375,1.34384765625,1.3341796875,1.31162109375,1.32451171875,1.327734375,1.301953125,1.28583984375,1.29228515625,1.29228515625,1.2826171875,1.27294921875,1.28583984375,1.29873046875,1.2890625,1.2890625,1.30517578125,1.31484375,1.32451171875,1.3341796875,1.31484375,1.2697265625,1.2568359375,1.29228515625,1.30517578125,1.26328125,1.23427734375,1.2375,1.26005859375,1.35673828125,1.51787109375,1.5984375,1.533984375,1.3986328125,1.301953125,1.2826171875,1.31162109375,1.31162109375,1.301953125,1.3212890625,1.327734375,1.3212890625,1.3470703125,1.38251953125,1.379296875,1.353515625,1.353515625,1.38896484375,1.40830078125,1.405078125,1.41796875,1.456640625,1.4953125,1.5146484375,1.5404296875,1.58232421875,1.62421875,1.65322265625,1.65966796875,1.64677734375,1.60166015625,1.533984375,1.46630859375,1.41796875,1.38896484375,1.3470703125,1.3083984375,1.32451171875,1.35673828125,1.36318359375,1.36318359375,1.3728515625,1.36962890625,1.353515625,1.340625,1.35029296875,1.38896484375,1.41796875,1.40185546875,1.37607421875,1.3728515625,1.3921875,1.42119140625,1.430859375,1.40185546875,1.38896484375,1.40830078125,1.41796875,1.405078125,1.3921875,1.39541015625,1.40185546875,1.4115234375,1.41474609375,1.430859375,1.456640625,1.4630859375,1.4630859375,1.47275390625,1.4888671875,1.46630859375,1.40830078125,1.3857421875,1.38896484375,1.3921875,1.3986328125,1.41474609375,1.42763671875,1.44697265625,1.4888671875,1.585546875,1.67900390625,1.6435546875,1.48564453125,1.3728515625,1.379296875,1.4115234375,1.3986328125,1.3728515625,1.379296875,1.3857421875,1.379296875,1.36640625,1.36962890625,1.3921875,1.41474609375,1.42119140625,1.4115234375,1.40830078125,1.4244140625,1.44052734375,1.4373046875,1.44375,1.48564453125,1.52431640625,1.5533203125,1.57265625,1.585546875,1.5984375,1.58232421875,1.52109375,1.456640625,1.42119140625,1.37607421875,1.327734375,1.30517578125,1.29228515625,1.2826171875,1.28583984375,1.30517578125,1.31484375,1.30517578125,1.3083984375,1.32451171875,1.3341796875,1.32451171875,1.3341796875,1.353515625,1.34384765625,1.32451171875,1.33095703125,1.33740234375,1.327734375,1.31806640625,1.32451171875,1.3341796875,1.340625,1.353515625,1.353515625,1.340625,1.33095703125,1.3341796875,1.3470703125,1.35673828125,1.35029296875,1.327734375,1.31484375,1.33095703125,1.3728515625,1.3986328125,1.405078125,1.3986328125,1.36962890625,1.34384765625,1.33740234375,1.33740234375,1.33095703125,1.31806640625,1.3212890625,1.35029296875,1.3857421875,1.42763671875,1.52109375,1.62421875,1.6048828125,1.4630859375,1.3341796875,1.31162109375,1.3341796875,1.327734375,1.31806640625,1.327734375,1.340625,1.35673828125,1.353515625,1.340625,1.36640625,1.3857421875,1.37607421875,1.38896484375,1.405078125,1.3986328125,1.405078125,1.4244140625,1.44697265625,1.46953125,1.51787109375,1.56943359375,1.60810546875,1.62421875,1.62099609375,1.61455078125,1.58876953125,1.52109375,1.4501953125,1.41474609375,1.38251953125,1.353515625,1.3341796875,1.327734375,1.33095703125,1.3341796875,1.32451171875,1.33095703125,1.3599609375,1.3728515625,1.3728515625,1.3728515625,1.379296875,1.37607421875,1.3728515625,1.3728515625,1.38251953125,1.39541015625,1.38896484375,1.3921875,1.40830078125,1.40830078125,1.38896484375,1.379296875,1.38251953125,1.3921875,1.3921875,1.4115234375,1.4501953125,1.47919921875,1.4888671875,1.46953125,1.4244140625,1.405078125,1.39541015625,1.38251953125,1.3857421875,1.3921875,1.37607421875,1.36962890625,1.40830078125,1.4630859375,1.5662109375,1.662890625,1.60810546875,1.44052734375,1.33740234375,1.33740234375,1.33740234375,1.3212890625,1.31484375,1.3212890625,1.31806640625,1.301953125,1.31162109375,1.33740234375,1.34384765625,1.3341796875,1.34384765625,1.353515625,1.340625,1.3341796875,1.3470703125,1.353515625,1.36640625,1.40830078125,1.44375,1.4630859375,1.48564453125,1.49853515625,1.49208984375,1.4630859375,1.41796875,1.353515625
